-0.0000000 -0.0000000 -0.0000000 -0.0000000 -0.0000000 -0.0000000 -0.0000000 -0.0000000 -0.0000000 -0.0000000 -0.0000000 -0.0000000 -0.0000000 -0.0000000 -0.0000000 -0.0000000 -0.0000000 -0.0000000 -0.0000000 -0.0000000
-0.0000000 -0.0000000 -0.0000000 -0.0000000 -0.0000000 -0.0000000 -0.0000000 -0.0000000 -0.0000000 -0.0000000 -0.0000000 -0.0000000 -0.0000000 -0.0000000 -0.0000000 -0.0000000 -0.0000000 -0.0000000 -0.0000000 -0.0000000
-0.0008517 0.0069448 0.0072287 -0.0139047 0.0035808 -0.0111997 -0.0022739 -0.0026338 0.0000017 0.0000154 -0.0000034 0.0000326 0.0000038 0.0000137 -0.0000462 -0.0000180 -0.0032448 0.0096745 -0.0006006 -0.0012053
0.0041152 -0.0096479 -0.0042927 0.0053736 -0.0059606 0.0013055 -0.0016112 0.0035636 0.0000031 0.0000379 -0.0000099 0.0000464 0.0000028 0.0000280 0.0004523 0.0002752 0.0090513 -0.0188793 -0.0093380 0.0048190
-0.0048745 0.0036213 0.0020606 0.0019850 0.0008818 -0.0053544 -0.0009716 0.0016385 0.0000156 0.0000166 -0.0000153 -0.0000088 -0.0000006 -0.0000177 0.0013674 -0.0002960 0.0052675 -0.0118651 -0.0250065 0.0159100
-0.0073816 0.0119945 0.0025911 -0.0006817 0.0014787 0.0057991 -0.0039187 0.0000039 0.0000270 -0.0000120 -0.0000088 -0.0000685 -0.0000121 -0.0000490 0.0011710 -0.0007564 0.0007434 -0.0123875 -0.0007764 -0.0100615
-0.0019430 0.0079302 0.0125228 -0.0127766 -0.0082346 0.0155261 -0.0060627 0.0044066 0.0000190 -0.0000013 -0.0000026 -0.0000550 -0.0000072 -0.0000317 0.0011374 -0.0012813 -0.0036535 0.0020747 0.0067672 -0.0093652
0.0053274 0.0025217 0.0040501 0.0024536 -0.0092402 0.0169844 -0.0047010 0.0027886 0.0000129 0.0000079 -0.0000003 -0.0000011 -0.0000083 -0.0000010 -0.0000091 0.0001516 -0.0078749 0.0101831 0.0073978 0.0001152
0.0058881 0.0052364 0.0015973 0.0015216 -0.0133155 0.0239272 0.0051322 -0.0195222 0.0000140 0.0000384 0.0000033 0.0000577 0.0000011 0.0000228 -0.0003505 0.0004786 -0.0037086 0.0079345 0.0082859 -0.0054412
-0.0008423 0.0024747 0.0129500 -0.0167591 -0.0089131 0.0027965 0.0059509 -0.0235206 0.0000128 0.0000659 -0.0000027 0.0001127 0.0000086 0.0000516 -0.0001449 0.0000149 -0.0016467 0.0064052 0.0014670 -0.0183668
0.0031254 0.0001873 0.0134792 -0.0207710 -0.0094535 0.0111277 0.0081680 -0.0266408 0.0000092 0.0000830 -0.0000002 0.0001705 0.0000205 0.0000839 -0.0004936 0.0007733 -0.0026589 0.0031433 -0.0162125 0.0009874
0.0010734 -0.0027008 0.0031843 0.0014993 -0.0000282 -0.0018830 0.0030736 -0.0093725 0.0000030 0.0000399 0.0000237 0.0001249 0.0000060 0.0000703 -0.0001993 0.0004360 0.0042902 -0.0118799 -0.0120410 0.0065094
-0.0077298 0.0054435 0.0036389 0.0070880 -0.0042868 -0.0097983 -0.0055386 0.0052181 -0.0000009 -0.0001095 0.0000400 0.0000443 -0.0000184 0.0000128 0.0005925 -0.0005434 0.0009444 -0.0171152 -0.0085421 0.0052081
-0.0044239 -0.0103891 0.0085910 -0.0049493 -0.0003297 -0.0034865 -0.0020234 0.0074868 -0.0000197 -0.0002141 0.0000419 0.0000951 -0.0000219 0.0000130 0.0007371 -0.0006719 -0.0102307 -0.0013639 0.0025772 -0.0088588
-0.0019058 -0.0133973 0.0040826 -0.0025289 0.0055019 -0.0063823 0.0015751 0.0017586 -0.0000462 -0.0002104 0.0000563 0.0001640 0.0000085 0.0000434 -0.0001019 0.0004192 -0.0035675 0.0062686 0.0134366 -0.0251121
-0.0064829 0.0076544 0.0087953 -0.0129725 -0.0007043 0.0047842 0.0135810 -0.0231036 -0.0000590 -0.0001675 0.0000686 0.0002130 0.0000349 0.0000751 -0.0005890 0.0004346 -0.0044153 0.0006948 0.0263147 -0.0514600
-0.0016592 0.0044094 0.0037167 -0.0034000 -0.0085542 0.0165756 0.0258213 -0.0455199 -0.0000447 -0.0001098 0.0000644 0.0002839 0.0000349 0.0001229 -0.0004671 -0.0000440 -0.0030153 0.0036644 0.0135204 -0.0196854
0.0040684 -0.0010244 -0.0009293 -0.0013342 -0.0112420 0.0092635 0.0038773 -0.0038802 -0.0000175 -0.0000202 0.0000497 0.0003532 0.0000335 0.0001769 -0.0001161 0.0005817 0.0007617 0.0097291 -0.0057874 0.0172408
0.0023932 0.0036297 0.0023706 -0.0089251 0.0032121 -0.0200732 -0.0049744 0.0050162 0.0000148 0.0000097 0.0000404 0.0003316 0.0000161 0.0001722 0.0011269 -0.0005392 -0.0104519 0.0188228 -0.0076655 0.0162138
-0.0032794 0.0052148 -0.0018439 0.0014125 -0.0092978 0.0041262 -0.0030934 -0.0036442 0.0000238 -0.0000163 0.0000583 0.0002208 0.0000099 0.0001006 0.0011191 -0.0004216 -0.0047958 0.0070338 -0.0019038 0.0000075
-0.0128141 0.0089218 -0.0095272 0.0125237 -0.0299283 0.0245419 -0.0131400 0.0036974 0.0000287 -0.0000011 0.0000702 0.0001786 -0.0000058 0.0001097 0.0002927 0.0008251 0.0152722 -0.0300488 0.0022369 0.0050964
0.0094961 -0.0218487 0.0044410 -0.0023604 -0.0238409 0.0240643 -0.0082778 0.0147173 0.0000413 0.0000305 0.0000686 0.0002085 -0.0000151 0.0001358 -0.0000728 0.0006244 -0.0055337 0.0088684 0.0051839 0.0043351
0.0023206 -0.0039587 0.0093072 -0.0139159 -0.0146143 0.0186071 -0.0132792 0.0266502 0.0000293 0.0000782 0.0000542 0.0002498 -0.0000056 0.0001391 0.0001675 -0.0007561 -0.0103084 0.0182690 -0.0019322 0.0137732
-0.0092182 0.0137302 0.0063318 -0.0179883 0.0006542 -0.0033778 -0.0109313 0.0117593 0.0000179 0.0001521 0.0000410 0.0003034 0.0000220 0.0001605 -0.0002306 -0.0002974 -0.0003386 0.0005638 -0.0043201 0.0123943
-0.0017700 0.0043932 0.0257969 -0.0512512 -0.0021706 0.0050859 -0.0049820 -0.0059659 0.0000285 0.0002202 0.0000303 0.0003622 0.0000346 0.0002033 -0.0007926 0.0010934 0.0004813 0.0068964 -0.0164057 0.0124138
0.0024891 0.0024816 0.0098197 -0.0131783 -0.0084248 0.0149644 -0.0098176 0.0081637 0.0000533 0.0002082 0.0000396 0.0003450 0.0000217 0.0002110 -0.0003511 -0.0000766 0.0060398 0.0036911 -0.0132220 0.0053937
0.0088840 -0.0106003 -0.0046377 0.0095028 0.0024105 -0.0073135 -0.0099180 0.0183692 0.0000676 0.0001383 0.0000605 0.0003163 0.0000324 0.0001931 0.0006882 -0.0027893 0.0059112 -0.0080242 0.0090323 -0.0289559
0.0035185 -0.0116213 -0.0025981 0.0017724 0.0096701 -0.0367231 0.0013816 0.0066309 0.0000631 0.0001194 0.0000642 0.0003774 0.0000388 0.0001795 0.0006886 -0.0033496 0.0050914 -0.0079386 0.0018858 -0.0081818
0.0014449 -0.0174247 0.0015310 -0.0047471 -0.0104546 0.0092702 0.0042537 -0.0056233 0.0000440 0.0001563 0.0000662 0.0004280 0.0000167 0.0001168 -0.0010653 -0.0019181 0.0072316 -0.0038616 -0.0039014 0.0039680
0.0033103 -0.0078243 0.0008013 0.0049286 -0.0005192 0.0112522 -0.0027409 -0.0034369 0.0000352 0.0002046 0.0000655 0.0004486 0.0000092 0.0000471 -0.0021230 -0.0022325 -0.0026069 0.0061593 0.0047303 -0.0102802
-0.0015221 0.0076828 0.0023475 0.0070715 0.0069576 -0.0059400 0.0083449 -0.0131763 0.0000368 0.0002586 0.0000553 0.0004838 -0.0000046 0.0000497 -0.0025515 -0.0021939 -0.0095988 0.0084722 0.0043912 -0.0036268
0.0033440 -0.0049945 -0.0018810 0.0032413 -0.0133463 0.0129247 0.0178359 -0.0329871 0.0000427 0.0003031 0.0000453 0.0005337 -0.0000156 0.0000647 -0.0020962 -0.0018009 -0.0078554 0.0022891 -0.0042700 0.0094568
0.0054102 -0.0054435 -0.0009486 -0.0233949 -0.0225796 0.0168585 0.0122026 -0.0211882 0.0000589 0.0002808 0.0000359 0.0004798 -0.0000132 -0.0000109 -0.0005922 -0.0034620 -0.0050755 -0.0061297 -0.0116452 0.0087952
-0.0045933 0.0078596 -0.0071604 -0.0067266 0.0058278 -0.0045559 0.0035900 -0.0069691 0.0000718 0.0002330 0.0000286 0.0003645 -0.0000149 -0.0000952 -0.0002144 -0.0040882 -0.0032934 0.0016098 -0.0079824 -0.0068999
-0.0041045 -0.0011963 -0.0069841 0.0051500 0.0046908 -0.0023142 -0.0075136 -0.0023765 0.0000743 0.0002591 0.0000318 0.0003400 -0.0000413 -0.0000821 -0.0003909 -0.0032376 0.0023458 -0.0011789 0.0001820 0.0050424
-0.0035070 -0.0059226 0.0059236 -0.0087241 0.0152557 -0.0271720 0.0000284 -0.0150770 0.0000719 0.0003069 0.0000357 0.0003607 -0.0000668 -0.0000474 -0.0002238 -0.0035127 0.0028244 0.0044626 -0.0000750 0.0129861
-0.0142702 0.0189574 0.0131585 -0.0309741 0.0143166 -0.0204960 0.0106763 -0.0163400 0.0000761 0.0003443 0.0000309 0.0003925 -0.0000569 -0.0000265 -0.0006238 -0.0039321 0.0042133 0.0005455 0.0009052 0.0011149
-0.0088316 0.0126058 0.0107298 -0.0272454 -0.0001599 -0.0037034 0.0051687 -0.0130262 0.0000766 0.0004097 0.0000292 0.0004424 -0.0000419 0.0000075 -0.0014948 -0.0034510 0.0132200 -0.0351571 0.0120220 -0.0224046
0.0013480 -0.0026255 -0.0054568 0.0108915 0.0024248 -0.0030576 0.0019257 -0.0158168 0.0000694 0.0004791 0.0000236 0.0004823 -0.0000383 0.0000259 -0.0016716 -0.0032485 -0.0088842 0.0146486 0.0009049 -0.0071467
0.0120570 -0.0139128 -0.0195770 0.0244886 0.0006422 0.0008518 0.0080430 -0.0138021 0.0000787 0.0004469 0.0000124 0.0004123 -0.0000530 -0.0000211 -0.0014110 -0.0035014 -0.0066794 0.0242625 -0.0027340 0.0061295
0.0070960 -0.0121453 -0.0172336 0.0220424 0.0147702 -0.0167204 0.0020843 0.0003482 0.0000941 0.0003603 0.0000080 0.0003109 -0.0000545 -0.0000818 -0.0001962 -0.0040319 0.0039521 0.0092173 0.0091056 -0.0130573
-0.0154546 0.0110873 0.0041648 -0.0005106 0.0178080 -0.0214324 -0.0041318 0.0132214 0.0000942 0.0003556 0.0000058 0.0002987 -0.0000599 -0.0000839 0.0003606 -0.0031141 0.0094845 -0.0059207 0.0021774 -0.0002144
-0.0013144 -0.0105764 0.0058680 -0.0015934 0.0053628 -0.0081433 -0.0014958 0.0067079 0.0000939 0.0003894 0.0000077 0.0003185 -0.0000737 -0.0000602 -0.0007032 -0.0015314 0.0074563 -0.0169592 -0.0022132 0.0014982
0.0123664 -0.0350535 -0.0064594 0.0144263 0.0051200 -0.0010319 0.0098033 -0.0129260 0.0000824 0.0004223 0.0000033 0.0003452 -0.0000589 -0.0000542 -0.0014049 -0.0020679 0.0055153 -0.0187878 0.0128272 -0.0311273
0.0037046 -0.0142502 0.0040980 -0.0032772 0.0040986 -0.0024194 0.0117615 -0.0142778 0.0000688 0.0004732 -0.0000066 0.0003851 -0.0000422 -0.0000359 -0.0019092 -0.0021635 0.0081767 -0.0177502 0.0018222 0.0044245
-0.0093786 0.0035099 0.0061559 -0.0109026 0.0006863 -0.0132254 -0.0009751 0.0039352 0.0000654 0.0005305 -0.0000119 0.0004313 -0.0000319 0.0000047 -0.0017704 -0.0010242 0.0031386 -0.0023387 -0.0089323 0.0192372
-0.0114826 0.0084249 0.0065443 -0.0078381 0.0017352 0.0024249 -0.0042594 0.0104755 0.0000714 0.0004957 -0.0000115 0.0003650 -0.0000197 -0.0000489 -0.0008087 -0.0017080 -0.0039517 0.0082790 -0.0106244 0.0067797
-0.0016384 -0.0006964 0.0130862 -0.0160046 0.0056580 0.0031539 0.0011982 0.0062347 0.0000839 0.0004096 -0.0000143 0.0002260 -0.0000251 -0.0001426 -0.0006320 -0.0024612 -0.0081059 0.0163241 -0.0117692 0.0064394
0.0021709 -0.0100388 0.0044783 -0.0056109 0.0066090 -0.0046622 -0.0012052 0.0012053 0.0000858 0.0003929 -0.0000128 0.0001792 -0.0000624 -0.0001457 -0.0006860 -0.0017599 -0.0009994 0.0089777 -0.0022278 0.0078838
0.0022106 -0.0018080 -0.0023390 0.0034373 -0.0012026 0.0008969 0.0031902 -0.0158881 0.0000846 0.0004161 -0.0000121 0.0001899 -0.0000871 -0.0001226 -0.0007297 -0.0017226 0.0020885 -0.0046297 0.0070586 0.0017840
0.0058066 -0.0073354 0.0085258 -0.0183569 -0.0066300 0.0115673 0.0138671 -0.0278772 0.0000840 0.0004192 -0.0000219 0.0002077 -0.0000820 -0.0000984 -0.0011118 -0.0015867 -0.0136721 0.0106780 0.0075490 0.0010165
0.0113735 -0.0182788 0.0227881 -0.0447279 0.0031668 0.0014122 0.0002595 0.0086115 0.0000691 0.0004424 -0.0000330 0.0002538 -0.0000608 -0.0000694 -0.0017983 -0.0011039 -0.0056211 0.0009756 -0.0033699 0.0104293
0.0134395 -0.0241988 0.0137401 -0.0261913 0.0024691 0.0010108 -0.0034343 0.0144683 0.0000554 0.0005046 -0.0000365 0.0003084 -0.0000497 -0.0000338 -0.0016942 -0.0016841 -0.0038268 -0.0017210 -0.0169824 0.0247563
0.0145381 -0.0378533 0.0038560 -0.0046896 -0.0143228 0.0256740 0.0054778 -0.0052001 0.0000624 0.0004766 -0.0000330 0.0002775 -0.0000526 -0.0000558 -0.0010907 -0.0020627 -0.0214086 0.0265228 -0.0052625 0.0129280
-0.0002224 -0.0003068 0.0082960 -0.0100764 -0.0158835 0.0251412 -0.0061421 0.0086150 0.0000570 0.0003636 -0.0000308 0.0001916 -0.0000673 -0.0001316 0.0000878 -0.0024516 -0.0087558 0.0199622 -0.0051421 0.0130549
-0.0081185 0.0130703 0.0118314 -0.0116964 -0.0019674 0.0071721 -0.0247058 0.0299456 0.0000311 0.0002486 -0.0000195 0.0001905 -0.0000831 -0.0001676 0.0005006 -0.0020304 0.0050270 -0.0025578 -0.0269124 0.0321186
-0.0058943 0.0052631 0.0133735 -0.0128896 0.0023679 0.0042055 -0.0085277 0.0137182 -0.0000502 0.0000212 0.0000270 0.0003491 -0.0000779 -0.0001704 -0.0008325 -0.0008284 0.0012022 0.0062031 -0.0074676 0.0061439
-0.0004531 -0.0056318 0.0120382 -0.0229792 -0.0056994 0.0071269 0.0133230 -0.0264596 -0.0001963 -0.0002733 0.0000963 0.0005541 -0.0000636 -0.0001610 -0.0010596 -0.0007187 -0.0036399 0.0094213 0.0088713 -0.0116613
-0.0059092 0.0079259 -0.0010786 -0.0052870 -0.0106127 0.0123578 0.0095956 -0.0176132 -0.0003090 -0.0004182 0.0001465 0.0007315 -0.0000327 -0.0000239 -0.0011651 0.0006332 0.0049656 -0.0112565 0.0088037 -0.0079445
-0.0002166 0.0070235 -0.0044660 0.0026505 -0.0123551 0.0160230 -0.0008701 -0.0007885 -0.0003445 -0.0004284 0.0001537 0.0008441 0.0000080 0.0001751 -0.0008823 0.0015562 0.0055383 -0.0001563 0.0019964 0.0000383
0.0076927 -0.0153908 0.0054746 -0.0006359 -0.0040034 0.0057982 -0.0012668 -0.0130792 -0.0003280 -0.0003709 0.0001317 0.0008171 0.0000387 0.0002377 0.0004666 0.0000420 -0.0001500 0.0060946 -0.0085109 0.0068635
0.0074581 -0.0194356 0.0073482 0.0051228 0.0083976 -0.0111736 -0.0159131 0.0181025 -0.0002940 -0.0003587 0.0001232 0.0007076 0.0000616 0.0002182 0.0008250 0.0003048 -0.0022576 -0.0020493 -0.0075244 -0.0020014
0.0004363 0.0039901 0.0059650 -0.0035392 0.0043120 -0.0048155 -0.0120923 0.0185397 -0.0002739 -0.0004355 0.0001393 0.0006894 0.0000627 0.0002508 0.0011433 0.0012284 0.0032149 -0.0085890 -0.0004928 0.0003453
-0.0027732 0.0085843 -0.0041206 0.0136783 0.0017866 -0.0113694 -0.0025417 -0.0055747 -0.0002782 -0.0004672 0.0001761 0.0007906 0.0000598 0.0003404 0.0017184 0.0002935 0.0010679 -0.0128982 0.0064796 -0.0092657
-0.0086651 0.0073568 -0.0072425 0.0264535 0.0180328 -0.0391249 -0.0160775 0.0081205 -0.0002866 -0.0004396 0.0002149 0.0009008 0.0000593 0.0004500 0.0011340 0.0002841 -0.0060166 0.0006267 0.0118201 -0.0207415
0.0016239 -0.0050478 -0.0074966 0.0144591 0.0110156 -0.0064097 -0.0075985 -0.0001553 -0.0002902 -0.0003854 0.0002413 0.0010297 0.0000863 0.0005404 -0.0001334 0.0016596 -0.0090086 0.0155329 0.0153573 -0.0151882
0.0114937 -0.0172734 -0.0113522 0.0050294 0.0050274 0.0022608 -0.0072101 0.0091288 -0.0002658 -0.0002530 0.0002482 0.0011323 0.0001248 0.0006026 -0.0006222 0.0020012 -0.0111142 0.0168844 0.0130227 -0.0148878
0.0107491 -0.0165769 -0.0103383 0.0078073 0.0006502 -0.0046002 -0.0018588 0.0047647 -0.0002118 -0.0000580 0.0002336 0.0011428 0.0001193 0.0006710 0.0000222 0.0009004 -0.0037393 0.0069947 -0.0023936 -0.0025717
0.0235951 -0.0405084 -0.0035119 0.0038774 0.0037225 -0.0013200 0.0011506 -0.0024913 -0.0001560 -0.0000047 0.0002318 0.0010545 0.0001174 0.0006421 0.0009669 0.0006466 -0.0001579 0.0036546 -0.0154209 0.0126054
0.0212907 -0.0430862 0.0046387 -0.0141001 0.0083573 -0.0073136 -0.0073622 0.0095369 -0.0001406 -0.0001259 0.0002533 0.0010162 0.0001216 0.0005713 0.0013042 0.0013639 -0.0011084 0.0054973 -0.0091594 0.0028232
0.0092337 -0.0255012 0.0029356 -0.0126761 0.0001569 -0.0160875 -0.0041118 0.0168413 -0.0001635 -0.0001507 0.0002705 0.0010306 0.0001219 0.0005548 0.0005282 0.0019632 0.0052213 -0.0012305 0.0037662 -0.0046339
0.0102452 -0.0256500 -0.0037867 0.0041795 -0.0015256 -0.0053449 -0.0002178 0.0144180 -0.0001432 -0.0000297 0.0002657 0.0009718 0.0001243 0.0005411 -0.0001189 0.0018972 0.0012407 0.0003007 0.0038170 -0.0053089
0.0094334 -0.0305466 0.0003247 0.0107636 -0.0009273 -0.0001922 -0.0009797 0.0064597 -0.0001090 0.0000954 0.0002402 0.0009520 0.0001130 0.0005570 -0.0007199 0.0023624 -0.0028480 0.0042480 0.0014421 -0.0044650
0.0004293 -0.0154789 -0.0007432 0.0113724 0.0056642 -0.0160730 -0.0072612 0.0147752 -0.0000947 0.0002193 0.0002215 0.0009767 0.0001088 0.0006072 -0.0006441 0.0029388 0.0001225 0.0005978 0.0013674 0.0053521
-0.0086956 0.0093122 -0.0026641 -0.0009312 0.0087676 -0.0192302 -0.0000369 0.0057510 -0.0000662 0.0003540 0.0001936 0.0008630 0.0001230 0.0005539 0.0006950 0.0016524 -0.0078546 0.0056133 -0.0034159 0.0042776
-0.0029791 0.0054632 -0.0073753 0.0146147 -0.0075621 0.0111110 0.0095302 -0.0184068 -0.0000029 0.0004276 0.0001493 0.0006178 0.0001165 0.0004242 0.0007096 0.0015633 -0.0087881 0.0031827 -0.0147023 0.0097943
0.0032518 -0.0010666 -0.0139846 0.0196416 -0.0065814 0.0118217 -0.0005103 -0.0131136 0.0000963 0.0005391 0.0001092 0.0004138 0.0000712 0.0003517 0.0008055 0.0017732 -0.0078010 0.0076079 -0.0041144 0.0128704
0.0068001 0.0004032 -0.0075656 0.0077803 0.0031805 0.0014627 -0.0013311 -0.0146846 0.0001761 0.0006755 0.0000874 0.0003260 0.0000386 0.0003052 0.0012089 0.0016617 0.0016954 -0.0019295 0.0079286 -0.0055196
0.0047698 0.0033787 0.0031042 0.0038371 0.0017190 0.0025755 0.0030949 -0.0042549 0.0002162 0.0007546 0.0000818 0.0003182 0.0000455 0.0002768 0.0007721 0.0023642 0.0081109 -0.0072192 0.0076328 -0.0055589
0.0047847 -0.0037423 0.0068669 -0.0101205 -0.0012303 0.0033787 -0.0047380 0.0087074 0.0002423 0.0008292 0.0000630 0.0003227 0.0000608 0.0002704 0.0000974 0.0030241 -0.0027784 0.0035161 -0.0010349 0.0103286
0.0000976 0.0017580 0.0026386 -0.0009290 0.0099247 -0.0112619 -0.0058030 -0.0026962 0.0002447 0.0008760 0.0000541 0.0003496 0.0000584 0.0002732 0.0000314 0.0027338 -0.0025563 0.0002968 -0.0117935 0.0167968
-0.0028538 0.0086460 -0.0014748 0.0031297 0.0087792 -0.0067228 0.0006954 -0.0074172 0.0002410 0.0007861 0.0000775 0.0003205 0.0000601 0.0002472 0.0005099 0.0016181 0.0010327 0.0057801 -0.0098059 0.0128170
0.0060603 0.0038434 0.0076118 -0.0141428 -0.0038383 0.0098827 0.0071317 -0.0156747 0.0001479 0.0003443 0.0001532 0.0004247 0.0000772 0.0002726 0.0008593 0.0010118 -0.0035407 0.0075700 -0.0037322 0.0072346
0.0065121 -0.0021605 0.0038662 -0.0003092 0.0068877 -0.0093138 0.0090655 -0.0096608 -0.0000256 -0.0001869 0.0002497 0.0007176 0.0000759 0.0003545 0.0009164 0.0010751 0.0032385 -0.0139370 -0.0013306 0.0014581
0.0098324 -0.0236922 -0.0151273 0.0230101 0.0026387 -0.0016062 0.0006924 0.0082298 -0.0001480 -0.0004627 0.0003159 0.0009169 0.0000695 0.0003842 -0.0001469 0.0017572 0.0050770 -0.0005913 0.0122104 -0.0256641
0.0098500 -0.0255997 -0.0069307 0.0030380 0.0047106 -0.0013647 -0.0014711 0.0080789 -0.0002030 -0.0005523 0.0003495 0.0010203 0.0000738 0.0003879 -0.0008917 0.0016493 -0.0045517 0.0132884 0.0117740 -0.0163308
-0.0027301 -0.0014457 0.0038125 -0.0212477 0.0198168 -0.0388886 0.0111293 -0.0094190 -0.0002252 -0.0005305 0.0003502 0.0010848 0.0000656 0.0004143 -0.0008684 0.0011232 -0.0186481 0.0199915 0.0078849 -0.0064249
-0.0057651 0.0224213 -0.0063858 0.0134480 0.0122064 -0.0423165 0.0148588 -0.0221026 -0.0002395 -0.0004901 0.0003436 0.0011007 0.0000769 0.0004194 -0.0007062 0.0013992 -0.0093079 0.0197172 -0.0004446 0.0095822
-0.0038486 0.0221595 -0.0003354 0.0035476 0.0134927 -0.0333308 0.0127396 -0.0291668 -0.0002190 -0.0005348 0.0003326 0.0010115 0.0001084 0.0003222 0.0000483 0.0006613 -0.0091882 0.0124041 -0.0090924 0.0152033
-0.0000662 0.0042572 -0.0072533 0.0050908 0.0091080 -0.0171588 0.0032378 -0.0053770 -0.0001935 -0.0006220 0.0003237 0.0009132 0.0001091 0.0002387 0.0008327 -0.0005423 0.0026839 -0.0096969 -0.0077004 -0.0039713
0.0091502 -0.0135885 -0.0124298 0.0170557 -0.0059329 0.0098991 0.0024127 -0.0047074 -0.0001981 -0.0006364 0.0003261 0.0008945 0.0000784 0.0002440 0.0010385 -0.0000858 0.0114808 -0.0126902 -0.0074679 0.0093028
0.0125082 -0.0242248 0.0045335 0.0004830 -0.0004870 0.0120070 0.0043725 -0.0143033 -0.0002013 -0.0005785 0.0003232 0.0008958 0.0000510 0.0002793 0.0011405 -0.0004663 0.0025675 0.0021119 0.0034739 -0.0014927
0.0122538 -0.0178505 0.0064005 -0.0002070 0.0050459 0.0068943 0.0069344 -0.0044687 -0.0001848 -0.0004597 0.0003038 0.0008837 0.0000323 0.0003364 0.0004836 -0.0001948 -0.0029890 0.0046888 0.0074135 -0.0059247
0.0020284 0.0043664 0.0087317 -0.0135681 -0.0034588 0.0078619 0.0037443 0.0030593 -0.0001561 -0.0003209 0.0002769 0.0008844 0.0000588 0.0003741 -0.0005839 0.0010818 0.0082490 -0.0201879 -0.0023427 0.0112209
-0.0209069 0.0195077 -0.0037321 0.0035160 0.0014419 -0.0121165 -0.0092200 0.0049898 -0.0001341 -0.0001810 0.0002541 0.0008396 0.0000979 0.0003531 -0.0009880 0.0017279 0.0019099 -0.0112730 0.0025631 0.0001295
-0.0172855 0.0066233 -0.0175708 0.0188295 0.0088047 -0.0224666 -0.0182050 0.0090916 -0.0000938 -0.0001191 0.0002380 0.0006883 0.0000897 0.0002861 -0.0004098 0.0006628 -0.0059927 0.0053332 0.0063217 -0.0088914
0.0043743 -0.0253305 -0.0004951 -0.0025197 0.0047544 -0.0051157 -0.0199270 0.0228141 -0.0000559 -0.0001301 0.0002240 0.0005929 0.0000857 0.0002346 0.0010404 -0.0007071 0.0000843 0.0038966 -0.0100870 0.0081528
0.0127795 -0.0327857 0.0143598 -0.0254340 0.0056015 0.0034811 -0.0050202 0.0167849 -0.0000469 -0.0001074 0.0002257 0.0006191 0.0000699 0.0002817 0.0012637 0.0000932 0.0044847 -0.0028060 -0.0125236 0.0090886
-0.0003178 0.0042781 0.0130093 -0.0339804 0.0033841 0.0043991 -0.0016702 -0.0005497 -0.0000466 -0.0000510 0.0002422 0.0006780 0.0000595 0.0003469 0.0008274 -0.0000377 0.0046301 -0.0047999 0.0000830 -0.0015163
-0.0016703 0.0011725 0.0002035 -0.0141268 0.0031324 -0.0034173 -0.0045823 -0.0017703 -0.0000627 0.0000222 0.0002490 0.0007549 0.0000897 0.0003665 0.0003337 -0.0000642 0.0072564 -0.0092951 0.0113049 -0.0220177
0.0023617 -0.0108244 -0.0035357 0.0108608 -0.0031419 0.0023815 0.0065867 -0.0112846 -0.0000767 0.0000805 0.0002559 0.0008408 0.0000947 0.0004284 -0.0007728 0.0013928 0.0103989 -0.0152226 0.0159433 -0.0318580
0.0017998 -0.0065872 -0.0090534 0.0226736 -0.0114455 -0.0041155 0.0114453 -0.0327756 -0.0000683 0.0000962 0.0002651 0.0008631 0.0000919 0.0004714 -0.0003705 0.0011605 -0.0003406 -0.0012288 -0.0040889 0.0084416
-0.0111236 0.0068647 -0.0126412 0.0186049 0.0016827 -0.0044489 -0.0011025 -0.0004680 -0.0000687 -0.0000151 0.0002549 0.0008184 0.0001187 0.0004216 0.0006029 -0.0000578 -0.0007003 -0.0072883 -0.0170439 0.0142652
-0.0123944 0.0267570 -0.0091945 0.0126968 0.0071134 -0.0048011 -0.0047440 0.0128295 -0.0001239 -0.0002101 0.0002488 0.0008322 0.0001269 0.0004119 0.0007229 0.0003508 0.0028754 -0.0135275 -0.0214088 -0.0033301
-0.0067704 0.0207314 0.0015212 0.0033855 0.0094901 -0.0176738 -0.0126974 0.0205517 -0.0001913 -0.0003193 0.0002562 0.0009145 0.0001175 0.0004475 0.0008614 0.0006289 -0.0054426 -0.0021776 -0.0020552 -0.0012640
-0.0034398 -0.0016773 0.0050713 -0.0031809 0.0040320 -0.0103637 0.0016274 -0.0026362 -0.0002260 -0.0003237 0.0002700 0.0009987 0.0000983 0.0004954 0.0006143 0.0005721 -0.0029642 0.0024461 0.0055297 -0.0043349
0.0106165 -0.0170716 0.0086940 -0.0181864 0.0113137 -0.0275808 0.0095058 -0.0153457 -0.0002358 -0.0002938 0.0002892 0.0010925 0.0001038 0.0005307 0.0004439 0.0005516 -0.0008597 0.0106864 0.0121664 -0.0225123
0.0016381 0.0060776 0.0032865 -0.0082190 0.0060388 -0.0135594 -0.0014772 0.0065633 -0.0002534 -0.0002211 0.0002837 0.0011474 0.0001269 0.0005484 -0.0000221 0.0009445 0.0016782 0.0030663 0.0167319 -0.0264019
0.0002002 0.0028743 -0.0097408 0.0075458 -0.0076948 0.0166977 0.0064993 -0.0021293 -0.0002452 -0.0001468 0.0002414 0.0010545 0.0001246 0.0005289 -0.0006846 0.0014702 -0.0035235 0.0009106 0.0108326 -0.0149574
-0.0012263 0.0047370 0.0021110 -0.0143438 -0.0089306 0.0202263 0.0143869 -0.0221543 -0.0002105 -0.0001332 0.0002110 0.0009060 0.0001193 0.0004499 -0.0002966 0.0006393 -0.0005929 -0.0026557 0.0069322 -0.0109082
-0.0039154 0.0111222 0.0037286 -0.0112581 -0.0039493 0.0095636 0.0112308 -0.0281095 -0.0002087 -0.0001104 0.0001972 0.0008590 0.0000966 0.0004315 0.0009450 -0.0011500 0.0104974 -0.0230296 0.0084612 -0.0199505
0.0025694 -0.0049215 0.0081042 -0.0190293 0.0085913 -0.0080644 0.0025657 -0.0037095 -0.0002219 -0.0000510 0.0001807 0.0008719 0.0000660 0.0004585 0.0013406 -0.0009938 0.0069392 -0.0144551 -0.0031710 -0.0056000
-0.0090770 0.0116766 0.0104334 -0.0180533 0.0143345 -0.0213886 0.0018142 -0.0009297 -0.0002324 0.0000127 0.0001727 0.0009020 0.0000677 0.0004760 0.0000341 0.0011429 0.0159804 -0.0290507 -0.0029703 0.0030844
-0.0094085 0.0045404 0.0007352 -0.0015817 0.0006552 -0.0101004 0.0017093 -0.0036269 -0.0002484 0.0000293 0.0001874 0.0009978 0.0000731 0.0004923 -0.0001750 0.0003383 0.0292496 -0.0648161 0.0076687 -0.0028195
0.0112818 -0.0343950 -0.0024617 -0.0023230 -0.0001730 -0.0139166 0.0056039 -0.0078298 -0.0002470 0.0000852 0.0001784 0.0010244 0.0000572 0.0004946 -0.0004352 -0.0002464 0.0307768 -0.0726889 0.0052720 -0.0083908
-0.0027336 0.0114776 0.0025582 -0.0003343 0.0000074 -0.0124777 0.0045087 -0.0105237 -0.0000901 0.0004933 0.0000211 0.0005733 0.0000230 0.0003611 -0.0003752 0.0009573 0.0216207 -0.0540884 -0.0089432 0.0075679
-0.0086261 0.0167248 0.0017170 0.0027771 -0.0032659 0.0048479 -0.0169247 0.0205506 0.0001306 0.0009851 -0.0001033 0.0001619 0.0000172 0.0002029 0.0010040 0.0001577 -0.0005513 0.0011056 -0.0120227 0.0154793
-0.0015040 -0.0117045 -0.0051234 0.0027683 -0.0020716 0.0106718 -0.0134534 0.0094585 0.0002768 0.0013301 -0.0000829 0.0002233 0.0000136 0.0001323 0.0015839 0.0001082 0.0034106 -0.0009946 -0.0067093 -0.0019857
0.0102796 -0.0324595 -0.0023073 -0.0011887 0.0039457 -0.0062639 -0.0007924 -0.0164728 0.0003460 0.0015505 -0.0000760 0.0002479 -0.0000405 0.0001324 0.0015718 0.0008911 0.0100646 -0.0237850 0.0015415 -0.0048196
0.0273996 -0.0588952 -0.0021810 0.0120601 0.0080609 -0.0045310 -0.0002490 -0.0047138 0.0003542 0.0016367 -0.0000826 0.0002265 -0.0000957 0.0001599 0.0009283 0.0011529 -0.0031130 -0.0011382 -0.0002915 0.0069007
0.0007560 0.0037132 -0.0048915 0.0113536 -0.0067498 0.0148017 0.0019326 -0.0034077 0.0003643 0.0017441 -0.0000763 0.0002755 -0.0001094 0.0001596 0.0006297 0.0007973 -0.0080603 -0.0005451 -0.0020576 0.0033379
-0.0108529 0.0232289 0.0044019 -0.0166246 -0.0179511 0.0148530 -0.0023390 -0.0029614 0.0003644 0.0017370 -0.0000631 0.0002674 -0.0000742 0.0001332 -0.0001120 0.0015416 -0.0069519 -0.0075345 -0.0093631 0.0086938
-0.0033040 0.0015038 0.0083234 -0.0269936 0.0047680 -0.0068328 -0.0151396 0.0051296 0.0003563 0.0016232 -0.0000660 0.0001979 -0.0000494 0.0000687 -0.0009080 0.0030514 -0.0022352 -0.0104022 -0.0087262 0.0125474
-0.0232353 0.0203578 -0.0043024 -0.0036545 0.0037230 -0.0036548 -0.0116192 0.0157525 0.0003447 0.0015643 -0.0000707 0.0001583 -0.0000774 0.0000755 0.0001819 0.0009643 -0.0006193 -0.0071451 -0.0021743 0.0056699
-0.0240254 0.0288883 -0.0016039 -0.0042450 0.0012249 0.0017508 -0.0002028 0.0133900 0.0003393 0.0015652 -0.0000673 0.0001490 -0.0000949 0.0001099 0.0019643 -0.0013729 -0.0015762 0.0075145 -0.0047480 -0.0003393
-0.0001361 0.0056132 -0.0083797 0.0127622 0.0047084 0.0024951 -0.0018249 0.0187578 0.0003508 0.0015979 -0.0000671 0.0002000 -0.0001002 0.0001849 0.0021741 -0.0002379 -0.0006885 0.0058456 -0.0009982 -0.0051140
-0.0009523 0.0026140 -0.0076560 0.0225146 0.0038965 -0.0022114 -0.0065245 0.0217727 0.0003289 0.0015869 -0.0000560 0.0002945 -0.0000969 0.0002740 0.0004431 0.0017502 -0.0108740 0.0149695 0.0043231 -0.0013199
-0.0141765 0.0223109 0.0004651 0.0062458 0.0069347 -0.0116534 -0.0031232 0.0123762 0.0002728 0.0014518 -0.0000333 0.0002843 -0.0000696 0.0002217 -0.0003424 0.0012733 -0.0097709 0.0127915 0.0067784 -0.0071837
-0.0063033 0.0161322 0.0053451 -0.0141565 0.0092929 -0.0188136 0.0103592 -0.0111528 0.0002292 0.0012996 -0.0000216 0.0001966 -0.0000467 0.0001398 -0.0002008 0.0007390 -0.0017551 0.0000607 0.0029139 -0.0024994
0.0051953 -0.0151266 0.0022651 -0.0075597 -0.0011531 -0.0054129 0.0148279 -0.0298543 0.0002122 0.0012232 -0.0000391 0.0001919 -0.0000466 0.0001422 0.0002623 0.0015355 -0.0043883 0.0137135 -0.0085016 0.0107856
0.0064662 -0.0064453 0.0023616 -0.0031574 0.0002776 -0.0015719 -0.0024724 -0.0171308 0.0002415 0.0012496 -0.0000663 0.0001950 -0.0000619 0.0001605 0.0010716 0.0013120 -0.0081914 0.0200310 -0.0261481 0.0204504
-0.0035705 0.0130655 0.0039067 0.0011910 0.0024491 -0.0066933 -0.0085615 0.0024039 0.0002906 0.0013875 -0.0000800 0.0001520 -0.0000791 0.0002022 0.0013676 0.0008644 -0.0047872 0.0019961 -0.0050554 -0.0017771
-0.0074383 0.0129961 0.0007605 0.0009272 -0.0029383 0.0086736 -0.0110174 0.0146605 0.0003209 0.0014902 -0.0000701 0.0001879 -0.0000795 0.0002983 0.0011550 0.0010289 0.0130965 -0.0349669 0.0122472 -0.0125650
0.0012368 0.0044330 0.0056522 -0.0092892 -0.0038555 0.0071287 -0.0053453 0.0119696 0.0002657 0.0013738 -0.0000387 0.0002397 -0.0000750 0.0003601 0.0001354 0.0023581 0.0056584 -0.0123913 0.0078035 -0.0019311
-0.0024049 0.0068202 0.0010875 0.0092293 -0.0067914 -0.0046411 0.0055565 -0.0045143 0.0001458 0.0010378 -0.0000225 0.0002239 -0.0000905 0.0002676 -0.0001073 0.0015803 -0.0001139 0.0047943 0.0064267 -0.0049015
-0.0048616 0.0097344 -0.0015084 0.0108443 -0.0004433 -0.0089790 0.0116662 -0.0280380 0.0000617 0.0007525 -0.0000165 0.0002471 -0.0000681 0.0001573 0.0000211 0.0001807 0.0032282 -0.0015775 0.0069930 -0.0070453
0.0008557 0.0056042 0.0058484 -0.0098106 -0.0011524 0.0097603 0.0057287 -0.0123376 0.0000277 0.0006885 -0.0000134 0.0003170 -0.0000244 0.0002155 -0.0001848 0.0015572 0.0024970 -0.0025614 -0.0122544 0.0126529
-0.0008257 0.0037477 -0.0001279 -0.0193180 -0.0053536 0.0161604 0.0020156 -0.0007506 0.0000546 0.0007564 0.0000276 0.0004452 -0.0000007 0.0004515 -0.0000306 0.0019133 -0.0002444 0.0013130 -0.0212760 0.0167589
-0.0100102 0.0236186 0.0002042 -0.0292561 -0.0038707 0.0054811 -0.0010725 0.0069421 0.0001111 0.0009173 0.0000729 0.0005727 -0.0000011 0.0006332 0.0013048 -0.0004369 0.0027764 -0.0066548 0.0071542 -0.0106515
-0.0122310 0.0226037 -0.0017010 -0.0057093 0.0100110 -0.0069377 0.0018535 0.0026409 0.0001392 0.0010788 0.0000669 0.0005997 -0.0000278 0.0006027 0.0015928 -0.0008876 0.0087388 -0.0133242 0.0109837 -0.0092725
-0.0025447 -0.0010971 -0.0023154 0.0089818 0.0115304 -0.0140721 0.0025558 -0.0012584 0.0001472 0.0011549 0.0000488 0.0005128 -0.0000291 0.0004743 -0.0002155 0.0015428 0.0083692 -0.0090676 0.0077061 -0.0089991
0.0100762 -0.0098117 -0.0070015 0.0139270 -0.0139036 0.0095718 0.0023996 -0.0019284 0.0001538 0.0011628 0.0000587 0.0004222 -0.0000117 0.0004085 -0.0011465 0.0027269 0.0025443 -0.0132118 0.0116679 -0.0197332
0.0017244 -0.0011537 -0.0099881 0.0000633 -0.0320587 0.0233752 0.0038847 0.0010422 0.0001601 0.0011411 0.0000900 0.0004421 0.0000007 0.0004443 -0.0007860 0.0016653 0.0066041 -0.0261480 0.0046449 -0.0042593
-0.0142218 0.0156289 -0.0078748 -0.0103378 -0.0144997 0.0092024 -0.0018158 0.0123196 0.0001894 0.0011702 0.0000911 0.0005070 0.0000027 0.0004671 0.0005863 0.0004615 0.0042155 -0.0094352 -0.0065574 0.0134272
0.0035984 -0.0001924 -0.0050955 -0.0056489 -0.0082269 0.0035980 0.0021652 0.0023689 0.0002198 0.0012411 0.0000810 0.0005408 -0.0000364 0.0004622 0.0011762 0.0005106 0.0044783 -0.0121152 -0.0147688 0.0154646
0.0061588 -0.0043963 0.0145877 -0.0379570 0.0002197 0.0020973 0.0083155 -0.0142520 0.0002231 0.0013501 0.0000776 0.0005282 -0.0000726 0.0004373 0.0011254 -0.0005841 -0.0047115 0.0040451 -0.0016459 -0.0131868
0.0077732 -0.0090017 0.0100837 -0.0254658 -0.0000511 0.0077285 -0.0037686 0.0019818 0.0002347 0.0014637 0.0001079 0.0005936 -0.0000608 0.0004459 0.0006895 -0.0010215 -0.0086009 0.0105616 0.0126290 -0.0204976
0.0109157 -0.0121365 0.0051635 -0.0144236 -0.0024541 0.0079477 0.0001282 0.0007782 0.0002519 0.0014450 0.0001499 0.0006577 -0.0000251 0.0004619 -0.0007024 0.0012478 0.0062303 -0.0110839 0.0075652 0.0009480
0.0045021 -0.0011974 0.0037143 -0.0096522 0.0025073 -0.0064148 -0.0008810 0.0137045 0.0002444 0.0013627 0.0001555 0.0006362 -0.0000019 0.0004222 -0.0013840 0.0021734 0.0099672 -0.0185652 0.0066581 -0.0011705
0.0128651 -0.0250194 -0.0005717 0.0076323 0.0074768 -0.0184945 -0.0033079 0.0167360 0.0002349 0.0013467 0.0001376 0.0006196 -0.0000030 0.0003956 -0.0001441 0.0003317 0.0069261 -0.0122159 0.0079479 -0.0110188
0.0004811 -0.0054616 0.0049896 0.0019734 0.0116971 -0.0099049 -0.0036894 0.0044895 0.0002477 0.0013803 0.0001119 0.0006124 -0.0000134 0.0004127 0.0009430 -0.0003834 0.0030650 -0.0024883 -0.0025741 -0.0002622
-0.0041821 0.0085678 0.0036667 -0.0095396 0.0169576 -0.0214283 -0.0062337 0.0069124 0.0002684 0.0014484 0.0001128 0.0006347 -0.0000485 0.0004871 0.0006022 0.0004881 0.0022048 0.0017463 -0.0088679 0.0076635
-0.0032284 0.0032810 -0.0088491 -0.0113911 0.0064966 -0.0063521 -0.0001811 0.0014078 0.0002815 0.0015075 0.0001148 0.0006724 -0.0000633 0.0005323 0.0003199 0.0004170 0.0014500 -0.0108677 0.0111246 -0.0184980
0.0008333 -0.0021083 -0.0043832 0.0045372 -0.0010685 0.0099365 0.0047047 0.0053499 0.0002776 0.0014851 0.0001065 0.0006173 -0.0000566 0.0004673 -0.0001655 0.0006989 -0.0107627 -0.0065529 0.0234539 -0.0423915
0.0041420 -0.0059248 -0.0007236 0.0125315 -0.0040341 0.0130060 0.0116762 -0.0045753 0.0002747 0.0014036 0.0000994 0.0005049 -0.0000428 0.0003778 -0.0006092 0.0010214 -0.0028787 0.0042860 0.0128238 -0.0132507
0.0101317 -0.0119765 -0.0029385 0.0111665 0.0007300 0.0103138 0.0209466 -0.0379644 0.0002755 0.0013588 0.0000846 0.0004868 -0.0000248 0.0003479 -0.0005734 0.0009270 0.0028755 -0.0003157 0.0041899 0.0087106
0.0128693 -0.0206085 -0.0040165 0.0078120 -0.0006317 0.0092005 -0.0023582 0.0129394 0.0002729 0.0013675 0.0000883 0.0005423 -0.0000221 0.0003613 0.0000669 -0.0005689 0.0066596 -0.0085493 -0.0021874 0.0085629
-0.0102277 0.0065483 -0.0007580 -0.0003470 -0.0037125 -0.0013922 -0.0169012 0.0273337 0.0002688 0.0013914 0.0001054 0.0006309 -0.0000280 0.0004227 0.0009278 -0.0015169 0.0081868 -0.0025305 -0.0074297 0.0050128
0.0022108 -0.0018689 0.0036959 -0.0081385 0.0080069 -0.0286785 -0.0144374 0.0152276 0.0002633 0.0014267 0.0001196 0.0007144 -0.0000448 0.0004866 0.0007691 -0.0008289 0.0025905 0.0031256 -0.0078086 0.0132943
0.0195185 -0.0425484 0.0152144 -0.0263174 0.0034838 -0.0057135 0.0024997 0.0029992 0.0002530 0.0014912 0.0001250 0.0007525 -0.0000703 0.0004923 0.0001833 -0.0009630 0.0048924 -0.0151148 -0.0076219 0.0097530
0.0134520 -0.0400331 0.0069005 -0.0106316 -0.0048496 0.0139228 0.0004934 0.0033895 0.0002596 0.0014707 0.0001245 0.0006842 -0.0000614 0.0004047 -0.0003464 -0.0014904 0.0001873 -0.0175789 -0.0001856 -0.0047918
0.0006978 -0.0135267 0.0070154 -0.0117164 -0.0124093 0.0119579 -0.0063846 0.0063582 0.0002573 0.0013395 0.0001341 0.0006102 -0.0000247 0.0003535 -0.0013216 0.0000574 -0.0101959 0.0072218 0.0009436 -0.0035175
0.0029951 -0.0108113 0.0199567 -0.0386383 -0.0040701 -0.0058793 0.0099081 -0.0165842 0.0002431 0.0012082 0.0001475 0.0006702 0.0000081 0.0004438 -0.0013479 0.0010653 0.0038026 -0.0017529 0.0044357 -0.0013218
0.0044112 0.0017232 0.0205636 -0.0366653 0.0017971 -0.0079502 0.0148769 -0.0234137 0.0002307 0.0011542 0.0001600 0.0007391 0.0000261 0.0005412 0.0001131 -0.0003559 0.0164235 -0.0299958 0.0060890 -0.0094815
-0.0027171 0.0116733 0.0052193 0.0032624 -0.0062070 0.0076929 0.0118773 -0.0180665 0.0002252 0.0011644 0.0001558 0.0007524 -0.0000033 0.0005759 0.0015116 -0.0022561 0.0236842 -0.0515641 -0.0039955 -0.0051619
-0.0061975 0.0146012 -0.0066290 0.0091820 -0.0037104 0.0101776 0.0106498 -0.0206278 0.0002164 0.0012059 0.0001413 0.0007627 -0.0000374 0.0006067 0.0011864 -0.0020679 0.0077131 -0.0175926 -0.0052906 0.0111305
0.0038840 -0.0032244 0.0000613 -0.0226145 -0.0029457 0.0121691 0.0019269 -0.0036985 0.0002054 0.0012659 0.0001421 0.0007999 -0.0000300 0.0006632 -0.0001134 -0.0000842 -0.0089528 0.0035936 -0.0032484 0.0166124
0.0223079 -0.0491001 -0.0084585 0.0141523 -0.0006857 0.0077443 -0.0037027 0.0026203 0.0002207 0.0012522 0.0001417 0.0007469 0.0000016 0.0006126 -0.0006488 -0.0007617 -0.0080533 -0.0051986 0.0045254 0.0068770
0.0126811 -0.0327320 -0.0194396 0.0339973 -0.0002136 0.0033036 -0.0071718 0.0087923 0.0002340 0.0012083 0.0001155 0.0006246 0.0000249 0.0004970 -0.0010818 -0.0008650 0.0011051 0.0012140 0.0047114 0.0087221
0.0125204 -0.0295096 -0.0134610 0.0288105 0.0027204 -0.0033564 -0.0130269 0.0163614 0.0002446 0.0011941 0.0000838 0.0005726 0.0000140 0.0004664 -0.0007798 -0.0000224 0.0059176 -0.0039809 -0.0044819 0.0111725
0.0052250 -0.0067256 -0.0015907 0.0094883 0.0213889 -0.0322827 -0.0035919 -0.0020299 0.0002291 0.0011617 0.0000798 0.0005894 -0.0000029 0.0005087 0.0002348 -0.0006819 0.0156288 -0.0358938 -0.0122378 0.0092670
-0.0016667 0.0108868 0.0056843 -0.0089992 0.0132386 -0.0183940 0.0017493 0.0012249 0.0001941 0.0011213 0.0001090 0.0006580 0.0000006 0.0005786 0.0006498 -0.0015898 0.0015838 -0.0005739 -0.0031607 0.0059385
0.0056105 -0.0016351 0.0065220 -0.0152767 0.0021725 -0.0008494 -0.0056052 0.0128746 0.0001569 0.0011181 0.0001274 0.0007258 -0.0000114 0.0006497 0.0001426 -0.0010100 0.0038842 0.0006164 -0.0004435 0.0089480
0.0072143 -0.0251125 -0.0123920 0.0105333 0.0035537 0.0071798 -0.0036627 0.0176033 0.0001418 0.0011596 0.0001232 0.0007838 -0.0000192 0.0006973 -0.0009988 0.0008437 0.0065464 -0.0104532 -0.0027639 0.0141328
-0.0021555 0.0030043 -0.0161727 0.0262085 0.0054249 -0.0012383 0.0029525 0.0097234 0.0001633 0.0011978 0.0001089 0.0007923 -0.0000046 0.0006678 -0.0007726 0.0006141 -0.0091787 0.0045085 -0.0031977 0.0094353
0.0001309 0.0083468 0.0036949 -0.0003199 -0.0035764 -0.0056109 -0.0024897 0.0132663 0.0001759 0.0011832 0.0000971 0.0007214 0.0000187 0.0005719 0.0002663 -0.0015806 -0.0101527 0.0134393 0.0037323 -0.0058985
0.0052811 -0.0024581 0.0012405 0.0037476 0.0002396 -0.0055978 -0.0112574 0.0179177 0.0001844 0.0011717 0.0000778 0.0006887 0.0000002 0.0005486 0.0002084 -0.0009679 -0.0000653 0.0098391 -0.0014856 -0.0018047
0.0097639 -0.0182361 -0.0087013 0.0211536 0.0054493 0.0005295 -0.0124310 0.0018821 0.0001914 0.0012162 0.0000661 0.0007072 -0.0000694 0.0006088 -0.0003063 0.0009421 0.0067563 -0.0020965 0.0009851 -0.0084982
0.0129944 -0.0279250 -0.0028863 0.0044889 -0.0045230 0.0137339 -0.0016907 -0.0008475 0.0001846 0.0012694 0.0000781 0.0007277 -0.0001137 0.0006576 -0.0000533 -0.0003532 -0.0049819 0.0066103 0.0235845 -0.0517994
0.0081176 -0.0113509 0.0027186 -0.0048548 0.0001751 0.0034719 0.0010448 0.0032679 0.0001532 0.0012831 0.0000911 0.0008103 -0.0001005 0.0006794 -0.0002373 -0.0009020 -0.0114748 0.0094524 0.0134541 -0.0116264
0.0080352 -0.0160401 0.0049109 0.0023209 0.0098169 -0.0114143 -0.0011401 0.0042708 0.0001101 0.0012251 0.0001086 0.0009551 -0.0000656 0.0007178 -0.0009565 -0.0000879 0.0011745 -0.0008182 0.0067071 -0.0024220
0.0117462 -0.0152352 0.0084295 -0.0112577 -0.0007609 0.0110633 0.0024192 -0.0002506 0.0000574 0.0011281 0.0001230 0.0010955 -0.0000330 0.0007790 -0.0013732 0.0002598 0.0087996 -0.0153057 -0.0073687 0.0025259
-0.0005155 0.0069908 0.0184406 -0.0447934 -0.0101139 0.0219691 0.0085243 -0.0112493 0.0000297 0.0010255 0.0001200 0.0010695 -0.0000397 0.0007696 -0.0005949 -0.0007950 0.0121540 -0.0252452 -0.0067688 0.0040208
-0.0017650 0.0124877 0.0093653 -0.0240202 -0.0014998 0.0118349 0.0164402 -0.0368399 0.0000439 0.0010021 0.0000936 0.0009458 -0.0000591 0.0006994 0.0004928 -0.0015119 0.0129081 -0.0227716 0.0069672 -0.0139957
0.0041655 0.0064651 -0.0066923 0.0007610 0.0072902 -0.0006839 0.0011033 0.0012742 0.0000528 0.0010536 0.0000843 0.0009320 -0.0000616 0.0007041 0.0007363 -0.0012048 0.0101809 -0.0164073 0.0030564 0.0015854
0.0011241 0.0018299 -0.0060052 0.0033229 0.0040771 -0.0066182 0.0006967 0.0147975 0.0000372 0.0010876 0.0000881 0.0009888 -0.0000475 0.0007544 -0.0006868 0.0005526 -0.0031900 0.0092201 0.0028832 0.0031907
0.0052691 -0.0039770 0.0062813 -0.0083295 -0.0008593 -0.0071548 0.0039905 0.0007879 0.0000269 0.0011126 0.0000875 0.0010484 -0.0000224 0.0007746 -0.0017158 0.0014641 -0.0004484 0.0000051 0.0038796 -0.0030142
-0.0020248 0.0093669 0.0005614 -0.0013651 0.0013135 -0.0035426 0.0019069 0.0068007 0.0000365 0.0011579 0.0000799 0.0010991 -0.0000103 0.0007964 -0.0010621 0.0002473 0.0050487 -0.0092004 -0.0063134 0.0118744
-0.0036537 0.0165640 -0.0094389 -0.0062358 0.0048330 -0.0110403 0.0017852 0.0112504 0.0000615 0.0012421 0.0000679 0.0011127 -0.0000205 0.0008242 0.0002568 -0.0006108 0.0117744 -0.0153301 -0.0101383 0.0180335
-0.0063989 0.0226119 0.0124777 -0.0480093 0.0263195 -0.0651750 0.0004101 0.0068986 0.0000997 0.0012729 0.0000570 0.0010267 -0.0000301 0.0007818 0.0008154 -0.0006138 0.0169515 -0.0311586 -0.0125269 0.0171541
-0.0130981 0.0233771 0.0038741 -0.0107609 0.0172615 -0.0306537 -0.0069954 0.0170924 0.0001043 0.0012622 0.0000510 0.0009214 -0.0000490 0.0007250 0.0008413 -0.0007387 0.0071802 -0.0211601 -0.0036993 0.0019204
-0.0037753 -0.0055555 0.0055991 -0.0150490 0.0115116 -0.0253829 -0.0057035 0.0115444 0.0000864 0.0012456 0.0000666 0.0009297 -0.0000558 0.0007328 0.0007284 -0.0014630 0.0061084 -0.0125163 0.0166589 -0.0278036
0.0086965 -0.0068064 0.0011264 -0.0158658 0.0067332 -0.0155618 0.0043472 -0.0061004 0.0000681 0.0012163 0.0000792 0.0010019 -0.0000363 0.0007706 -0.0008621 0.0006129 -0.0096180 0.0151159 0.0109255 -0.0063319
0.0147158 -0.0101547 -0.0064383 -0.0016085 0.0009073 0.0043784 0.0001186 0.0011944 0.0000593 0.0012215 0.0000689 0.0010536 -0.0000221 0.0007713 -0.0011877 0.0006486 -0.0176347 0.0203104 0.0043588 0.0064354
0.0250440 -0.0661933 0.0035655 -0.0297540 -0.0019983 0.0060311 -0.0055133 0.0095824 0.0000618 0.0012643 0.0000564 0.0010918 -0.0000303 0.0007736 0.0001359 -0.0014598 0.0013301 0.0032634 0.0007282 -0.0022749
-0.0024794 -0.0125681 0.0162397 -0.0332365 -0.0075950 0.0168635 -0.0028166 0.0113218 0.0000681 0.0013099 0.0000511 0.0011177 -0.0000491 0.0007988 0.0009900 -0.0017023 0.0025106 0.0091444 -0.0024758 -0.0029184
-0.0009363 0.0027838 0.0093238 -0.0067693 -0.0102992 0.0230225 0.0002218 0.0044312 0.0000823 0.0012649 0.0000629 0.0010315 -0.0000600 0.0007518 0.0008451 -0.0008268 0.0074133 -0.0023640 -0.0037009 0.0030988
0.0045169 -0.0083027 0.0018126 0.0048578 -0.0114501 0.0115573 -0.0017421 0.0101118 0.0000781 0.0011962 0.0000675 0.0008998 -0.0000686 0.0006645 0.0001943 -0.0004197 0.0159603 -0.0283127 -0.0066836 0.0079919
-0.0095817 -0.0004061 -0.0013700 0.0119877 -0.0065645 -0.0058012 -0.0025837 0.0152152 0.0000747 0.0011585 0.0000665 0.0008528 -0.0000596 0.0006154 -0.0006571 -0.0007281 0.0112394 -0.0170700 0.0078010 -0.0075375
-0.0035400 0.0032534 -0.0071116 0.0147876 -0.0068595 -0.0029297 0.0065337 -0.0086947 0.0000669 0.0010801 0.0000733 0.0008889 -0.0000173 0.0006257 -0.0014453 0.0001163 0.0052692 0.0100956 0.0051022 0.0025394
0.0076394 -0.0105688 0.0032911 0.0002292 -0.0100714 0.0102048 0.0023146 -0.0151294 0.0000288 0.0010357 0.0000676 0.0009396 0.0000083 0.0006614 -0.0012430 0.0009446 0.0045891 0.0061506 -0.0118496 0.0206122
0.0052290 -0.0151210 0.0066234 -0.0054370 0.0005244 0.0048013 -0.0003451 -0.0067715 0.0000299 0.0010512 0.0000525 0.0009316 -0.0000205 0.0006721 0.0000504 -0.0000215 -0.0000546 0.0041984 -0.0156677 0.0090666
-0.0023426 0.0087316 0.0093149 -0.0240695 0.0073603 -0.0150367 -0.0005872 -0.0073560 0.0000521 0.0010585 0.0000570 0.0008548 -0.0000317 0.0006030 0.0006716 -0.0009466 -0.0044907 0.0171333 0.0055905 -0.0192990
-0.0134089 0.0225628 0.0008907 -0.0047167 -0.0040833 0.0089302 0.0008301 -0.0119754 0.0000618 0.0009781 0.0000672 0.0007232 -0.0000321 0.0005354 0.0003464 -0.0005834 0.0018968 0.0031521 0.0056767 -0.0069678
-0.0032641 0.0038604 -0.0003353 0.0062331 -0.0057357 0.0152694 0.0088125 -0.0138202 0.0000526 0.0008471 0.0000617 0.0006091 -0.0000240 0.0005065 -0.0003802 0.0001210 0.0059800 -0.0089285 0.0018295 -0.0016551
0.0022297 0.0067960 -0.0001773 -0.0036069 -0.0010829 -0.0091370 0.0078413 -0.0172428 0.0000494 0.0007948 0.0000494 0.0005766 0.0000183 0.0004935 -0.0009363 0.0011642 0.0019098 -0.0053423 -0.0000982 0.0066031
-0.0011793 0.0110172 -0.0056321 -0.0074391 0.0054499 -0.0244751 0.0063796 -0.0122812 -0.0000035 0.0006028 0.0000903 0.0007274 0.0000408 0.0005592 -0.0001427 -0.0005647 -0.0030489 0.0016918 -0.0048699 0.0141607
-0.0022555 -0.0019813 -0.0109699 0.0078732 0.0058454 -0.0152826 -0.0006085 0.0015615 -0.0001914 0.0000663 0.0002069 0.0010728 0.0000286 0.0006687 0.0002191 -0.0014198 0.0003476 0.0000786 -0.0087826 0.0042793
-0.0199904 0.0130451 -0.0181393 0.0217980 0.0096363 -0.0172160 -0.0022195 0.0060689 -0.0003397 -0.0002897 0.0002377 0.0011731 -0.0000001 0.0006823 0.0000924 -0.0002867 0.0073201 -0.0119706 0.0033413 0.0026349
-0.0043919 -0.0026292 0.0044807 -0.0047695 0.0106752 -0.0126807 0.0014952 -0.0006010 -0.0002887 -0.0001137 0.0001429 0.0008496 -0.0000223 0.0005263 0.0000693 -0.0001877 -0.0033409 -0.0029167 0.0030438 0.0053521
0.0148811 -0.0301429 -0.0003180 0.0048069 0.0065235 -0.0037621 0.0071299 -0.0205912 -0.0001461 0.0001844 0.0000490 0.0004518 -0.0000300 0.0002999 -0.0002457 -0.0000572 -0.0163786 0.0180700 0.0046314 -0.0057291
0.0019169 -0.0033101 -0.0183490 0.0210062 0.0036592 -0.0004382 0.0023011 -0.0177472 -0.0000617 0.0003135 -0.0000117 0.0002156 -0.0000347 0.0001311 -0.0005710 0.0002775 -0.0030340 0.0100802 0.0094382 -0.0149266
-0.0043738 0.0116868 -0.0084752 0.0192833 0.0057832 -0.0030529 0.0065615 -0.0181180 -0.0000343 0.0003544 -0.0000449 0.0001473 -0.0000390 0.0000345 -0.0009403 0.0008232 0.0079626 -0.0061014 -0.0066165 -0.0003248
-0.0006075 0.0029770 -0.0038269 0.0151533 -0.0030276 0.0057842 0.0034985 -0.0154688 -0.0000169 0.0003831 -0.0000498 0.0001377 -0.0000802 -0.0000006 -0.0002038 -0.0002619 0.0133612 -0.0270135 -0.0104084 0.0056674
-0.0016371 -0.0081397 0.0057698 -0.0083758 -0.0054175 0.0073560 -0.0041511 -0.0187801 -0.0000051 0.0003825 -0.0000543 0.0001502 -0.0001102 -0.0000198 0.0006384 -0.0010098 0.0124308 -0.0268223 0.0038011 -0.0075982
-0.0023138 -0.0061914 0.0168205 -0.0252159 0.0079333 -0.0091273 0.0087097 -0.0118361 -0.0000010 0.0004053 -0.0000631 0.0001859 -0.0001402 -0.0000023 0.0002725 -0.0002674 0.0145912 -0.0258153 0.0058403 -0.0072718
-0.0061176 -0.0050849 0.0146406 -0.0138612 0.0069243 -0.0088444 0.0053834 0.0025958 0.0000017 0.0004813 -0.0000667 0.0002251 -0.0001486 0.0000208 -0.0009505 0.0007048 0.0047909 -0.0056343 0.0108712 -0.0158465
-0.0082675 -0.0027325 0.0114048 -0.0144996 0.0075264 -0.0164124 0.0040934 -0.0020038 0.0000151 0.0004695 -0.0000638 0.0001556 -0.0001081 -0.0000711 -0.0013663 0.0001833 -0.0057641 0.0113500 0.0174084 -0.0333850
0.0003168 0.0017011 0.0049431 -0.0152589 -0.0020542 -0.0083967 0.0035980 0.0051860 0.0000388 0.0003522 -0.0000714 0.0000213 -0.0000797 -0.0001782 -0.0007837 -0.0006687 -0.0016641 0.0119693 0.0063344 -0.0115583
-0.0016944 0.0100550 0.0019718 -0.0093390 -0.0076165 -0.0067159 -0.0042069 0.0121798 0.0000520 0.0002982 -0.0000877 -0.0000195 -0.0000922 -0.0001924 0.0001767 -0.0003899 0.0023990 0.0071857 -0.0049948 0.0095875
-0.0019506 0.0106916 0.0033317 0.0035349 0.0057547 -0.0232219 -0.0029790 0.0128810 0.0000489 0.0002880 -0.0000904 0.0000123 -0.0001355 -0.0001433 0.0004781 0.0002022 0.0046244 -0.0051839 -0.0087724 0.0180090
-0.0015102 -0.0034094 0.0058898 0.0035415 0.0076430 -0.0227694 0.0025773 0.0030731 0.0000359 0.0002751 -0.0000903 0.0000536 -0.0001469 -0.0001153 0.0008275 -0.0008455 0.0048166 -0.0108786 0.0006161 0.0061587
-0.0076842 0.0021190 0.0120709 -0.0215296 -0.0043248 0.0029753 0.0114009 -0.0274796 0.0000198 0.0002932 -0.0000934 0.0000987 -0.0001273 -0.0001037 0.0002932 -0.0011370 0.0042235 -0.0233114 0.0080337 -0.0089131
0.0108061 -0.0122296 0.0107209 -0.0165345 -0.0153122 0.0200101 0.0094222 -0.0058195 0.0000279 0.0003356 -0.0000962 0.0001406 -0.0001189 -0.0000684 -0.0010903 0.0007655 -0.0093054 -0.0003901 0.0031018 -0.0041511
0.0215618 -0.0375169 0.0026781 -0.0035998 -0.0071871 0.0094758 0.0039007 0.0065470 0.0000618 0.0003086 -0.0000979 0.0000929 -0.0001165 -0.0000946 -0.0015284 0.0015300 0.0022999 -0.0098019 -0.0006512 0.0005961
0.0132267 -0.0396927 -0.0026411 -0.0059906 0.0024463 -0.0011142 0.0024058 -0.0013191 0.0000706 0.0002106 -0.0001044 -0.0000206 -0.0001130 -0.0001681 -0.0002344 0.0003008 0.0026824 -0.0017096 -0.0027549 0.0013263
-0.0090476 -0.0024817 0.0136759 -0.0325820 -0.0029980 0.0068777 -0.0011736 -0.0051126 0.0000668 0.0001445 -0.0001209 -0.0000508 -0.0001253 -0.0001716 0.0015074 -0.0015438 -0.0034735 0.0095644 -0.0128594 0.0065808
-0.0165352 0.0134583 0.0011277 -0.0047290 -0.0057872 0.0077542 -0.0024249 -0.0020283 0.0000661 0.0001220 -0.0001038 -0.0000143 -0.0001545 -0.0001131 0.0011306 -0.0003653 0.0019953 -0.0009351 -0.0083079 0.0069124
-0.0196564 0.0142246 -0.0026827 0.0091565 -0.0019695 0.0088948 0.0024870 0.0053357 0.0000566 0.0001241 -0.0000894 0.0000396 -0.0001499 -0.0000836 -0.0004288 0.0017379 0.0078384 -0.0099395 0.0022387 0.0058483
-0.0093283 0.0124552 0.0038308 0.0033988 0.0081511 0.0041975 0.0075254 0.0003753 0.0000491 0.0001441 -0.0001040 0.0001070 -0.0001253 -0.0000632 -0.0016430 0.0018471 0.0061558 -0.0003098 0.0029836 0.0010811
0.0050693 -0.0000421 0.0043245 -0.0012436 0.0121109 -0.0092550 0.0055251 -0.0022814 0.0000488 0.0001797 -0.0001031 0.0001611 -0.0001202 -0.0000187 -0.0016721 0.0009620 0.0004359 0.0135156 -0.0017553 -0.0035270
0.0076121 -0.0010549 0.0022622 0.0031508 0.0065060 -0.0031238 -0.0123016 0.0117421 0.0000659 0.0001759 -0.0001101 0.0001643 -0.0001163 -0.0000045 -0.0004749 0.0003337 0.0016981 0.0079302 -0.0123813 0.0105078
0.0071732 -0.0069988 -0.0015446 0.0071372 0.0125955 -0.0150840 -0.0120804 0.0118246 0.0000920 0.0001147 -0.0001198 0.0000964 -0.0001235 -0.0000509 0.0004880 -0.0000868 -0.0029004 0.0042522 -0.0197115 0.0202386
0.0058871 -0.0159383 -0.0059610 0.0144358 0.0123663 -0.0332497 0.0013719 0.0010599 0.0000949 0.0000628 -0.0001024 0.0000386 -0.0001296 -0.0000845 0.0004665 -0.0006829 0.0035583 -0.0070888 -0.0158083 0.0188265
0.0023042 0.0024222 -0.0089318 0.0200687 0.0020237 -0.0155312 -0.0084586 0.0128818 0.0000828 0.0000424 -0.0000922 0.0000397 -0.0001386 -0.0000496 0.0007241 -0.0009173 0.0045631 -0.0020605 0.0008224 0.0062566
0.0114631 -0.0096066 -0.0136483 0.0271225 0.0004234 -0.0049733 -0.0075709 0.0109714 0.0000731 0.0000590 -0.0001064 0.0000806 -0.0001350 -0.0000140 -0.0003599 0.0003635 -0.0107658 0.0178273 0.0065255 0.0056849
0.0175571 -0.0256162 -0.0127110 0.0210693 -0.0156763 0.0220374 0.0048590 -0.0035428 0.0000715 0.0000995 -0.0001181 0.0001375 -0.0001170 0.0000207 -0.0007428 0.0013297 -0.0118182 0.0221686 0.0019492 0.0104852
-0.0008869 -0.0009495 -0.0032445 -0.0028412 -0.0060134 0.0149623 0.0073985 -0.0075458 0.0000766 0.0001539 -0.0001275 0.0001922 -0.0001093 0.0000607 0.0000494 0.0006509 -0.0041407 0.0100731 0.0009195 0.0019334
-0.0076020 0.0005162 -0.0031734 -0.0117510 -0.0001951 0.0052334 0.0008919 -0.0023598 0.0000910 0.0002185 -0.0001378 0.0002736 -0.0001177 0.0001069 0.0001093 0.0000571 -0.0005231 0.0034681 -0.0123925 0.0129868
0.0071347 -0.0240009 0.0062980 -0.0193190 -0.0075229 0.0038133 -0.0038238 0.0107968 0.0000992 0.0001687 -0.0001275 0.0002663 -0.0001382 0.0000962 0.0002547 0.0000643 -0.0069111 0.0178576 -0.0059035 0.0192038
0.0010905 0.0012395 0.0044745 -0.0052036 -0.0037065 0.0013970 0.0011186 0.0042964 0.0000698 0.0000384 -0.0001040 0.0001715 -0.0001582 0.0000497 0.0000427 -0.0001197 -0.0160315 0.0235356 0.0033424 0.0089649
-0.0036547 0.0150934 -0.0044159 0.0109544 -0.0048737 0.0084467 -0.0074078 0.0111292 0.0000423 -0.0000409 -0.0000985 0.0001553 -0.0001563 0.0000581 0.0000554 -0.0007125 -0.0077968 -0.0010805 0.0095518 -0.0048868
0.0051680 -0.0035903 0.0007855 0.0072935 0.0081220 -0.0109022 -0.0017615 -0.0044649 0.0000317 -0.0001250 -0.0001069 0.0001706 -0.0001237 0.0000915 -0.0002305 -0.0007297 0.0113940 -0.0330426 0.0137765 -0.0219018
0.0126714 -0.0197857 0.0035986 -0.0052261 0.0155096 -0.0295402 0.0160662 -0.0394512 0.0000201 -0.0001440 -0.0001193 0.0002358 -0.0001002 0.0001343 -0.0011173 0.0002410 0.0016870 -0.0085707 -0.0064598 0.0039976
0.0073525 -0.0194351 0.0054024 -0.0070917 0.0036715 -0.0116375 0.0159672 -0.0354395 0.0000454 -0.0000428 -0.0000988 0.0003568 -0.0001118 0.0001988 -0.0006169 -0.0002279 -0.0011263 -0.0078531 -0.0189776 0.0137914
0.0075823 -0.0132816 0.0042175 -0.0057315 0.0002142 0.0047668 0.0039192 -0.0104372 0.0000873 0.0000671 -0.0000633 0.0004670 -0.0001217 0.0002697 0.0007992 -0.0017993 -0.0046747 0.0058897 -0.0065085 -0.0072567
0.0076245 -0.0148134 -0.0005769 -0.0008553 0.0043766 0.0057900 0.0028389 0.0033785 0.0001121 0.0001401 -0.0000242 0.0005108 -0.0001097 0.0003483 0.0008829 -0.0011002 -0.0044944 0.0152588 0.0024273 0.0028185
0.0002402 -0.0144819 -0.0049251 0.0105206 0.0098529 -0.0104306 0.0011167 0.0019791 0.0001203 0.0001465 0.0000278 0.0005196 -0.0000319 0.0004101 -0.0003252 0.0013082 -0.0030891 0.0063333 0.0030638 0.0076047
-0.0080681 0.0065983 0.0002334 0.0047785 0.0084423 -0.0147824 -0.0152701 0.0120306 0.0001317 0.0000948 0.0000633 0.0005671 0.0000159 0.0004759 -0.0006216 0.0013698 -0.0046566 0.0124159 0.0037420 -0.0016014
0.0054508 -0.0092964 0.0047974 -0.0075979 -0.0033509 0.0028225 -0.0129736 0.0238796 0.0001400 0.0000505 0.0000902 0.0006292 0.0000021 0.0005621 -0.0004157 0.0008128 0.0008960 0.0092042 0.0016497 0.0004580
0.0076612 -0.0289741 -0.0036888 -0.0076933 -0.0130789 0.0179806 -0.0126201 0.0203887 0.0001335 0.0000183 0.0001219 0.0007404 0.0000073 0.0006580 0.0005859 0.0009580 0.0101748 -0.0094459 -0.0108862 0.0134062
0.0056883 -0.0295930 -0.0063364 -0.0023543 -0.0138074 0.0284853 -0.0011407 0.0020906 0.0001355 0.0000595 0.0001458 0.0008710 -0.0000033 0.0007489 0.0016726 0.0004229 0.0038672 -0.0008762 -0.0149536 0.0114562
0.0089081 -0.0243949 -0.0045048 0.0068742 -0.0130244 0.0193010 -0.0022482 0.0161107 0.0001618 0.0002538 0.0001348 0.0008963 -0.0000364 0.0007403 0.0013546 0.0006358 0.0060566 -0.0061681 -0.0001123 -0.0000378
0.0078056 -0.0174956 -0.0072429 0.0073705 -0.0023845 0.0009570 -0.0089818 0.0247799 0.0001715 0.0003300 0.0001156 0.0008112 -0.0000632 0.0006396 0.0004612 0.0010384 0.0202382 -0.0391536 0.0037794 -0.0008552
0.0046124 0.0117738 -0.0060109 0.0124481 0.0039506 -0.0105166 -0.0041118 0.0156452 0.0001190 0.0002035 0.0001195 0.0007725 -0.0000422 0.0005680 -0.0004515 0.0014868 0.0053832 -0.0244457 0.0031098 -0.0018533
-0.0004350 0.0215472 -0.0012059 0.0163700 -0.0059059 0.0077116 -0.0032473 0.0082851 0.0000970 0.0001203 0.0001158 0.0008107 -0.0000084 0.0005626 -0.0008197 0.0015157 0.0010637 -0.0129652 -0.0033909 0.0031015
-0.0058879 0.0030598 -0.0015733 0.0113447 0.0020466 0.0029671 0.0005693 0.0096635 0.0001089 0.0001201 0.0001091 0.0008299 -0.0000079 0.0005755 0.0000598 0.0007283 0.0041221 -0.0134848 -0.0058857 0.0058110
-0.0172606 0.0163624 0.0035337 0.0031538 0.0165975 -0.0295006 -0.0022139 0.0113520 0.0001127 0.0001964 0.0001000 0.0008325 -0.0000197 0.0006136 0.0011016 0.0000218 0.0003865 0.0020917 0.0008568 0.0027994
-0.0218668 0.0258074 0.0075141 -0.0011956 0.0113648 -0.0241245 -0.0118980 -0.0000417 0.0001142 0.0002965 0.0000876 0.0008348 -0.0000405 0.0006557 0.0011886 0.0003552 -0.0063710 0.0191853 -0.0078065 0.0168594
-0.0068604 0.0121151 0.0081433 -0.0096711 0.0131798 -0.0320893 -0.0120059 -0.0019602 0.0001341 0.0004579 0.0000800 0.0008328 -0.0000376 0.0006813 0.0004106 0.0016462 -0.0089943 0.0223668 -0.0095914 0.0146554
0.0034672 -0.0012077 0.0064097 -0.0003733 0.0121505 -0.0166078 -0.0015961 0.0011507 0.0001723 0.0006078 0.0000715 0.0007857 -0.0000138 0.0006653 -0.0003749 0.0017491 -0.0040198 0.0121352 0.0066344 -0.0081073
0.0122768 -0.0302568 0.0070342 -0.0019889 0.0057956 -0.0061434 0.0077730 -0.0032900 0.0002199 0.0006449 0.0000754 0.0007047 0.0000216 0.0006233 -0.0005220 0.0018372 -0.0003232 0.0098332 0.0052289 0.0017149
0.0066124 -0.0186756 0.0032625 -0.0023245 0.0078294 -0.0120375 0.0157139 -0.0190039 0.0002710 0.0007374 0.0000756 0.0006377 0.0000533 0.0005941 0.0000301 0.0024908 0.0075525 -0.0064807 -0.0036296 0.0162657
0.0057189 -0.0054077 -0.0056104 0.0122127 0.0085246 -0.0134489 0.0126416 -0.0181806 0.0002892 0.0008355 0.0000492 0.0005754 0.0000023 0.0005243 0.0008516 0.0016271 0.0041488 -0.0096823 -0.0078299 0.0103291
0.0082041 -0.0119293 -0.0115814 0.0102207 -0.0008485 -0.0124296 0.0006560 0.0031789 0.0002842 0.0008300 0.0000319 0.0005323 -0.0000590 0.0004435 0.0009821 0.0002076 -0.0080634 0.0174217 0.0041993 -0.0151526
0.0139219 -0.0237642 -0.0004335 0.0078596 -0.0038811 -0.0105935 0.0000532 0.0096559 0.0002774 0.0008419 0.0000449 0.0005499 -0.0000673 0.0004378 0.0004626 0.0005976 -0.0043254 0.0123105 0.0085104 -0.0102820
0.0167540 -0.0291789 0.0005289 0.0075739 0.0066876 -0.0147578 0.0098799 -0.0037674 0.0002707 0.0009161 0.0000440 0.0006092 -0.0000631 0.0004610 -0.0003356 0.0015632 0.0022244 -0.0027438 0.0027423 0.0071583
0.0129067 -0.0213866 -0.0029324 0.0004986 0.0035187 0.0018495 0.0175663 -0.0314345 0.0002719 0.0009975 0.0000331 0.0006582 -0.0000429 0.0004549 -0.0001623 0.0012580 -0.0073682 0.0111914 -0.0054240 0.0135138
0.0133292 -0.0119811 -0.0055642 0.0100327 -0.0074203 0.0153469 0.0000702 -0.0065184 0.0002909 0.0010078 0.0000204 0.0005961 -0.0000479 0.0003895 0.0007361 0.0003796 -0.0143074 0.0178109 -0.0042095 0.0036971
0.0037716 0.0067487 -0.0132798 0.0124411 -0.0064542 0.0055540 -0.0052685 0.0047617 0.0002995 0.0009820 0.0000054 0.0004770 -0.0000599 0.0003030 0.0012261 0.0002736 -0.0008783 -0.0066020 -0.0099335 0.0059616
-0.0070870 0.0135250 0.0018640 -0.0037302 -0.0009826 0.0039144 -0.0075908 0.0044078 0.0003034 0.0009773 0.0000092 0.0004421 -0.0000644 0.0002712 0.0010086 0.0008172 0.0041781 -0.0146076 0.0026921 0.0002831
0.0088722 -0.0107945 0.0063163 -0.0063775 0.0010164 0.0034988 0.0004835 -0.0066123 0.0003064 0.0009771 0.0000116 0.0004592 -0.0000881 0.0002756 0.0005454 0.0008121 -0.0006165 -0.0006071 0.0091189 -0.0035384
0.0133198 -0.0122974 0.0023494 -0.0019567 0.0004276 -0.0099282 0.0026765 -0.0107161 0.0002974 0.0010243 0.0000020 0.0004998 -0.0000925 0.0002896 0.0003125 0.0007324 0.0017070 -0.0024400 0.0098728 -0.0096178
0.0003902 0.0076062 0.0046930 0.0065974 0.0029915 -0.0124790 0.0111114 -0.0273350 0.0002957 0.0010742 0.0000086 0.0005490 -0.0000709 0.0003082 0.0002484 0.0003531 0.0003601 -0.0084638 0.0105070 -0.0214633
0.0067725 -0.0011402 0.0019928 0.0055464 0.0113851 -0.0103215 0.0172143 -0.0347481 0.0002927 0.0010913 0.0000136 0.0006247 -0.0000518 0.0003490 0.0004194 0.0002782 -0.0090187 0.0008207 -0.0086399 0.0110106
0.0134186 -0.0166000 -0.0084341 0.0036543 0.0116744 -0.0091514 0.0055230 -0.0060737 0.0002824 0.0010652 0.0000178 0.0006514 -0.0000662 0.0003811 0.0010012 0.0000019 -0.0052150 -0.0019586 -0.0125597 0.0214187
0.0021516 0.0040654 -0.0044686 -0.0106379 0.0053669 -0.0081211 0.0017498 0.0015813 0.0002842 0.0009859 0.0000312 0.0005719 -0.0000722 0.0003262 0.0013094 -0.0005030 0.0095805 -0.0222167 -0.0061281 0.0049680
-0.0000202 -0.0043838 0.0119743 -0.0249534 0.0168419 -0.0261640 0.0021817 -0.0008621 0.0002778 0.0009427 0.0000283 0.0005078 -0.0000849 0.0002980 0.0006271 0.0006805 0.0086085 -0.0159051 0.0059354 -0.0074654
-0.0014774 0.0000991 0.0113725 -0.0227686 0.0105853 -0.0060288 -0.0008527 -0.0028063 0.0002661 0.0009321 0.0000166 0.0005121 -0.0000770 0.0003069 -0.0000742 0.0015066 -0.0028964 -0.0006185 0.0007230 0.0056759
0.0038057 0.0053518 0.0008407 -0.0008790 0.0012077 0.0124396 -0.0106587 0.0102610 0.0002532 0.0009341 0.0000057 0.0005462 -0.0000603 0.0003111 -0.0004998 0.0018366 0.0004550 -0.0103262 -0.0065180 0.0125458
0.0046001 -0.0053028 -0.0079949 0.0162691 -0.0008636 0.0085438 0.0028563 -0.0039806 0.0002437 0.0009660 -0.0000075 0.0005926 -0.0000536 0.0003091 -0.0002844 0.0009322 0.0038567 -0.0124976 -0.0002708 -0.0032494
-0.0088775 0.0196888 -0.0183011 0.0106617 -0.0097005 0.0049058 0.0071180 -0.0168069 0.0002583 0.0009945 -0.0000153 0.0006454 -0.0000616 0.0003101 0.0011172 -0.0011011 0.0081905 -0.0110562 -0.0033479 -0.0080454
-0.0041930 0.0161001 -0.0007548 0.0078559 -0.0025297 -0.0104358 -0.0010187 -0.0121803 0.0002635 0.0010243 -0.0000096 0.0006690 -0.0000950 0.0003190 0.0012468 -0.0000221 0.0074834 -0.0066682 -0.0108184 0.0111172
-0.0002373 0.0026693 0.0000032 0.0137866 0.0068762 -0.0105120 -0.0017397 0.0099972 0.0002515 0.0009720 0.0000077 0.0005987 -0.0001158 0.0002519 0.0005543 0.0007881 0.0058116 -0.0042846 -0.0019037 0.0066129
-0.0003582 0.0000341 -0.0021426 0.0020202 -0.0004413 0.0082387 -0.0020362 0.0183896 0.0002508 0.0008434 0.0000154 0.0005312 -0.0000984 0.0001587 0.0004012 -0.0001622 -0.0013316 0.0012895 0.0041652 -0.0042083
-0.0002037 0.0118285 -0.0027797 -0.0021881 -0.0099210 0.0230910 -0.0055153 0.0113889 0.0002425 0.0007644 0.0000098 0.0005399 -0.0000681 0.0001239 0.0000435 -0.0003956 -0.0156687 0.0194699 0.0075189 -0.0072762
-0.0027318 0.0201449 0.0070831 -0.0169820 -0.0056086 0.0207275 0.0004346 -0.0029949 0.0002358 0.0007250 -0.0000028 0.0005682 -0.0000641 0.0001494 -0.0006439 0.0010231 -0.0043856 0.0067963 -0.0014281 0.0082701
0.0040693 0.0006822 0.0088817 -0.0212999 0.0001323 0.0037679 0.0092317 -0.0200767 0.0002337 0.0006968 -0.0000034 0.0006021 -0.0000958 0.0001969 -0.0003589 0.0018246 0.0134336 -0.0234819 -0.0150310 0.0255995
0.0165485 -0.0319326 -0.0036844 -0.0069118 -0.0028589 0.0060368 0.0080555 -0.0113759 0.0002150 0.0006652 0.0000025 0.0006498 -0.0001218 0.0002432 0.0010026 -0.0003917 0.0076811 -0.0152531 -0.0013195 0.0011289
0.0041162 -0.0062252 -0.0124268 0.0004925 -0.0027280 0.0115824 0.0067088 -0.0049340 0.0001816 0.0006108 0.0000345 0.0007377 -0.0001144 0.0003145 0.0012818 -0.0008539 -0.0027978 -0.0047429 0.0077415 -0.0152936
-0.0056593 0.0158531 -0.0055797 0.0012783 0.0003929 0.0038367 0.0055438 -0.0112306 0.0001199 0.0004002 0.0000861 0.0007965 -0.0000871 0.0003648 0.0002334 0.0003685 -0.0052848 -0.0054868 -0.0006944 0.0108738
-0.0142751 0.0216718 -0.0019117 0.0069613 -0.0004059 0.0102739 -0.0033703 0.0023165 0.0000434 0.0000563 0.0001257 0.0008094 -0.0000321 0.0003389 -0.0011102 0.0012431 0.0005396 -0.0072891 0.0013539 0.0091766
-0.0052653 0.0018229 -0.0120238 0.0092840 0.0036912 0.0039320 -0.0109280 0.0037343 -0.0000035 -0.0001839 0.0001440 0.0008436 -0.0000100 0.0003242 -0.0012112 0.0006910 0.0142008 -0.0185209 -0.0014566 0.0064617
0.0063508 -0.0105016 -0.0019198 -0.0178053 0.0103646 -0.0141125 -0.0142114 0.0040573 -0.0000294 -0.0002828 0.0001418 0.0009021 -0.0000287 0.0003551 0.0001316 -0.0006590 0.0065486 -0.0037943 -0.0052743 0.0068179
0.0010547 0.0081345 0.0089860 -0.0232751 0.0059024 -0.0119453 -0.0146090 0.0259176 -0.0000431 -0.0002984 0.0001431 0.0009309 -0.0000627 0.0004134 0.0007616 -0.0003120 -0.0076566 0.0139245 -0.0013259 0.0022040
-0.0092479 0.0171517 -0.0083313 0.0198974 0.0111564 -0.0218920 -0.0071839 0.0151002 -0.0000662 -0.0002801 0.0001206 0.0008907 -0.0000612 0.0004498 -0.0004764 0.0012108 -0.0034632 -0.0001771 -0.0035615 0.0067918
0.0009084 0.0110337 0.0003834 0.0103075 0.0093565 -0.0119007 0.0020297 -0.0092747 -0.0000735 -0.0002289 0.0001025 0.0008764 -0.0000487 0.0004685 -0.0006261 0.0005892 0.0159475 -0.0445547 0.0069997 -0.0132947
0.0082146 -0.0049674 0.0065602 -0.0074422 0.0015828 -0.0015982 0.0108110 -0.0109733 -0.0000388 -0.0002016 0.0001110 0.0008350 -0.0000375 0.0004340 -0.0003812 -0.0000778 0.0027622 -0.0147745 0.0154205 -0.0288042
-0.0037223 0.0016515 -0.0079156 0.0061107 0.0023507 -0.0121830 0.0096329 -0.0098878 -0.0000125 -0.0002518 0.0001074 0.0007202 -0.0000074 0.0003329 0.0001435 0.0002849 0.0028526 -0.0176418 -0.0041080 0.0057084
-0.0008951 0.0032389 0.0103519 -0.0325328 -0.0001686 0.0030718 0.0070942 -0.0206155 -0.0000000 -0.0002825 0.0000834 0.0006554 -0.0000157 0.0003064 0.0012914 -0.0009314 0.0118951 -0.0215311 -0.0111607 0.0151665
0.0033968 -0.0031067 0.0145685 -0.0371280 -0.0041047 0.0032023 0.0124009 -0.0251427 0.0000108 -0.0002452 0.0000600 0.0006259 -0.0000327 0.0003122 0.0014913 -0.0013964 0.0059750 -0.0095271 -0.0103295 0.0096278
-0.0020578 0.0081863 0.0012514 0.0005186 -0.0078017 -0.0029961 0.0006354 -0.0038408 0.0000350 -0.0002099 0.0000676 0.0006053 -0.0000347 0.0003204 0.0008123 -0.0004753 -0.0061371 0.0021108 0.0013177 -0.0012495
-0.0125461 0.0232192 0.0050343 -0.0044366 -0.0005754 0.0025298 -0.0144388 0.0017467 0.0000380 -0.0001654 0.0000752 0.0006139 -0.0000489 0.0003774 -0.0002391 0.0011466 -0.0083073 0.0063331 0.0054850 0.0050239
-0.0091095 0.0219088 0.0174015 -0.0561713 -0.0006034 0.0052718 -0.0056866 -0.0221442 0.0000554 -0.0000519 0.0000554 0.0006412 -0.0000409 0.0004037 -0.0003052 0.0006899 0.0041804 -0.0057148 0.0051246 0.0041509
0.0000123 0.0078892 -0.0083750 0.0028699 0.0018473 0.0008212 -0.0007953 -0.0106607 0.0000981 0.0000632 0.0000414 0.0006171 -0.0000077 0.0003895 0.0003468 -0.0004998 0.0121471 -0.0226545 0.0069191 -0.0226729
0.0087134 -0.0032320 0.0020087 0.0069907 -0.0037165 0.0091135 0.0052854 -0.0086527 0.0001230 0.0000617 0.0000480 0.0005772 0.0000102 0.0003960 0.0010212 -0.0004292 -0.0020061 -0.0029836 -0.0146137 0.0026878
0.0018606 0.0037465 0.0038977 0.0006362 -0.0103417 0.0181044 0.0012935 -0.0022200 0.0001195 -0.0000733 0.0000847 0.0006250 -0.0000066 0.0004806 0.0009633 0.0004307 -0.0023008 0.0055964 -0.0065411 0.0065701
-0.0035665 0.0080889 -0.0015783 0.0078355 -0.0010489 -0.0009424 0.0019031 0.0009005 0.0000613 -0.0002845 0.0001529 0.0007781 0.0000046 0.0005921 0.0004114 0.0007151 -0.0053010 0.0055020 0.0050102 0.0015311
0.0136095 -0.0244061 0.0042334 0.0067013 0.0031364 -0.0038999 0.0061594 -0.0012234 -0.0000221 -0.0004710 0.0002125 0.0009758 0.0000313 0.0006687 -0.0001305 0.0000341 -0.0083699 0.0074967 0.0064743 -0.0030618
0.0016184 -0.0105260 0.0091102 0.0004129 0.0021629 0.0070822 -0.0024024 0.0159221 -0.0000866 -0.0005565 0.0002307 0.0011361 0.0000483 0.0007110 -0.0005349 -0.0002221 -0.0066911 0.0089983 0.0154632 -0.0338020
-0.0182904 0.0160177 0.0088116 -0.0038788 -0.0022100 0.0149953 -0.0056777 0.0119986 -0.0001129 -0.0005511 0.0002406 0.0012630 0.0000604 0.0007890 -0.0006517 0.0004551 -0.0093768 0.0166485 -0.0002320 -0.0057987
-0.0069513 0.0098558 0.0094980 -0.0148831 -0.0099444 0.0170263 -0.0110698 0.0124845 -0.0001123 -0.0005515 0.0002563 0.0012971 0.0000416 0.0008531 0.0002073 -0.0000826 -0.0060781 0.0127487 -0.0314034 0.0253165
-0.0115094 0.0174744 0.0069524 -0.0073462 -0.0067274 -0.0058496 -0.0087088 0.0136948 -0.0001100 -0.0006182 0.0002496 0.0011812 0.0000254 0.0007548 0.0013295 -0.0017917 -0.0035235 0.0026399 -0.0028224 -0.0101248
-0.0180904 0.0117139 -0.0081427 0.0238216 0.0092758 -0.0262196 0.0035495 -0.0049663 -0.0000861 -0.0006428 0.0002206 0.0010475 0.0000157 0.0006751 0.0009250 -0.0007402 0.0033490 -0.0099543 0.0041108 -0.0039749
-0.0121482 0.0138724 -0.0041436 0.0167030 0.0117341 -0.0138886 0.0074692 -0.0166416 -0.0000549 -0.0005285 0.0001826 0.0009400 -0.0000066 0.0006922 -0.0002144 0.0010381 0.0032832 -0.0021400 0.0010028 0.0103045
-0.0020826 0.0096260 -0.0007972 0.0091589 0.0046638 -0.0039988 0.0072006 -0.0153539 -0.0000322 -0.0003670 0.0001300 0.0008438 0.0000045 0.0006490 -0.0007942 0.0017339 -0.0048918 0.0148729 0.0005980 0.0091681
0.0133491 -0.0179806 -0.0025720 0.0111543 -0.0105830 0.0152580 -0.0053866 0.0069470 -0.0000190 -0.0002928 0.0001013 0.0008372 0.0000502 0.0006725 -0.0004351 0.0009326 -0.0282969 0.0415835 -0.0056930 0.0117985
0.0033526 -0.0048172 -0.0015821 -0.0065799 -0.0079422 0.0137862 -0.0207207 0.0220562 -0.0000128 -0.0002775 0.0001049 0.0008697 0.0000662 0.0007617 0.0001254 0.0008082 -0.0139652 0.0244068 -0.0155295 0.0140860
-0.0066623 0.0101275 -0.0077592 -0.0005434 -0.0080207 0.0049365 -0.0083774 0.0067897 0.0000273 -0.0002345 0.0000933 0.0007983 0.0000301 0.0007606 0.0004958 0.0015317 0.0097144 -0.0161909 -0.0125495 0.0178454
-0.0044359 0.0110720 -0.0011310 0.0029512 -0.0090282 0.0170882 0.0032213 -0.0082323 0.0000837 -0.0001701 0.0000878 0.0006625 -0.0000060 0.0006948 0.0009352 0.0007468 -0.0059565 0.0078254 -0.0060600 0.0161213
-0.0054506 0.0138888 0.0000428 -0.0065369 0.0001810 0.0094543 0.0017815 0.0074841 0.0000816 -0.0002240 0.0001069 0.0006602 -0.0000137 0.0007097 0.0007214 0.0010378 -0.0136393 0.0211585 0.0016592 0.0075924
0.0048391 -0.0023051 -0.0081880 0.0011370 0.0003780 0.0036857 0.0029255 0.0083135 0.0001978 0.0002493 0.0002364 0.0012898 0.0000390 0.0009717 0.0002446 0.0014103 -0.0027938 0.0045584 0.0027612 0.0025584
0.0157225 -0.0279632 0.0031793 -0.0053835 -0.0079772 0.0210125 0.0058800 -0.0050496 0.0003258 0.0007682 0.0003480 0.0019026 0.0001131 0.0012210 -0.0001100 0.0018007 0.0042449 -0.0092332 -0.0010923 -0.0012743
-0.0006249 -0.0006821 0.0057804 -0.0134645 -0.0068936 0.0121732 -0.0019307 0.0020421 0.0003677 0.0009468 0.0004203 0.0022630 0.0001301 0.0013878 0.0000464 0.0022788 0.0099459 -0.0177505 -0.0003609 -0.0145045
-0.0067133 0.0151110 -0.0010314 -0.0060881 -0.0006337 0.0034321 -0.0098052 0.0053409 0.0005164 0.0014274 0.0005849 0.0028420 0.0001320 0.0015005 0.0011536 0.0023593 0.0158320 -0.0377858 0.0106328 -0.0386958
-0.0118802 0.0198893 -0.0027656 0.0023993 -0.0013312 0.0033992 -0.0055558 0.0105661 0.0005979 0.0015834 0.0006690 0.0029669 0.0001206 0.0014582 0.0017076 0.0027716 0.0011879 -0.0065201 0.0043122 -0.0073542
-0.0160013 0.0110523 -0.0089381 0.0106489 0.0112117 -0.0235100 -0.0023192 0.0140545 0.0005405 0.0013082 0.0006596 0.0027327 0.0001258 0.0012960 0.0004093 0.0033724 0.0006043 0.0048626 -0.0041910 0.0104331
-0.0065666 -0.0086148 -0.0057561 0.0015310 0.0180128 -0.0310749 0.0027923 0.0025409 0.0003699 0.0008209 0.0006077 0.0024845 0.0001364 0.0011322 -0.0003348 0.0022618 0.0037085 0.0013561 -0.0016792 -0.0013111
-0.0051285 0.0025792 -0.0120689 0.0075139 -0.0001043 -0.0024962 0.0071367 -0.0040635 0.0002027 0.0004021 0.0005287 0.0022704 0.0001370 0.0011413 -0.0003734 0.0010177 0.0018455 0.0029287 -0.0009886 -0.0019731
0.0067713 -0.0066322 -0.0139165 0.0192918 -0.0273850 0.0270613 0.0066250 -0.0067298 0.0001748 0.0003250 0.0004787 0.0021822 0.0001435 0.0012063 0.0001888 0.0010185 -0.0020168 0.0062644 -0.0073056 0.0021580
0.0142295 -0.0251688 -0.0084793 0.0170675 -0.0175099 0.0174730 0.0000191 0.0037060 0.0001738 0.0003195 0.0004285 0.0020913 0.0001192 0.0011635 0.0005041 0.0013763 0.0016725 -0.0073254 -0.0146746 0.0073653
-0.0005677 0.0012585 0.0007057 -0.0019801 0.0024563 -0.0086086 -0.0064062 0.0109036 0.0001707 0.0003324 0.0003752 0.0018667 0.0000848 0.0010052 0.0009401 0.0003983 -0.0000290 0.0034834 -0.0032161 0.0038896
0.0000038 -0.0009679 -0.0019269 0.0071663 0.0144347 -0.0298546 -0.0123175 0.0059313 0.0002048 0.0004198 0.0003344 0.0015821 0.0000689 0.0008192 0.0009415 -0.0001691 -0.0080568 0.0162723 0.0121497 -0.0169994
0.0075758 -0.0067929 0.0006301 -0.0007395 0.0039333 -0.0026796 -0.0037264 -0.0018187 0.0002673 0.0005880 0.0003067 0.0014466 0.0000699 0.0007333 -0.0003349 0.0016749 -0.0107815 0.0090896 0.0091972 -0.0117637
-0.0076015 0.0140614 0.0071421 -0.0184958 -0.0132090 0.0223735 0.0032607 -0.0035651 0.0003377 0.0007582 0.0003040 0.0014502 0.0000765 0.0007440 -0.0002901 0.0014640 0.0060040 -0.0056425 -0.0028488 0.0066414
-0.0168027 0.0050348 -0.0039763 0.0041902 -0.0174156 0.0255741 0.0062131 -0.0124707 0.0003774 0.0008560 0.0003102 0.0014915 0.0000736 0.0007771 0.0008779 -0.0002224 0.0082884 -0.0096227 -0.0039486 -0.0071586
-0.0033323 -0.0007552 -0.0017196 0.0070384 -0.0056759 0.0099465 0.0131460 -0.0227525 0.0003538 0.0007858 0.0003123 0.0015803 0.0000671 0.0008290 0.0015367 -0.0002675 -0.0094399 0.0171248 -0.0170763 0.0025441
-0.0010851 0.0073260 -0.0007847 0.0166698 -0.0075629 0.0138140 0.0033843 0.0020030 0.0003054 0.0006839 0.0003446 0.0017265 0.0000266 0.0009004 0.0011181 0.0012181 -0.0017884 0.0113546 -0.0105732 0.0128976
-0.0021402 0.0098878 -0.0057801 0.0181465 -0.0136606 0.0105617 0.0054537 0.0007687 0.0002901 0.0007066 0.0003591 0.0016771 -0.0000148 0.0008466 0.0004207 0.0012688 0.0012699 -0.0057468 0.0021849 0.0059041
-0.0056238 0.0037463 -0.0099691 0.0215542 -0.0046643 -0.0027806 0.0110234 -0.0000924 0.0003171 0.0007584 0.0003457 0.0014993 0.0000175 0.0007251 -0.0000466 0.0004232 -0.0082902 0.0120598 0.0091782 -0.0089885
-0.0039260 -0.0078644 -0.0107724 0.0158685 -0.0055045 0.0113013 0.0074419 -0.0041573 0.0003817 0.0008650 0.0003373 0.0014604 0.0000764 0.0007391 -0.0002883 0.0007276 -0.0005162 0.0107570 0.0082234 -0.0091959
-0.0048331 0.0082982 -0.0039233 0.0038936 0.0056075 -0.0074279 0.0035391 -0.0166152 0.0004251 0.0009983 0.0003213 0.0014667 0.0000933 0.0007963 0.0000366 0.0013554 -0.0025183 0.0155916 -0.0053191 0.0105488
-0.0068595 0.0154261 0.0053113 -0.0016611 0.0149873 -0.0261712 0.0023100 0.0009087 0.0004424 0.0010989 0.0003225 0.0014687 0.0001068 0.0008719 0.0012334 0.0009015 0.0006442 0.0144757 -0.0288607 0.0228598
-0.0024889 0.0073799 0.0154907 -0.0375142 0.0071537 -0.0179161 0.0021238 0.0036579 0.0004611 0.0011987 0.0003258 0.0014515 0.0001030 0.0009654 0.0015839 0.0007338 0.0044542 0.0035743 -0.0163946 0.0050051
-0.0024969 0.0103655 0.0040257 -0.0116304 -0.0011279 0.0016208 -0.0004467 0.0060095 0.0004736 0.0013221 0.0002993 0.0013622 0.0000773 0.0009831 0.0011757 0.0010759 0.0051752 -0.0017992 0.0089047 -0.0215844
-0.0051928 0.0069972 0.0117338 -0.0163626 -0.0047817 0.0073203 0.0020179 0.0051794 0.0004961 0.0013976 0.0002621 0.0011824 0.0000679 0.0008962 0.0002740 0.0018693 0.0053010 -0.0016433 0.0110136 -0.0120154
0.0115043 -0.0201290 0.0221378 -0.0386746 -0.0102195 0.0058350 0.0045667 -0.0029672 0.0005021 0.0013727 0.0002333 0.0010269 0.0000777 0.0007797 0.0001791 0.0022590 -0.0068879 0.0082488 0.0072018 -0.0044985
0.0172552 -0.0208130 0.0085873 -0.0124422 -0.0164084 0.0211616 -0.0027086 -0.0004488 0.0004700 0.0012700 0.0001991 0.0009594 0.0000882 0.0007339 0.0008270 0.0016436 -0.0225442 0.0163508 0.0010624 -0.0043648
0.0155795 -0.0219148 0.0010685 -0.0106593 -0.0035425 0.0105225 -0.0137883 -0.0007318 0.0004379 0.0011661 0.0001599 0.0009149 0.0000826 0.0007475 0.0009989 0.0016945 -0.0125446 0.0108735 -0.0184234 0.0193212
0.0152063 -0.0320890 0.0016181 -0.0056933 0.0087240 -0.0186690 -0.0019276 -0.0089633 0.0004261 0.0011626 0.0001374 0.0009053 0.0000658 0.0007856 0.0014268 0.0013389 -0.0006562 -0.0033817 -0.0091880 0.0171768
0.0307108 -0.0645513 -0.0001593 0.0000622 0.0041968 -0.0091165 0.0011855 -0.0069070 0.0004208 0.0012301 0.0001239 0.0009097 0.0000438 0.0008281 0.0012523 0.0014269 -0.0016104 -0.0098200 0.0063629 -0.0024232
0.0124737 -0.0143275 0.0069800 -0.0138598 0.0071102 0.0005171 0.0048036 -0.0103580 0.0004151 0.0012569 0.0001154 0.0008503 0.0000426 0.0007927 0.0007268 0.0015533 -0.0040266 -0.0033174 0.0055203 -0.0011652
-0.0078888 0.0169552 0.0010033 0.0037536 0.0074116 -0.0002805 0.0070414 -0.0090971 0.0004104 0.0012079 0.0001003 0.0007286 0.0000602 0.0006920 0.0006179 0.0016161 0.0043305 -0.0231154 -0.0024191 0.0055158
-0.0117789 0.0147048 -0.0033979 0.0060670 0.0011460 0.0043064 0.0091831 -0.0179361 0.0004042 0.0011761 0.0000650 0.0006445 0.0000792 0.0006307 0.0003781 0.0024116 0.0108235 -0.0311676 -0.0105007 0.0130001
-0.0026420 0.0034313 -0.0119308 0.0087580 -0.0006191 -0.0034280 0.0091202 -0.0187328 0.0004125 0.0011994 0.0000445 0.0006276 0.0000653 0.0006412 0.0003231 0.0021989 0.0060666 -0.0184085 -0.0140810 0.0127213
0.0030920 -0.0041053 -0.0142687 0.0134431 0.0096252 -0.0163998 0.0132168 -0.0142323 0.0004211 0.0012592 0.0000386 0.0006300 0.0000473 0.0006494 0.0010209 0.0016895 0.0047825 -0.0203482 0.0023452 -0.0126145
-0.0079296 0.0126948 -0.0053852 0.0076086 0.0122988 -0.0048750 0.0092430 -0.0016439 0.0004161 0.0013200 0.0000346 0.0006738 0.0000159 0.0006920 0.0011855 0.0021648 0.0134001 -0.0278602 0.0093654 -0.0185124
-0.0137703 0.0214972 -0.0144443 0.0250249 0.0016719 0.0129178 0.0051724 0.0016721 0.0004011 0.0013444 0.0000420 0.0007341 0.0000263 0.0007259 -0.0001609 0.0038498 0.0104139 -0.0153128 0.0062229 -0.0065008
-0.0040650 0.0157994 -0.0055399 0.0118064 -0.0063926 0.0176782 0.0101544 -0.0092730 0.0003785 0.0013112 0.0000361 0.0006442 0.0000486 0.0006623 -0.0003075 0.0035122 0.0001986 -0.0079990 0.0046347 0.0029691
-0.0054859 0.0108057 0.0104216 -0.0262645 -0.0030911 0.0090296 -0.0001055 -0.0049476 0.0003792 0.0012563 0.0000179 0.0005313 0.0000497 0.0005822 0.0000537 0.0023698 -0.0119151 0.0047184 0.0058861 -0.0042347
-0.0000832 -0.0205550 -0.0032970 -0.0199628 -0.0166995 0.0191040 -0.0024232 0.0057022 0.0003815 0.0012447 -0.0000029 0.0005090 0.0000433 0.0005592 0.0009280 0.0020810 -0.0011198 0.0053523 -0.0068464 0.0063421
0.0091315 -0.0242202 -0.0059417 -0.0066087 -0.0039353 0.0099184 -0.0004496 0.0134613 0.0003709 0.0012561 -0.0000275 0.0004969 0.0000132 0.0005908 0.0017758 0.0021818 0.0103945 -0.0138910 -0.0177809 0.0243987
-0.0014189 0.0024347 0.0108640 -0.0200696 -0.0035488 0.0138184 -0.0045701 0.0140635 0.0003640 0.0013080 -0.0000389 0.0005099 0.0000202 0.0006032 0.0018406 0.0015267 0.0132449 -0.0345082 0.0029500 0.0039357
-0.0015576 0.0038726 0.0121490 -0.0276700 -0.0177755 0.0203776 -0.0110333 0.0079307 0.0003710 0.0013730 -0.0000267 0.0005244 0.0000319 0.0006246 0.0017101 0.0007034 0.0073904 -0.0335031 0.0137123 -0.0167391
0.0012188 0.0037494 0.0027455 -0.0079014 0.0013164 0.0027986 -0.0077052 0.0063646 0.0003692 0.0013999 -0.0000270 0.0005160 0.0000284 0.0006454 0.0007817 0.0019119 0.0031740 -0.0149829 0.0038831 0.0012927
-0.0161265 0.0308719 0.0016040 -0.0050122 0.0051221 -0.0008110 -0.0039182 0.0035199 0.0003709 0.0013547 -0.0000443 0.0004619 0.0000380 0.0005960 0.0003403 0.0025546 0.0003208 -0.0071771 0.0013452 0.0087785
-0.0303440 0.0345969 0.0074530 -0.0197756 0.0066098 -0.0074877 -0.0138568 0.0156314 0.0003848 0.0013036 -0.0000348 0.0004053 0.0000537 0.0005522 0.0011012 0.0019278 0.0142874 -0.0259803 -0.0031699 0.0067331
-0.0034384 0.0022724 -0.0042061 0.0134225 0.0077392 0.0003176 0.0017044 0.0020443 0.0003826 0.0012866 -0.0000329 0.0003833 0.0000448 0.0005532 0.0017486 0.0016301 0.0097272 -0.0100847 -0.0168581 0.0061839
0.0115867 -0.0213499 -0.0076134 0.0213261 0.0035155 0.0044030 0.0051291 0.0005913 0.0003515 0.0012395 -0.0000448 0.0003700 0.0000164 0.0005911 0.0013829 0.0026416 0.0069778 -0.0113489 -0.0101198 -0.0062942
0.0051453 -0.0140599 -0.0007545 -0.0085846 0.0026279 -0.0093984 -0.0050604 0.0161504 0.0002962 0.0011973 -0.0000551 0.0003885 0.0000152 0.0006253 0.0008753 0.0026130 -0.0024453 -0.0000783 -0.0037793 0.0036447
-0.0021997 0.0086537 -0.0007650 -0.0130428 0.0063523 -0.0087463 0.0024284 0.0022284 0.0002594 0.0011988 -0.0000614 0.0004454 0.0000390 0.0006394 0.0005680 0.0017299 -0.0067858 0.0118652 0.0068840 -0.0001877
0.0028531 -0.0057731 0.0042154 -0.0066755 0.0094169 -0.0122963 0.0084843 -0.0110765 0.0002534 0.0012108 -0.0000607 0.0004356 0.0000681 0.0006021 0.0004767 0.0018424 0.0027759 0.0079126 0.0089909 -0.0092919
0.0204037 -0.0461781 0.0112249 -0.0153155 0.0118007 -0.0129212 0.0043618 -0.0070827 0.0002711 0.0011503 -0.0000533 0.0003249 0.0000741 0.0005295 0.0007877 0.0023558 -0.0005197 0.0090292 -0.0011929 0.0003147
0.0127243 -0.0205664 0.0166469 -0.0270387 0.0048458 0.0063338 -0.0014398 0.0032727 0.0002676 0.0010435 -0.0000584 0.0002464 0.0000586 0.0004837 0.0018213 0.0016591 0.0012659 -0.0046394 -0.0076706 0.0034449
-0.0058148 0.0038811 0.0007031 -0.0047885 -0.0129246 0.0217038 -0.0109477 0.0158882 0.0002515 0.0009866 -0.0000678 0.0002116 0.0000402 0.0004601 0.0020086 0.0010669 0.0076697 -0.0076122 -0.0040368 -0.0037604
-0.0024223 -0.0111471 -0.0164992 0.0128328 -0.0260633 0.0322034 0.0014365 -0.0000621 0.0002374 0.0009753 -0.0000686 0.0001906 0.0000259 0.0004484 0.0016069 0.0015561 0.0023004 0.0002048 0.0041752 -0.0023558
0.0035822 -0.0140057 -0.0082983 -0.0026691 -0.0107415 0.0144331 0.0043082 -0.0003104 0.0002041 0.0009371 -0.0000715 0.0002076 0.0000224 0.0004416 0.0010426 0.0020047 -0.0076511 0.0085740 0.0110102 -0.0088009
-0.0047644 0.0057496 -0.0080614 0.0049401 -0.0085625 0.0086000 -0.0118080 0.0214304 0.0001724 0.0008661 -0.0000699 0.0002725 0.0000273 0.0004785 0.0006802 0.0024201 -0.0060615 0.0105326 0.0081421 -0.0091902
-0.0058020 0.0056950 -0.0107231 0.0136645 -0.0108947 0.0037407 -0.0177688 0.0183927 0.0001596 0.0007602 -0.0000726 0.0002552 0.0000528 0.0004472 0.0008342 0.0024033 -0.0132593 0.0161247 -0.0059307 0.0008839
-0.0058259 0.0132975 -0.0060544 0.0065704 0.0030615 -0.0366132 -0.0112104 0.0025039 0.0001781 0.0006300 -0.0000752 0.0001329 0.0000684 0.0003465 0.0006712 0.0025617 -0.0131835 0.0008965 -0.0122002 0.0066781
-0.0055182 0.0152210 0.0051568 -0.0033327 0.0083103 -0.0233800 -0.0092426 0.0100249 0.0001849 0.0005171 -0.0000697 0.0001037 0.0000556 0.0003549 0.0010832 0.0021125 0.0002224 -0.0141705 0.0004479 0.0031370
-0.0076291 0.0195835 0.0051396 -0.0050064 0.0183058 -0.0278376 -0.0026573 0.0138867 0.0001305 0.0004207 -0.0000565 0.0001165 0.0000241 0.0004084 0.0016172 0.0012613 -0.0087368 0.0078780 0.0042851 -0.0059374
-0.0149535 0.0266331 0.0080998 -0.0165741 0.0277865 -0.0494238 0.0024039 0.0101780 0.0000608 0.0003403 -0.0000536 0.0001150 0.0000158 0.0003995 0.0014805 0.0013174 -0.0038461 0.0014414 0.0028039 0.0006244
-0.0124796 0.0219666 0.0021250 -0.0040892 0.0185371 -0.0447603 -0.0005144 0.0095136 0.0000544 0.0003110 -0.0000684 0.0001655 0.0000246 0.0003863 0.0006405 0.0025454 0.0164809 -0.0409050 0.0008647 0.0093468
-0.0028007 0.0121189 -0.0142082 0.0174600 0.0144852 -0.0336292 0.0013434 -0.0029891 0.0000811 0.0003297 -0.0000760 0.0002444 0.0000383 0.0004116 -0.0000929 0.0033879 0.0100533 -0.0346558 -0.0030133 0.0103853
0.0027226 -0.0030022 -0.0016192 -0.0044581 0.0171629 -0.0393792 -0.0028389 -0.0079543 0.0001125 0.0002719 -0.0000671 0.0002123 0.0000487 0.0003849 0.0002350 0.0022491 0.0044827 -0.0173346 -0.0005576 -0.0009113
0.0035875 -0.0086644 0.0127478 -0.0216167 0.0105673 -0.0358104 0.0048706 -0.0194118 0.0001491 0.0001577 -0.0000676 0.0001130 0.0000420 0.0002872 0.0008145 0.0019184 0.0065299 -0.0114076 -0.0043951 0.0019387
0.0018381 -0.0045426 0.0177156 -0.0240607 0.0072417 -0.0109096 0.0132748 -0.0137429 0.0001520 0.0000933 -0.0000671 0.0001008 0.0000127 0.0002670 0.0014597 0.0024835 0.0039838 -0.0087839 0.0031753 0.0010145
0.0056029 -0.0085716 0.0112310 -0.0097146 -0.0074387 0.0163282 0.0089272 0.0004838 0.0001214 0.0000808 -0.0000558 0.0001314 0.0000108 0.0002781 0.0008270 0.0029736 0.0104160 -0.0101608 0.0131617 -0.0152472
0.0133034 -0.0280985 -0.0037677 0.0121558 -0.0064597 0.0202340 0.0095750 -0.0074714 0.0001094 0.0000888 -0.0000550 0.0001681 0.0000442 0.0002535 0.0003244 0.0018377 0.0065499 -0.0039097 0.0078145 -0.0043686
0.0028750 0.0016570 -0.0040567 -0.0035418 -0.0027664 0.0131511 0.0075541 -0.0031656 0.0000996 0.0000993 -0.0000525 0.0002269 0.0000441 0.0002732 0.0003094 0.0018540 -0.0056757 0.0125424 0.0026422 0.0056417
-0.0016818 0.0145027 0.0049607 -0.0217068 -0.0196426 0.0214436 0.0000336 0.0041808 0.0001037 0.0000495 -0.0000516 0.0002022 0.0000416 0.0002599 0.0005746 0.0032842 -0.0057177 0.0135864 -0.0006135 0.0044124
0.0065873 -0.0030904 -0.0032478 0.0112672 -0.0215146 0.0207097 -0.0025751 0.0000472 0.0001268 -0.0000451 -0.0000565 0.0001017 0.0000426 0.0001737 0.0016142 0.0021484 -0.0183574 0.0162497 -0.0080254 -0.0063131
0.0113469 -0.0151536 -0.0021499 0.0113891 -0.0073439 0.0072183 -0.0064723 0.0101458 0.0001284 -0.0000936 -0.0000632 0.0000665 0.0000316 0.0001167 0.0022045 0.0009025 -0.0074249 0.0074661 0.0006006 -0.0137454
0.0097411 -0.0165799 0.0037258 -0.0004370 -0.0105502 0.0132357 -0.0135641 0.0222336 0.0001149 -0.0001155 -0.0000559 0.0000713 0.0000143 0.0001308 0.0017279 0.0013603 0.0071330 -0.0051333 0.0047747 -0.0016021
0.0062742 -0.0067579 0.0090158 -0.0064557 -0.0122229 0.0091420 -0.0054008 0.0141409 0.0000932 -0.0001030 -0.0000480 0.0001029 -0.0000025 0.0001743 0.0009840 0.0020244 0.0022473 -0.0024916 0.0010249 0.0054640
-0.0052668 0.0052224 0.0037998 -0.0078235 0.0021989 -0.0108196 -0.0004831 0.0076958 0.0000911 -0.0000802 -0.0000640 0.0001510 -0.0000035 0.0001972 0.0006960 0.0020259 0.0064011 -0.0259203 0.0034814 -0.0067270
-0.0114903 0.0080128 -0.0123031 0.0137375 -0.0130572 0.0242355 -0.0107937 0.0202870 0.0001020 -0.0000604 -0.0000739 0.0001964 0.0000168 0.0002183 0.0011815 0.0013171 0.0042141 -0.0257423 0.0063456 -0.0181745
-0.0068885 0.0035073 -0.0063713 0.0198427 -0.0105869 0.0243197 -0.0092224 0.0141018 0.0001061 -0.0000257 -0.0000747 0.0002400 0.0000186 0.0002310 0.0013027 0.0021508 0.0054495 -0.0070017 -0.0069442 0.0069011
-0.0034555 -0.0076265 -0.0047747 0.0168159 0.0091767 -0.0126940 -0.0034513 0.0029697 0.0001128 -0.0000982 -0.0000643 0.0001766 -0.0000170 0.0002068 0.0009182 0.0028548 0.0065832 -0.0024673 -0.0193158 0.0205097
0.0048182 -0.0212823 -0.0008324 0.0047622 0.0141457 -0.0151104 -0.0001002 -0.0039200 0.0001267 -0.0002201 -0.0000493 0.0000781 -0.0000268 0.0001562 0.0016240 0.0014740 0.0043471 -0.0100420 -0.0030020 0.0027824
0.0112324 -0.0124960 0.0035394 0.0047477 0.0079541 -0.0009193 0.0026201 -0.0019685 0.0001299 -0.0002401 -0.0000493 0.0000741 -0.0000119 0.0001294 0.0016203 0.0016714 0.0065466 -0.0203661 0.0097279 -0.0078506
0.0096753 -0.0001481 -0.0042269 0.0076872 -0.0034795 0.0064365 -0.0014617 0.0168288 0.0001157 -0.0002275 -0.0000406 0.0000896 0.0000137 0.0001241 0.0005541 0.0030110 -0.0006293 -0.0016025 0.0061258 0.0045095
0.0018478 0.0032098 -0.0140768 0.0256945 -0.0049124 0.0007040 -0.0003410 0.0155929 0.0001005 -0.0002288 -0.0000392 0.0001205 0.0000304 0.0001366 0.0000240 0.0031734 0.0023539 0.0029204 0.0013834 0.0078989
0.0020831 -0.0068336 -0.0041167 0.0169671 -0.0038586 -0.0004911 0.0029811 0.0131732 0.0001020 -0.0001930 -0.0000511 0.0001858 0.0000319 0.0001747 0.0007210 0.0019954 0.0035724 -0.0039601 -0.0010894 -0.0002315
0.0082212 -0.0082688 -0.0016004 -0.0121173 -0.0048346 0.0050854 0.0025912 0.0093810 0.0001141 -0.0001339 -0.0000427 0.0002429 0.0000240 0.0002214 0.0018532 0.0011120 0.0132438 -0.0299710 0.0005214 0.0019104
0.0093266 -0.0040376 0.0007710 -0.0116641 0.0086541 -0.0200883 -0.0105721 0.0072005 0.0001242 -0.0001567 -0.0000397 0.0002167 -0.0000080 0.0002341 0.0019173 0.0018946 0.0065213 -0.0161934 0.0029329 0.0023783
-0.0016692 0.0048870 0.0129417 -0.0166392 0.0164949 -0.0322114 -0.0061014 -0.0037850 0.0001154 -0.0002183 -0.0000364 0.0001319 -0.0000108 0.0001752 0.0018097 0.0017737 -0.0110775 0.0114547 0.0090367 -0.0094777
-0.0119279 0.0083723 0.0084816 -0.0147044 0.0033407 -0.0007707 -0.0014145 -0.0132123 0.0001170 -0.0002469 -0.0000405 0.0001172 0.0000158 0.0001271 0.0014581 0.0014453 -0.0027811 0.0075953 0.0141125 -0.0188731
-0.0017869 0.0019550 0.0058308 -0.0059147 0.0039257 0.0024546 -0.0131458 -0.0008113 0.0001171 -0.0002257 -0.0000444 0.0001277 0.0000286 0.0001279 0.0003611 0.0028989 0.0036752 -0.0057368 0.0062943 -0.0041551
-0.0037147 0.0095544 0.0045132 -0.0020136 0.0070218 -0.0030647 -0.0099212 -0.0054835 0.0001200 -0.0001859 -0.0000430 0.0001426 0.0000276 0.0001554 -0.0002240 0.0037006 0.0109900 -0.0240529 0.0014130 0.0029745
0.0095731 -0.0130552 -0.0005474 0.0003517 -0.0028098 0.0029567 -0.0027870 -0.0120939 0.0001404 -0.0001739 -0.0000495 0.0001881 0.0000188 0.0002153 0.0007505 0.0032158 0.0045434 -0.0056305 0.0049341 -0.0151216
0.0173092 -0.0159356 0.0005635 -0.0034634 0.0001815 0.0049297 -0.0018204 0.0022565 0.0001418 -0.0001362 -0.0000488 0.0002328 0.0000196 0.0002795 0.0022136 0.0019824 -0.0112474 0.0079823 -0.0058815 0.0015660
0.0023535 0.0132129 -0.0038383 -0.0104580 0.0012545 -0.0013461 -0.0009894 0.0030398 0.0001389 -0.0001034 -0.0000315 0.0002033 -0.0000023 0.0002908 0.0020687 0.0020914 -0.0095854 -0.0028470 -0.0094767 0.0127915
-0.0088069 0.0152368 0.0033923 -0.0104445 -0.0010152 -0.0006040 0.0128947 -0.0245228 0.0001377 -0.0001485 -0.0000206 0.0001034 -0.0000068 0.0002224 0.0011544 0.0034413 -0.0005667 -0.0010928 0.0007248 0.0024438
-0.0087540 0.0077688 0.0012502 0.0004191 0.0019507 0.0088001 0.0053714 -0.0025039 0.0001324 -0.0002163 -0.0000192 0.0000657 0.0000266 0.0001802 0.0007320 0.0032495 -0.0009998 -0.0038473 0.0115885 -0.0108417
-0.0076970 0.0158676 0.0017330 0.0067155 -0.0079694 0.0147533 -0.0113547 0.0174931 0.0001374 -0.0002137 -0.0000088 0.0001217 0.0000596 0.0002210 0.0002950 0.0035780 0.0128670 -0.0307580 0.0092699 -0.0038830
-0.0006066 0.0071909 0.0021517 0.0064408 -0.0326493 0.0298397 -0.0052323 -0.0019825 0.0001588 -0.0001665 0.0000057 0.0002254 0.0000957 0.0003190 0.0004464 0.0044324 0.0031996 -0.0025697 -0.0064712 0.0115678
0.0025174 -0.0091804 0.0091289 -0.0137114 -0.0083512 0.0052031 0.0067094 -0.0260081 0.0001741 -0.0001107 0.0000048 0.0002951 0.0000938 0.0003908 0.0014020 0.0035451 -0.0088905 0.0147660 -0.0147191 0.0078746
0.0067916 -0.0155426 0.0004036 0.0066320 0.0003308 -0.0129008 0.0055678 -0.0222481 0.0001763 -0.0000567 0.0000040 0.0003079 0.0000595 0.0004188 0.0021187 0.0026896 -0.0013655 0.0127432 -0.0005076 -0.0119039
0.0114374 -0.0261414 -0.0070881 0.0182161 0.0033082 -0.0083616 0.0109114 -0.0186309 0.0001764 -0.0000182 0.0000102 0.0002611 0.0000417 0.0004070 0.0019154 0.0028809 0.0015277 0.0110928 0.0045520 -0.0112407
0.0141411 -0.0411104 0.0018132 -0.0048823 0.0026829 0.0016982 0.0076609 -0.0079075 0.0001698 -0.0000253 0.0000059 0.0001642 0.0000435 0.0003225 0.0011378 0.0035261 0.0029936 0.0012785 0.0055133 -0.0066841
0.0076397 -0.0151122 0.0012164 -0.0053007 -0.0012535 0.0038025 0.0031285 -0.0162841 0.0001660 -0.0000742 0.0000017 0.0000948 0.0000656 0.0002374 0.0010280 0.0035519 -0.0089448 0.0086142 -0.0020159 0.0074070
0.0040142 -0.0141811 0.0109081 -0.0223783 0.0047571 -0.0091623 0.0115057 -0.0392337 0.0001610 -0.0001181 -0.0000087 0.0000929 0.0000879 0.0002270 0.0009996 0.0035790 -0.0043270 -0.0014428 -0.0129156 0.0204614
-0.0023928 -0.0056409 0.0075845 -0.0328935 -0.0014459 -0.0109791 0.0040272 -0.0189897 0.0001340 -0.0001925 -0.0000136 0.0001616 0.0000837 0.0002784 0.0011461 0.0034276 0.0001643 -0.0003615 -0.0231364 0.0273539
-0.0047384 0.0111611 -0.0033953 -0.0067464 -0.0016927 -0.0136373 -0.0178061 0.0025881 0.0000663 -0.0003284 0.0000037 0.0002668 0.0000479 0.0003576 0.0018542 0.0026436 0.0007086 -0.0045512 -0.0089522 0.0160048
0.0008440 0.0068070 0.0064408 -0.0119282 0.0054996 -0.0103217 -0.0103597 0.0055804 -0.0000194 -0.0005201 0.0000377 0.0003775 0.0000180 0.0004508 0.0018804 0.0020583 0.0070016 -0.0207413 0.0006345 0.0050548
0.0051478 -0.0047151 0.0101699 -0.0248429 0.0048081 -0.0099532 -0.0040822 -0.0042511 -0.0000968 -0.0006590 0.0000328 0.0003615 0.0000120 0.0004616 0.0011745 0.0024285 -0.0004637 -0.0016586 0.0017215 -0.0020759
0.0085278 -0.0170735 0.0150493 -0.0313127 -0.0066999 0.0044196 -0.0036260 -0.0093840 -0.0001297 -0.0006731 -0.0000096 0.0002318 0.0000080 0.0003466 0.0005097 0.0028125 -0.0005257 0.0091001 -0.0009831 0.0012788
-0.0009380 -0.0018102 0.0173713 -0.0304463 0.0009359 0.0033696 0.0020852 -0.0004212 -0.0001050 -0.0006264 -0.0000447 0.0001853 0.0000208 0.0002330 -0.0000423 0.0032575 0.0033137 0.0028049 -0.0005755 0.0048822
-0.0125619 0.0058754 0.0096152 -0.0219591 0.0067992 0.0054441 0.0076472 -0.0018655 -0.0000853 -0.0005466 -0.0000591 0.0001886 0.0000222 0.0002108 0.0003786 0.0028016 0.0043994 -0.0015986 0.0017414 -0.0100501
0.0054107 -0.0105460 -0.0018479 0.0037067 0.0014367 0.0102605 0.0081232 -0.0065768 -0.0000828 -0.0004792 -0.0000548 0.0001983 0.0000047 0.0002338 0.0015424 0.0010935 -0.0003268 0.0011499 -0.0110677 -0.0034409
0.0118676 -0.0250640 0.0031150 -0.0033534 0.0098767 -0.0169190 0.0019833 0.0032010 -0.0001177 -0.0005494 -0.0000341 0.0003029 -0.0000288 0.0003067 0.0018407 0.0015815 0.0082461 -0.0194221 -0.0100566 0.0002094
-0.0050714 0.0007251 0.0111345 -0.0198370 0.0014942 0.0046846 -0.0011377 -0.0041532 -0.0001730 -0.0006560 0.0000068 0.0004728 0.0000070 0.0004806 0.0009899 0.0031456 -0.0025888 0.0019509 0.0031060 -0.0139217
-0.0009391 0.0109871 0.0081105 -0.0185733 -0.0083541 0.0205224 -0.0095402 -0.0003365 -0.0001860 -0.0007314 0.0000632 0.0005494 0.0000870 0.0006641 0.0003836 0.0036564 -0.0069012 0.0037973 0.0050485 -0.0126320
0.0044815 -0.0004187 -0.0016154 -0.0081172 -0.0038401 -0.0043268 -0.0089677 0.0203515 -0.0001687 -0.0007357 0.0000659 0.0004333 0.0001012 0.0006639 -0.0000162 0.0042233 0.0046217 -0.0128957 -0.0051440 0.0077398
0.0050410 -0.0086656 -0.0090651 0.0019042 -0.0002118 -0.0108262 -0.0051366 0.0188550 -0.0001247 -0.0005828 0.0000060 0.0002826 0.0000859 0.0005777 0.0005468 0.0043676 0.0011841 -0.0155362 -0.0106546 0.0177597
0.0084004 -0.0142755 -0.0149259 0.0080554 -0.0013656 0.0027131 0.0011190 0.0051268 -0.0000997 -0.0004631 -0.0000266 0.0002612 0.0000543 0.0005855 0.0016507 0.0027646 -0.0109554 -0.0007189 -0.0064172 -0.0024595
0.0016072 -0.0017451 -0.0043176 0.0088461 0.0043367 -0.0106006 0.0048948 -0.0153629 -0.0001033 -0.0003971 -0.0000322 0.0002908 0.0000508 0.0006078 0.0020915 0.0019547 -0.0090188 0.0007661 0.0016384 -0.0277059
0.0044481 -0.0017910 0.0031590 -0.0043267 -0.0027141 0.0037958 0.0025161 -0.0215384 -0.0000991 -0.0003018 -0.0000311 0.0003219 0.0000504 0.0006185 0.0016401 0.0027932 -0.0084753 0.0038889 0.0016339 -0.0133075
0.0048767 0.0102004 -0.0021595 -0.0000656 -0.0076513 0.0200939 0.0043358 -0.0059954 -0.0000989 -0.0002296 -0.0000273 0.0002829 0.0000259 0.0006068 0.0009811 0.0030358 -0.0090308 0.0117768 0.0003615 0.0010824
0.0042585 0.0085801 -0.0050840 0.0137664 0.0026231 0.0023342 0.0097052 -0.0133846 -0.0000879 -0.0002027 -0.0000293 0.0002060 0.0000390 0.0005401 0.0009002 0.0025044 0.0027212 -0.0053815 -0.0013253 0.0059865
0.0021835 -0.0082267 -0.0005787 0.0124144 0.0077796 -0.0253323 0.0080866 -0.0089191 -0.0000772 -0.0001339 -0.0000268 0.0001926 0.0000601 0.0005186 0.0009694 0.0024954 0.0095251 -0.0297045 -0.0027008 -0.0045487
-0.0127592 0.0063928 -0.0034312 0.0159566 0.0046650 -0.0155735 -0.0035918 0.0106847 -0.0000661 -0.0000164 -0.0000365 0.0002056 0.0000424 0.0005518 0.0012273 0.0029958 0.0067917 -0.0258011 -0.0137762 0.0094902
0.0030537 -0.0203246 -0.0041951 0.0105986 0.0039511 -0.0065316 -0.0013521 0.0084401 -0.0000586 0.0000505 -0.0000374 0.0002434 0.0000137 0.0005902 0.0016802 0.0024450 0.0080949 -0.0179927 -0.0141374 0.0187438
0.0170495 -0.0445364 -0.0009618 -0.0006739 0.0113038 -0.0164922 0.0124426 -0.0099882 -0.0002019 -0.0002964 -0.0000247 0.0003565 0.0000001 0.0006392 0.0016990 0.0022925 0.0091634 -0.0192310 0.0016377 0.0022751
-0.0016116 -0.0087175 0.0046671 -0.0047568 0.0058770 -0.0100333 0.0133613 -0.0087319 -0.0004028 -0.0008358 -0.0000083 0.0004727 -0.0000239 0.0006973 0.0015478 0.0022446 0.0030205 -0.0016678 0.0114482 -0.0198398
-0.0084564 0.0116457 0.0046388 0.0019858 -0.0095090 0.0173453 0.0049998 0.0026477 -0.0005112 -0.0010910 0.0000117 0.0005047 -0.0000127 0.0007228 0.0005376 0.0034977 0.0047161 -0.0004374 0.0033226 -0.0032217
0.0014041 0.0074792 -0.0013469 0.0112108 -0.0009212 0.0154778 0.0046859 -0.0055326 -0.0005937 -0.0013058 0.0000430 0.0006243 0.0000424 0.0008174 -0.0000097 0.0041825 -0.0019823 0.0057814 -0.0046787 0.0119921
0.0082993 -0.0065992 -0.0127002 0.0186143 0.0006594 0.0037920 -0.0010934 0.0009615 -0.0006560 -0.0014660 0.0000454 0.0007773 0.0000708 0.0009491 0.0008414 0.0024223 -0.0084883 0.0167799 -0.0103423 0.0025188
0.0010093 0.0005738 -0.0317119 0.0222763 -0.0176421 0.0198269 -0.0089144 0.0107241 -0.0006972 -0.0015058 0.0000531 0.0008900 0.0000453 0.0009606 0.0018002 0.0012739 0.0038422 -0.0018136 -0.0116081 -0.0016237
-0.0203081 0.0215014 -0.0150943 0.0034096 -0.0090845 0.0092259 0.0036303 0.0043419 -0.0007183 -0.0014571 0.0000871 0.0010180 0.0000108 0.0009740 0.0018734 0.0020236 0.0080074 -0.0052087 -0.0109725 0.0115835
-0.0135361 0.0119115 -0.0056071 0.0149818 0.0176538 -0.0356918 -0.0032930 0.0137658 -0.0007197 -0.0013109 0.0000942 0.0011008 -0.0000059 0.0010320 0.0012903 0.0027498 0.0062654 -0.0075059 -0.0028426 0.0074881
0.0126704 -0.0293213 -0.0023126 0.0043935 0.0091523 -0.0151249 -0.0177480 0.0292092 -0.0006835 -0.0012131 0.0000959 0.0010809 0.0000216 0.0009920 0.0009781 0.0021477 0.0035236 -0.0203044 -0.0026775 0.0156631
0.0003730 -0.0104600 0.0022826 -0.0123454 -0.0006609 -0.0017710 -0.0116933 0.0209937 -0.0006214 -0.0010899 0.0000422 0.0008493 0.0000469 0.0008786 0.0007206 0.0023404 -0.0167070 0.0124362 0.0005205 0.0104262
-0.0133431 0.0092853 -0.0018306 0.0049731 0.0004294 -0.0042836 -0.0090205 0.0127923 -0.0004937 -0.0007186 -0.0000665 0.0005410 0.0000616 0.0008040 0.0003628 0.0033736 -0.0169825 0.0231989 0.0023275 0.0041057
0.0073025 -0.0030610 -0.0138188 0.0075643 0.0063454 -0.0097874 -0.0097958 0.0091579 -0.0003740 -0.0003511 -0.0001224 0.0004021 0.0000663 0.0008201 0.0008937 0.0035884 -0.0037750 0.0081605 -0.0092337 0.0213219
0.0039902 0.0094670 0.0072897 -0.0286221 0.0120470 -0.0207022 -0.0051566 -0.0061130 -0.0002916 -0.0000809 -0.0001233 0.0003402 0.0000219 0.0008258 0.0020338 0.0021959 0.0020409 0.0008879 -0.0080466 0.0156107
-0.0101933 0.0141138 0.0035028 -0.0052191 0.0108072 -0.0191815 -0.0049402 0.0071864 -0.0002186 0.0001692 -0.0001354 0.0002612 -0.0000212 0.0007678 0.0020428 0.0022986 0.0023324 0.0086265 -0.0057224 0.0123552
-0.0070597 0.0107264 -0.0050211 0.0126129 0.0029739 -0.0043264 0.0024061 0.0011140 -0.0001816 0.0003579 -0.0001421 0.0002477 -0.0000302 0.0007300 0.0009794 0.0037918 0.0057297 -0.0081179 -0.0062229 0.0173634
-0.0044318 0.0206422 -0.0129372 0.0223916 0.0055298 -0.0064293 0.0069808 -0.0177117 -0.0001554 0.0004338 -0.0001277 0.0001895 -0.0000084 0.0006746 0.0000656 0.0042597 0.0054684 -0.0157076 -0.0029893 0.0079055
-0.0001690 0.0156048 -0.0042755 0.0127495 0.0073874 -0.0181424 0.0009570 -0.0156432 -0.0001755 0.0002777 -0.0001260 0.0000967 0.0000018 0.0006039 0.0002122 0.0033929 0.0045264 -0.0021535 0.0055752 -0.0148209
0.0047888 0.0055898 0.0042594 -0.0036212 0.0019197 -0.0080442 -0.0082759 0.0034510 -0.0002401 0.0000432 -0.0001294 0.0001277 -0.0000044 0.0005688 0.0007504 0.0031079 0.0031453 -0.0011843 -0.0036144 -0.0002541
-0.0062940 0.0114783 -0.0065768 -0.0077976 0.0025524 -0.0064000 -0.0075548 0.0198183 -0.0003172 -0.0001300 -0.0001188 0.0002231 -0.0000267 0.0005823 0.0016148 0.0027352 -0.0042430 -0.0063386 -0.0295796 0.0277301
-0.0310000 0.0278141 0.0006674 -0.0117323 0.0010706 -0.0087967 -0.0068011 0.0140665 -0.0003843 -0.0002728 -0.0001052 0.0002973 -0.0000447 0.0005950 0.0012535 0.0029028 -0.0025796 0.0004042 -0.0135584 0.0026108
-0.0071877 0.0015140 0.0002914 -0.0024836 0.0010685 0.0071190 -0.0086453 0.0122194 -0.0004341 -0.0003678 -0.0000990 0.0003230 -0.0000148 0.0006221 0.0004084 0.0038624 -0.0077488 0.0113706 -0.0131043 0.0127855
0.0010427 -0.0154201 0.0039615 -0.0099990 0.0029451 0.0114173 0.0049604 0.0030640 -0.0005180 -0.0006078 -0.0001036 0.0003185 0.0000085 0.0006740 0.0001373 0.0041885 -0.0095329 0.0075104 -0.0045821 0.0165611
-0.0053464 0.0005109 0.0010167 -0.0053473 -0.0022635 0.0102306 0.0062328 -0.0092949 -0.0005985 -0.0009348 -0.0000999 0.0003115 0.0000278 0.0006274 0.0006011 0.0040417 0.0012927 -0.0007596 -0.0007521 0.0080140
0.0085951 -0.0219459 -0.0037919 0.0034723 -0.0031289 -0.0028462 -0.0074400 -0.0048054 -0.0005832 -0.0010410 -0.0001098 0.0002524 0.0000497 0.0005701 0.0018545 0.0023914 0.0049263 -0.0110098 -0.0103901 0.0042330
0.0093033 -0.0197973 -0.0032391 0.0047593 0.0158768 -0.0356895 -0.0145930 0.0028991 -0.0005197 -0.0009378 -0.0001392 0.0001266 0.0000523 0.0005968 0.0024269 0.0020024 0.0076769 -0.0251443 -0.0113385 0.0015058
-0.0023891 0.0040006 -0.0034368 0.0091057 0.0133642 -0.0313358 -0.0276555 0.0268278 -0.0004152 -0.0006023 -0.0001758 -0.0000632 0.0000525 0.0006048 0.0021888 0.0032515 -0.0028804 0.0001612 -0.0079750 0.0152992
-0.0035266 -0.0118368 0.0047111 0.0040049 -0.0004436 0.0039996 -0.0045181 0.0052535 -0.0003389 -0.0003577 -0.0001642 -0.0000311 0.0000319 0.0005603 0.0015960 0.0033821 -0.0038171 0.0055053 0.0025268 0.0047402
-0.0082218 -0.0004883 0.0083545 -0.0060505 -0.0036609 0.0058697 0.0133563 -0.0185644 -0.0002996 -0.0002347 -0.0001295 0.0001086 0.0000162 0.0004520 0.0010304 0.0030389 0.0035169 -0.0092924 0.0088752 -0.0162014
-0.0031241 0.0086640 0.0043009 -0.0045123 0.0020464 -0.0025874 0.0088195 -0.0148319 -0.0002443 -0.0001767 -0.0001426 -0.0000286 0.0000308 0.0002789 0.0008187 0.0033294 0.0003019 -0.0012466 -0.0003644 -0.0007155
0.0044483 0.0019269 0.0028973 -0.0116559 0.0075966 -0.0049220 -0.0043413 0.0025278 -0.0002259 -0.0002929 -0.0001586 -0.0002002 0.0000336 0.0001427 0.0007325 0.0035089 -0.0044634 0.0103272 -0.0060624 0.0128736
0.0030449 0.0032472 -0.0105170 0.0103893 0.0098690 -0.0189808 -0.0045512 0.0112143 -0.0002276 -0.0004100 -0.0001540 -0.0002707 -0.0000114 0.0000940 0.0013581 0.0023596 -0.0006927 0.0025822 -0.0118268 0.0121548
0.0042432 -0.0118405 -0.0037677 0.0041762 -0.0041997 0.0060891 0.0014589 0.0060007 -0.0002415 -0.0004929 -0.0001580 -0.0003097 -0.0000402 0.0000793 0.0020884 0.0016845 -0.0004267 0.0058694 -0.0037632 -0.0006915
0.0001131 0.0010147 0.0095440 -0.0139806 -0.0009497 0.0090775 0.0023234 0.0115176 -0.0002535 -0.0005329 -0.0001494 -0.0002880 -0.0000341 0.0000766 0.0016639 0.0026563 0.0040685 -0.0021237 0.0026615 0.0017866
-0.0002836 0.0064330 0.0045547 -0.0038574 0.0055523 -0.0073273 0.0006704 0.0077394 -0.0002542 -0.0005274 -0.0001498 -0.0002461 -0.0000011 0.0000677 0.0005195 0.0037361 0.0002898 0.0001133 0.0017808 0.0056186
0.0106819 -0.0160262 0.0014462 -0.0076056 -0.0164175 0.0153119 0.0015788 -0.0022979 -0.0002529 -0.0005196 -0.0001693 -0.0002731 0.0000125 0.0000740 0.0002453 0.0039375 -0.0122304 0.0127746 0.0057029 -0.0068301
0.0074579 -0.0049926 0.0054543 -0.0159171 -0.0155843 0.0201132 0.0001798 0.0026819 -0.0002392 -0.0006105 -0.0001650 -0.0003806 0.0000243 0.0000590 0.0009536 0.0028801 -0.0109132 0.0067843 0.0017432 -0.0097667
0.0017909 0.0015139 0.0080924 -0.0215558 0.0003527 -0.0087881 -0.0089885 0.0158042 -0.0002071 -0.0007308 -0.0001566 -0.0004663 0.0000466 0.0000580 0.0020583 0.0018257 0.0020103 0.0000384 -0.0078154 -0.0095853
-0.0060253 0.0058468 -0.0057868 0.0074446 -0.0000830 -0.0081236 -0.0068342 0.0122239 -0.0001783 -0.0007714 -0.0001669 -0.0005377 0.0000200 0.0000667 0.0021980 0.0023111 0.0087894 -0.0147300 -0.0072069 0.0009796
-0.0114858 0.0179486 -0.0183681 0.0204148 -0.0003371 -0.0025803 -0.0024983 0.0009993 -0.0001895 -0.0007804 -0.0001669 -0.0005433 -0.0000183 0.0000237 0.0017433 0.0026178 0.0054548 -0.0183007 -0.0020037 0.0078154
-0.0050655 0.0031738 -0.0246781 0.0299577 -0.0027879 0.0027164 -0.0056008 0.0113612 -0.0002214 -0.0008008 -0.0001640 -0.0005097 -0.0000025 0.0000157 0.0013070 0.0028669 0.0113255 -0.0299900 0.0089214 -0.0094580
0.0075319 -0.0186523 -0.0052153 0.0110922 -0.0066838 0.0156398 0.0029040 -0.0008128 -0.0002135 -0.0007754 -0.0001678 -0.0004823 0.0000488 0.0001009 0.0006390 0.0038209 -0.0012447 0.0025584 0.0135179 -0.0217371
-0.0021506 0.0058761 0.0035716 -0.0139462 0.0002492 0.0020493 0.0064033 -0.0089982 -0.0001998 -0.0007151 -0.0001855 -0.0004142 0.0000647 0.0001671 0.0004891 0.0039930 -0.0022726 0.0119324 -0.0032575 0.0020621
-0.0053018 0.0104502 -0.0025537 -0.0011006 0.0126805 -0.0249079 0.0029059 -0.0018886 -0.0002246 -0.0008560 -0.0001825 -0.0004151 0.0000346 0.0001231 0.0013886 0.0030111 -0.0065952 0.0113392 -0.0068968 0.0093284
0.0092993 -0.0095133 0.0010604 0.0066151 0.0044678 -0.0011649 0.0069147 -0.0055228 -0.0002642 -0.0010869 -0.0001820 -0.0005562 -0.0000157 -0.0000267 0.0022302 0.0018739 -0.0117667 0.0153758 0.0020760 -0.0036308
-0.0007991 0.0038437 0.0016853 0.0051410 -0.0029314 0.0120191 -0.0019065 0.0002647 -0.0003093 -0.0011825 -0.0002111 -0.0006887 -0.0000741 -0.0001729 0.0018330 0.0022636 0.0001905 -0.0041959 0.0053572 -0.0057132
-0.0106235 0.0167925 0.0032398 -0.0022933 -0.0037207 0.0037963 -0.0233553 0.0160923 -0.0003448 -0.0012011 -0.0002082 -0.0006613 -0.0000855 -0.0002213 0.0010221 0.0029467 -0.0012953 -0.0048199 0.0002091 0.0067995
-0.0049777 0.0175884 -0.0042674 0.0065391 0.0030341 -0.0046040 -0.0107535 0.0099076 -0.0003405 -0.0011772 -0.0002129 -0.0006005 -0.0000531 -0.0002340 0.0005109 0.0028509 -0.0057235 0.0091554 -0.0022363 0.0051996
-0.0147313 0.0265047 -0.0091570 0.0061337 -0.0014104 0.0076882 -0.0017418 -0.0042951 -0.0003221 -0.0011244 -0.0002371 -0.0005576 -0.0000426 -0.0002254 0.0005191 0.0025827 0.0004076 0.0073288 0.0018501 -0.0093795
-0.0347033 0.0265700 0.0026241 -0.0020138 -0.0008883 0.0078118 0.0013233 -0.0078727 -0.0003237 -0.0010549 -0.0002611 -0.0005080 -0.0000548 -0.0001980 0.0008122 0.0031057 0.0058126 -0.0008566 -0.0103445 0.0078523
0.0079935 -0.0237406 0.0152266 -0.0219888 0.0126266 -0.0150000 -0.0083960 0.0106751 -0.0003009 -0.0010528 -0.0002743 -0.0005437 -0.0000792 -0.0002288 0.0012598 0.0033049 0.0081087 -0.0158076 -0.0125257 0.0103310
0.0113748 -0.0141304 0.0022197 -0.0115926 0.0010785 0.0061406 -0.0008753 0.0047730 -0.0002986 -0.0010891 -0.0002609 -0.0006509 -0.0000995 -0.0002887 0.0012407 0.0026348 0.0054825 -0.0194746 0.0010854 -0.0167388
-0.0046075 0.0126232 -0.0079534 0.0040277 -0.0082586 0.0189437 0.0046204 -0.0050350 -0.0003239 -0.0010882 -0.0002443 -0.0006932 -0.0000988 -0.0003034 0.0010955 0.0023314 -0.0100899 0.0086844 0.0125731 -0.0280952
-0.0085192 0.0185427 0.0050837 -0.0075431 -0.0039154 0.0087506 -0.0029198 0.0054369 -0.0003306 -0.0010630 -0.0002572 -0.0006764 -0.0000959 -0.0002828 0.0005089 0.0030242 -0.0085098 0.0047830 0.0125698 -0.0111563
-0.0100144 0.0172113 -0.0072629 0.0098271 -0.0065488 0.0001409 0.0023770 -0.0045147 -0.0003268 -0.0010246 -0.0002766 -0.0006491 -0.0000893 -0.0002582 0.0005388 0.0033348 -0.0055218 0.0009893 0.0030710 0.0077854
-0.0006447 0.0019217 -0.0227832 0.0280640 -0.0021398 -0.0022460 0.0161751 -0.0350923 -0.0002977 -0.0009864 -0.0002960 -0.0006121 -0.0000799 -0.0002347 0.0015721 0.0020474 -0.0142849 0.0196442 -0.0104489 0.0149367
0.0002094 -0.0059192 -0.0087768 0.0150824 -0.0081637 0.0144405 0.0268368 -0.0523805 -0.0002744 -0.0009064 -0.0003116 -0.0005516 -0.0000870 -0.0001771 0.0017590 0.0019761 -0.0030277 0.0025168 -0.0072752 0.0058747
-0.0152286 0.0092475 0.0085748 -0.0140353 -0.0105552 0.0077355 0.0089607 -0.0135404 -0.0002633 -0.0008311 -0.0002893 -0.0005168 -0.0001146 -0.0001334 0.0015791 0.0027259 0.0066638 -0.0085959 0.0066012 -0.0102484
0.0165666 -0.0228206 0.0173182 -0.0292948 0.0060103 -0.0159517 0.0070980 -0.0099579 -0.0002673 -0.0008226 -0.0002632 -0.0005791 -0.0001418 -0.0001489 0.0013088 0.0025904 0.0029289 -0.0009433 0.0038189 -0.0013910
0.0148938 -0.0211296 0.0098976 -0.0206913 -0.0021003 0.0042538 0.0165525 -0.0261373 -0.0002613 -0.0008289 -0.0002745 -0.0006317 -0.0001243 -0.0001907 0.0007951 0.0027551 0.0088128 -0.0125673 0.0082402 -0.0104586
-0.0033600 -0.0004652 0.0103439 -0.0172829 -0.0012748 0.0135438 0.0017187 0.0050780 -0.0002466 -0.0008149 -0.0002817 -0.0005902 -0.0000939 -0.0001938 0.0005760 0.0031328 0.0062202 -0.0175470 0.0106417 -0.0246648
-0.0007845 -0.0032645 0.0214035 -0.0307377 0.0087853 -0.0036089 -0.0017987 0.0144478 -0.0002484 -0.0007737 -0.0002928 -0.0005438 -0.0000825 -0.0001623 0.0003750 0.0039217 -0.0069788 0.0059187 -0.0097144 0.0061323
-0.0082608 0.0047293 0.0147875 -0.0277267 0.0115592 -0.0134362 0.0001959 0.0062694 -0.0002443 -0.0007025 -0.0003038 -0.0004948 -0.0000956 -0.0001028 0.0007467 0.0036747 -0.0006137 0.0065627 -0.0122126 -0.0064257
0.0073713 -0.0083779 0.0032573 -0.0116181 0.0066292 -0.0010468 0.0027598 -0.0050127 -0.0002406 -0.0006284 -0.0002846 -0.0004418 -0.0001181 -0.0000424 0.0015121 0.0022788 0.0023598 -0.0013985 -0.0137459 -0.0009466
0.0057924 -0.0046968 0.0134788 -0.0229757 0.0002982 0.0063366 0.0028465 0.0012930 -0.0002343 -0.0005741 -0.0002682 -0.0003854 -0.0001252 -0.0000116 0.0014446 0.0025837 0.0077915 -0.0186723 -0.0075799 0.0118530
-0.0080865 0.0066318 0.0226017 -0.0405650 -0.0027055 0.0065175 -0.0017608 0.0082402 -0.0002392 -0.0005548 -0.0002698 -0.0004440 -0.0001000 -0.0000359 0.0005780 0.0038022 -0.0002219 0.0023717 0.0041956 -0.0013860
-0.0021361 0.0015070 0.0055075 -0.0055671 0.0064025 -0.0135642 0.0031121 -0.0055296 -0.0002372 -0.0005633 -0.0002876 -0.0005303 -0.0000806 -0.0000920 0.0004459 0.0038192 -0.0095955 0.0144307 0.0053668 -0.0009776
-0.0036246 -0.0033385 -0.0029523 0.0154206 0.0004717 -0.0067208 0.0106830 -0.0188740 -0.0002243 -0.0005771 -0.0002856 -0.0004958 -0.0000748 -0.0001191 0.0006901 0.0032667 -0.0066776 0.0118698 -0.0041475 0.0035828
-0.0061469 -0.0089337 -0.0004395 0.0046270 -0.0091871 -0.0027080 0.0077975 -0.0135945 -0.0002107 -0.0005752 -0.0002755 -0.0004850 -0.0000972 -0.0000740 0.0015617 0.0021769 0.0032349 0.0036991 -0.0140722 0.0035744
0.0027531 -0.0065759 0.0143137 -0.0320702 0.0083445 -0.0356396 0.0027800 -0.0025517 -0.0002114 -0.0005329 -0.0002841 -0.0004472 -0.0001328 -0.0000092 0.0018061 0.0026652 0.0066888 -0.0148990 -0.0191660 0.0113810
0.0008002 0.0063575 0.0230567 -0.0533758 0.0122828 -0.0256146 -0.0017471 -0.0049059 -0.0002325 -0.0004690 -0.0002750 -0.0003756 -0.0001235 0.0000077 0.0013535 0.0033046 -0.0045533 0.0117904 -0.0049594 0.0056513
0.0037700 0.0026661 -0.0012063 -0.0058741 0.0167843 -0.0324779 0.0005931 -0.0173902 -0.0002335 -0.0004136 -0.0002715 -0.0003530 -0.0000954 0.0000213 0.0012529 0.0027794 -0.0001215 0.0054891 0.0112506 -0.0092825
0.0144866 -0.0107943 -0.0065721 0.0168695 0.0092828 -0.0136927 -0.0036283 0.0105527 -0.0002233 -0.0004296 -0.0002816 -0.0004088 -0.0000813 -0.0000112 0.0006136 0.0034137 0.0126856 -0.0342137 0.0126991 -0.0141446
0.0160055 -0.0210959 -0.0116288 0.0192032 0.0099595 -0.0113898 -0.0035182 0.0159171 -0.0002143 -0.0004958 -0.0002909 -0.0004777 -0.0000904 -0.0000750 0.0000521 0.0040998 0.0032126 -0.0103866 0.0072280 -0.0061544
0.0075598 -0.0228681 -0.0050428 -0.0014192 0.0075940 -0.0132338 -0.0022093 0.0034690 -0.0001996 -0.0005215 -0.0003010 -0.0005080 -0.0000920 -0.0000864 0.0008243 0.0035615 -0.0059226 0.0109652 -0.0017008 0.0088026
-0.0068310 0.0043736 0.0074467 -0.0185725 0.0057516 -0.0047173 0.0010387 0.0031172 -0.0001902 -0.0005088 -0.0003004 -0.0004928 -0.0000826 -0.0000688 0.0020357 0.0025037 -0.0119096 0.0233517 -0.0120311 0.0177439
-0.0041696 0.0008588 -0.0028768 0.0047771 0.0173891 -0.0264148 0.0031713 0.0093159 -0.0002073 -0.0004547 -0.0002795 -0.0004419 -0.0000994 -0.0000258 0.0017843 0.0035181 0.0007175 0.0057628 -0.0070684 0.0064870
-0.0062293 0.0079025 0.0066428 -0.0047337 0.0064323 -0.0061349 0.0038882 0.0120181 -0.0002222 -0.0003874 -0.0002587 -0.0003802 -0.0001125 0.0000330 0.0009834 0.0045442 0.0100777 -0.0228677 -0.0054155 0.0113351
-0.0043774 0.0044160 0.0135020 -0.0153094 -0.0004463 0.0090739 0.0047942 0.0035438 -0.0002224 -0.0003446 -0.0002568 -0.0003195 -0.0000824 0.0000529 0.0003307 0.0037229 -0.0043386 -0.0014120 0.0016730 0.0035891
-0.0025852 0.0049071 -0.0010166 0.0077005 -0.0005150 0.0136545 0.0077855 -0.0201945 -0.0002065 -0.0003734 -0.0002601 -0.0003660 -0.0000529 -0.0000025 0.0003513 0.0026317 -0.0012968 0.0018791 0.0068107 -0.0041781
-0.0065909 0.0146284 0.0014146 0.0060300 0.0054306 0.0028672 0.0066573 0.0004569 -0.0001956 -0.0004529 -0.0002760 -0.0005025 -0.0000447 -0.0000884 0.0006650 0.0038989 0.0003435 -0.0009515 -0.0065130 0.0184168
0.0011841 -0.0053592 0.0045194 0.0053571 0.0058001 0.0042299 -0.0016948 0.0211077 -0.0002029 -0.0004880 -0.0002919 -0.0005825 -0.0000610 -0.0001162 0.0012641 0.0042909 -0.0000119 -0.0061845 -0.0151382 0.0212228
-0.0073530 0.0049531 -0.0001332 0.0057052 0.0035332 0.0054234 -0.0122415 0.0219468 -0.0002062 -0.0004825 -0.0002784 -0.0005764 -0.0000881 -0.0001187 0.0014836 0.0031069 0.0106579 -0.0217852 -0.0044267 0.0031410
-0.0048751 0.0098774 0.0123489 -0.0208756 0.0071540 -0.0033299 0.0041485 -0.0030760 -0.0002183 -0.0004724 -0.0002595 -0.0005353 -0.0000780 -0.0001209 0.0011398 0.0033674 0.0055001 -0.0069539 -0.0006062 0.0113066
0.0001218 0.0065979 0.0176499 -0.0380576 0.0022854 0.0047407 0.0063620 0.0007191 -0.0002403 -0.0004381 -0.0002592 -0.0005016 -0.0000791 -0.0000830 0.0009992 0.0037033 -0.0078303 0.0143581 0.0034280 0.0068197
-0.0009436 -0.0053197 0.0042188 -0.0064694 -0.0013034 0.0024180 0.0021079 0.0046520 -0.0002440 -0.0003828 -0.0002781 -0.0004805 -0.0000858 -0.0000556 0.0011746 0.0035017 -0.0059428 0.0079815 -0.0056302 0.0079031
0.0100805 -0.0250998 0.0016087 0.0023007 -0.0093707 0.0156476 0.0037172 -0.0042056 -0.0002332 -0.0004171 -0.0002856 -0.0005295 -0.0000628 -0.0001398 0.0014580 0.0030083 -0.0010037 0.0002782 -0.0318941 0.0271834
-0.0001389 0.0003474 0.0024873 0.0002949 -0.0070095 0.0110129 -0.0036392 0.0032852 -0.0002185 -0.0005225 -0.0002895 -0.0006324 -0.0000620 -0.0002419 0.0016823 0.0029880 -0.0044390 -0.0057436 -0.0091084 0.0002007
-0.0090605 0.0159124 -0.0059066 0.0172112 0.0001813 0.0057835 -0.0045056 0.0022698 -0.0002248 -0.0005667 -0.0002926 -0.0006877 -0.0000909 -0.0002497 0.0015824 0.0035626 -0.0189145 0.0065560 0.0078176 -0.0088161
-0.0023301 0.0089257 -0.0146364 0.0281187 0.0026425 0.0101231 -0.0044129 0.0142049 -0.0002500 -0.0005821 -0.0002835 -0.0007276 -0.0001029 -0.0002392 0.0010060 0.0040065 -0.0027701 -0.0045009 0.0086457 -0.0073333
0.0058826 -0.0108577 0.0003395 0.0022357 -0.0004903 0.0143209 -0.0001404 0.0118349 -0.0002581 -0.0005975 -0.0002872 -0.0007220 -0.0000893 -0.0002558 0.0008411 0.0034106 0.0034607 -0.0074963 0.0090644 -0.0219973
0.0017643 0.0058198 0.0097346 -0.0143105 -0.0000316 0.0088542 -0.0002140 -0.0020387 -0.0002613 -0.0005804 -0.0002946 -0.0006718 -0.0000653 -0.0002593 0.0006679 0.0036495 -0.0096734 0.0148541 0.0016781 -0.0107453
0.0032199 0.0064103 0.0015069 0.0053431 0.0062857 0.0049444 -0.0057072 0.0039590 -0.0002731 -0.0005427 -0.0002992 -0.0006237 -0.0000512 -0.0002219 0.0006072 0.0041975 -0.0049189 0.0003989 -0.0122164 0.0134314
-0.0021514 -0.0013130 -0.0006575 -0.0014477 0.0040599 0.0084926 0.0017612 -0.0016914 -0.0002691 -0.0005605 -0.0002984 -0.0006686 -0.0000783 -0.0002181 0.0010772 0.0036876 -0.0078076 0.0037341 -0.0251141 0.0229538
-0.0121314 0.0085832 -0.0065752 -0.0149126 0.0008791 0.0034005 0.0042262 0.0050800 -0.0002522 -0.0006559 -0.0002930 -0.0008040 -0.0000895 -0.0003145 0.0017341 0.0026506 -0.0316875 0.0255505 -0.0176244 0.0140686
-0.0095635 0.0091261 0.0048038 -0.0155005 -0.0036317 0.0187638 -0.0019587 0.0172749 -0.0002652 -0.0007471 -0.0002902 -0.0008676 -0.0000921 -0.0003788 0.0015130 0.0030256 -0.0085387 -0.0093984 0.0016871 -0.0025324
-0.0119054 0.0124214 0.0052037 -0.0048526 -0.0069229 0.0258223 -0.0048344 0.0163112 -0.0003038 -0.0008335 -0.0002928 -0.0008393 -0.0000909 -0.0003782 0.0003637 0.0044581 -0.0009959 0.0025628 0.0144701 -0.0239908
0.0051744 -0.0034382 0.0045810 -0.0099446 0.0002785 0.0096259 0.0021564 -0.0011945 -0.0003644 -0.0009560 -0.0002792 -0.0007378 -0.0000755 -0.0003635 0.0004400 0.0038098 -0.0028155 0.0040072 0.0117783 -0.0238204
0.0104485 -0.0130108 0.0017230 -0.0045985 0.0050016 -0.0063361 0.0066356 -0.0170513 -0.0004368 -0.0011629 -0.0002630 -0.0006055 -0.0000721 -0.0002859 0.0009173 0.0029273 0.0082903 -0.0270001 -0.0033741 -0.0049291
-0.0013872 0.0073257 -0.0028755 0.0048215 -0.0023073 -0.0048569 0.0106621 -0.0256177 -0.0005077 -0.0013690 -0.0002580 -0.0004925 -0.0000862 -0.0001574 0.0014227 0.0025080 0.0103832 -0.0220163 -0.0103493 0.0043257
-0.0081388 0.0167615 0.0099679 -0.0076500 -0.0022347 0.0147937 -0.0009318 0.0071814 -0.0006365 -0.0017265 -0.0002112 -0.0002749 -0.0000924 0.0000855 0.0017314 0.0033430 0.0044549 -0.0092507 -0.0056815 0.0080556
-0.0049413 0.0006862 0.0163985 -0.0228736 0.0019168 0.0119007 0.0025860 0.0136520 -0.0002181 -0.0003957 0.0000326 0.0009077 0.0000425 0.0010346 0.0016302 0.0036100 -0.0077593 0.0052103 -0.0009629 0.0007894
0.0013196 0.0020042 0.0092326 -0.0219571 0.0011657 0.0089181 0.0035865 0.0043422 0.0003501 0.0012392 0.0002784 0.0019989 0.0001707 0.0017285 0.0013613 0.0019557 -0.0092401 0.0067582 0.0100452 -0.0131310
-0.0004211 0.0108469 -0.0049532 0.0044159 0.0047596 -0.0013053 -0.0086455 0.0042290 0.0004238 0.0013233 0.0003165 0.0020832 0.0001254 0.0016077 0.0003613 0.0020545 -0.0076024 0.0081036 0.0117776 -0.0176401
0.0009908 0.0052409 -0.0070212 -0.0002996 0.0040813 -0.0130216 -0.0068348 0.0019575 0.0004150 0.0012753 0.0002889 0.0020225 0.0000792 0.0015203 -0.0000692 0.0028523 -0.0111774 0.0054233 0.0018425 -0.0059350
0.0035698 0.0044560 0.0067721 -0.0482779 -0.0162938 0.0125863 -0.0152833 0.0128534 0.0004298 0.0012603 0.0002744 0.0019971 0.0000787 0.0015598 0.0011668 0.0017779 -0.0016189 -0.0119250 -0.0051505 0.0097489
-0.0021999 0.0067588 -0.0122039 0.0017885 -0.0066162 -0.0047167 -0.0227270 0.0236644 0.0003642 0.0010804 0.0002466 0.0018189 0.0000921 0.0015845 0.0024141 0.0002681 0.0061885 -0.0165674 -0.0039826 0.0034294
-0.0052428 0.0036172 -0.0176953 0.0213304 0.0034193 -0.0208203 -0.0196879 0.0232131 0.0001773 0.0005987 0.0002500 0.0016424 0.0001028 0.0014720 0.0016617 0.0008373 0.0129547 -0.0259276 0.0037310 -0.0074138
0.0066400 -0.0155360 -0.0038063 -0.0005971 -0.0067288 0.0004630 -0.0285145 0.0281012 0.0000120 0.0001095 0.0002581 0.0014784 0.0001228 0.0013064 0.0000265 0.0026947 0.0057474 -0.0187859 -0.0022441 0.0079838
0.0113055 -0.0218623 0.0047812 -0.0136116 -0.0053753 0.0069982 -0.0107288 0.0094935 -0.0000315 -0.0000356 0.0001993 0.0012064 0.0001563 0.0011144 -0.0008706 0.0031019 -0.0134907 0.0157592 -0.0054900 0.0128303
-0.0001337 0.0008309 -0.0072998 0.0128193 0.0108959 -0.0216433 0.0031884 -0.0014086 -0.0000026 0.0000369 0.0001423 0.0010682 0.0001475 0.0010024 -0.0006117 0.0020329 -0.0080282 0.0182849 -0.0015028 0.0068206
-0.0046921 -0.0013578 0.0023469 -0.0007673 0.0127318 -0.0337325 0.0084129 -0.0084761 0.0000254 0.0001435 0.0000795 0.0009271 0.0001304 0.0009990 0.0007964 0.0007728 0.0048238 -0.0008807 -0.0039175 0.0021880
0.0105775 -0.0210898 0.0150258 -0.0210063 0.0080019 -0.0184348 0.0055620 -0.0101566 0.0000478 0.0002539 0.0000159 0.0007817 0.0001349 0.0010217 0.0016748 0.0006622 0.0048677 0.0006154 -0.0086497 0.0111926
0.0084642 -0.0109181 0.0037351 -0.0006706 0.0093134 -0.0154184 -0.0100334 0.0148786 0.0000434 0.0002730 0.0000004 0.0006749 0.0001275 0.0010473 0.0007271 0.0020266 -0.0027497 0.0159797 0.0004271 0.0066681
0.0053729 -0.0103114 0.0033503 0.0035493 -0.0037548 0.0059307 -0.0072286 0.0081764 -0.0000176 0.0000296 0.0000023 0.0005780 0.0001384 0.0010106 0.0001164 0.0013777 -0.0145672 0.0246578 0.0140026 -0.0159091
0.0010530 -0.0053828 0.0032906 0.0027036 -0.0081745 0.0172793 0.0003973 -0.0125193 -0.0001513 -0.0004288 0.0000471 0.0007628 0.0001518 0.0010654 -0.0000342 0.0011045 -0.0188163 0.0264051 0.0108234 -0.0099744
-0.0040258 0.0040787 -0.0011602 0.0041551 -0.0071139 0.0113876 -0.0208617 0.0125419 -0.0001801 -0.0003560 0.0001173 0.0011199 0.0001661 0.0013086 0.0003506 0.0018614 -0.0144693 0.0149866 -0.0030643 0.0042930
-0.0006293 -0.0096500 -0.0031867 0.0113979 -0.0085503 0.0031965 -0.0076041 0.0069714 -0.0001447 -0.0001982 0.0001227 0.0012820 0.0001707 0.0014742 0.0007439 0.0016596 -0.0161040 0.0112507 -0.0094024 0.0146004
-0.0017498 -0.0123901 -0.0035453 0.0101341 -0.0159649 0.0132268 -0.0014926 0.0006452 -0.0001957 -0.0003691 0.0001081 0.0013532 0.0001268 0.0014841 0.0007889 0.0013384 -0.0049500 0.0104201 -0.0047957 0.0050479
-0.0073345 -0.0018926 -0.0021961 0.0070742 -0.0224274 0.0195696 -0.0135680 0.0093028 -0.0001689 -0.0002681 0.0001275 0.0014084 0.0000914 0.0014188 0.0007015 0.0006018 0.0021788 -0.0008265 0.0039853 -0.0070957
-0.0054325 0.0036814 -0.0026494 0.0083663 -0.0094912 0.0057102 -0.0061561 0.0094366 -0.0000931 -0.0001128 0.0001622 0.0013991 0.0000785 0.0013384 -0.0002128 0.0010325 0.0072204 -0.0174919 0.0030180 0.0035937
-0.0024301 0.0008779 -0.0006175 -0.0045040 -0.0042462 0.0043208 -0.0001142 0.0059180 -0.0000164 -0.0000029 0.0001762 0.0014295 0.0001004 0.0013013 -0.0006862 0.0013472 0.0027861 -0.0099352 0.0059415 -0.0008337
0.0001062 -0.0172448 0.0020526 -0.0157852 -0.0087282 0.0119496 0.0050489 -0.0117156 0.0000498 0.0000961 0.0001845 0.0014929 0.0001167 0.0013215 0.0002126 -0.0000417 -0.0081832 0.0112421 -0.0018694 0.0035957
0.0046840 -0.0242908 -0.0061263 -0.0004741 -0.0022515 0.0037023 -0.0068518 -0.0007720 0.0000636 0.0001392 0.0001952 0.0015554 0.0000993 0.0013882 0.0011990 -0.0004660 -0.0045577 0.0053510 -0.0209255 0.0179785
-0.0058430 -0.0109096 -0.0012914 -0.0001673 -0.0095601 0.0117688 -0.0111356 -0.0045033 0.0000456 0.0001679 0.0002157 0.0016150 0.0000682 0.0014709 0.0016245 -0.0002932 0.0008872 -0.0032702 -0.0129736 0.0190435
-0.0093186 -0.0037924 0.0012883 0.0014209 -0.0203908 0.0126057 -0.0033021 -0.0092696 0.0000228 0.0001647 0.0002413 0.0016335 0.0000670 0.0015023 0.0011026 -0.0000601 -0.0039721 -0.0005649 -0.0065093 0.0130793
0.0022663 -0.0230796 -0.0054284 0.0146071 -0.0004724 -0.0227570 0.0010607 -0.0000462 0.0000327 0.0001217 0.0002599 0.0015891 0.0001081 0.0014583 -0.0000117 0.0009699 -0.0045629 0.0074111 0.0021459 -0.0103619
0.0029956 -0.0291579 0.0032677 0.0068563 -0.0095822 -0.0048416 0.0123184 -0.0192335 0.0000782 0.0001157 0.0002648 0.0015403 0.0001707 0.0014368 -0.0008988 0.0013967 -0.0051477 0.0239018 0.0080677 -0.0076222
-0.0055649 0.0117579 0.0019681 0.0002546 0.0088515 -0.0210288 0.0029281 -0.0079921 0.0001333 0.0001891 0.0002599 0.0015193 0.0001968 0.0014732 -0.0003020 0.0013500 -0.0039680 0.0201314 0.0004550 0.0084785
-0.0079744 0.0227562 -0.0072626 0.0027827 0.0158852 -0.0352267 -0.0036572 0.0010887 0.0001535 0.0002512 0.0002699 0.0015673 0.0001859 0.0014730 0.0006518 0.0012701 0.0016855 -0.0085080 -0.0106309 0.0075177
-0.0116591 0.0173368 -0.0157509 0.0185237 -0.0025687 -0.0050869 0.0037665 -0.0105395 0.0001310 0.0002596 0.0003098 0.0017328 0.0001404 0.0014462 0.0007780 0.0005634 0.0042835 -0.0129550 0.0007760 -0.0112340
