-0.0000000 -0.0000000 -0.0000000 -0.0000000 -0.0000000 -0.0000000 -0.0000000 -0.0000000 -0.0000000 -0.0000000 -0.0000000 -0.0000000 -0.0000000 -0.0000000 -0.0000000 -0.0000000 -0.0000000 -0.0000000 -0.0000000 -0.0000000
-0.0000000 -0.0000000 -0.0000000 -0.0000000 -0.0000000 -0.0000000 -0.0000000 -0.0000000 -0.0000000 -0.0000000 -0.0000000 -0.0000000 -0.0000000 -0.0000000 -0.0000000 -0.0000000 -0.0000000 -0.0000000 -0.0000000 -0.0000000
-0.0002694 0.0004090 0.0020965 -0.0007172 0.0023343 -0.0022444 -0.0000057 0.0000788 0.0001352 -0.0004506 -0.0000035 0.0000321 -0.0000126 0.0000109 -0.0004303 0.0004287 -0.0000087 0.0000212 -0.0000074 0.0000337
-0.0001740 0.0001780 0.0052717 -0.0058681 0.0115969 -0.0161552 -0.0000144 0.0000019 -0.0003697 0.0011636 -0.0000110 -0.0001519 -0.0000168 -0.0002083 -0.0000926 -0.0003699 -0.0000134 -0.0001621 -0.0000063 -0.0001239
-0.0003271 0.0001665 0.0042602 -0.0037370 0.0032866 0.0036102 -0.0000164 -0.0001774 -0.0009459 0.0031053 -0.0000018 -0.0002218 -0.0000100 -0.0002289 0.0006509 -0.0005471 0.0000022 -0.0001945 0.0000011 -0.0000907
-0.0003354 0.0001898 0.0020249 -0.0011239 0.0024894 0.0033441 -0.0000225 -0.0001925 -0.0003127 0.0009924 0.0000080 -0.0001005 -0.0000174 -0.0000969 0.0000626 -0.0001906 0.0000154 -0.0000958 -0.0000008 0.0000543
-0.0008046 0.0008182 0.0024584 -0.0016735 -0.0005680 -0.0033234 -0.0000434 -0.0001203 0.0004849 -0.0016008 -0.0000006 0.0000807 -0.0000374 0.0000863 -0.0006708 0.0005788 0.0000087 0.0000428 -0.0000202 0.0002306
-0.0008889 0.0010361 0.0024410 -0.0019697 0.0057112 -0.0132058 -0.0000812 -0.0000059 0.0005194 -0.0016325 -0.0000237 0.0001729 -0.0000713 0.0000590 -0.0003930 0.0000178 -0.0000159 0.0000168 -0.0000491 0.0001906
-0.0004120 0.0003881 0.0019695 -0.0015892 0.0072378 -0.0093006 -0.0001220 -0.0001158 -0.0001241 0.0004136 -0.0000525 -0.0000974 -0.0001255 -0.0003382 -0.0008889 0.0000762 -0.0000413 -0.0002628 -0.0000726 -0.0001248
-0.0004984 0.0004160 -0.0067106 0.0077074 0.0001741 0.0127754 -0.0001542 -0.0004808 -0.0008675 0.0027472 -0.0000645 -0.0004303 -0.0001493 -0.0006213 -0.0010045 -0.0000365 -0.0000167 -0.0004084 -0.0000734 -0.0002964
-0.0002020 0.0000374 -0.0095031 0.0073319 0.0008214 0.0065237 -0.0001644 -0.0006096 -0.0009536 0.0030060 -0.0000613 -0.0004128 -0.0001471 -0.0005351 -0.0015931 0.0005837 0.0000435 -0.0001335 -0.0000612 -0.0001250
0.0002261 -0.0003548 -0.0021066 -0.0000839 0.0061531 -0.0123969 -0.0001341 -0.0003608 -0.0001986 0.0005111 -0.0000595 -0.0001940 -0.0001438 -0.0002600 -0.0018081 0.0014687 0.0000643 0.0002626 -0.0000622 0.0001707
0.0003804 -0.0001438 -0.0064052 0.0051500 -0.0009410 0.0000592 -0.0001215 -0.0000541 0.0006521 -0.0022342 -0.0000516 0.0001245 -0.0001228 0.0001483 -0.0012181 0.0014960 0.0000168 0.0004793 -0.0000721 0.0003624
0.0002408 0.0002551 -0.0103686 0.0074869 -0.0144842 0.0085920 -0.0001515 0.0000211 0.0005951 -0.0020645 -0.0000550 0.0000897 -0.0001228 0.0000806 -0.0010612 0.0012898 -0.0000456 0.0003078 -0.0000784 0.0001765
0.0001735 0.0001376 -0.0052533 0.0024584 -0.0011724 -0.0048768 -0.0001722 -0.0001945 -0.0002810 0.0006596 -0.0000591 -0.0002988 -0.0001300 -0.0003821 -0.0002778 -0.0001991 -0.0000646 -0.0000434 -0.0000741 -0.0001482
0.0003689 -0.0004922 -0.0002412 -0.0030281 0.0068598 -0.0089089 -0.0001461 -0.0003859 -0.0010259 0.0031410 -0.0000349 -0.0004146 -0.0000927 -0.0003976 0.0009577 -0.0012038 -0.0000404 -0.0000743 -0.0000504 -0.0001208
0.0003853 -0.0003871 -0.0014937 0.0001668 0.0003100 0.0028119 -0.0001033 -0.0003052 -0.0007325 0.0023264 -0.0000003 -0.0002357 -0.0000416 -0.0001071 0.0009477 -0.0004867 -0.0000298 0.0000920 -0.0000344 0.0000739
-0.0003618 0.0006769 -0.0019574 0.0021835 0.0041879 -0.0033806 -0.0000868 -0.0001201 0.0001016 -0.0004086 0.0000150 0.0000356 -0.0000341 0.0002097 0.0002866 0.0003078 -0.0000526 0.0003190 -0.0000483 0.0003206
-0.0004224 0.0007797 0.0033979 -0.0028983 0.0096319 -0.0135451 -0.0001113 0.0000745 0.0007140 -0.0024270 0.0000055 0.0003321 -0.0000763 0.0005216 -0.0001785 0.0012368 -0.0000856 0.0005341 -0.0000768 0.0005386
0.0001011 0.0003323 0.0047719 -0.0039082 0.0037419 -0.0056792 -0.0001583 0.0001652 0.0006190 -0.0021467 -0.0000250 0.0002450 -0.0001212 0.0002994 0.0004034 0.0000242 -0.0001185 0.0004176 -0.0001038 0.0003615
-0.0002833 0.0003539 0.0004297 -0.0001210 -0.0015470 -0.0008849 -0.0001805 -0.0000165 -0.0002886 0.0006374 -0.0000435 -0.0001929 -0.0001332 -0.0002357 0.0010363 -0.0016196 -0.0001311 0.0001072 -0.0001077 0.0000189
-0.0006682 0.0004124 0.0013076 0.0000308 -0.0012847 0.0043679 -0.0001577 -0.0002072 -0.0010727 0.0031996 -0.0000233 -0.0003185 -0.0000898 -0.0002479 -0.0011933 0.0010063 -0.0001162 0.0000865 -0.0000854 0.0000334
-0.0005057 0.0003390 0.0066673 -0.0057949 0.0047273 -0.0012394 -0.0001186 -0.0001100 -0.0009661 0.0029768 0.0000074 -0.0001237 -0.0000368 0.0000279 -0.0014454 0.0016416 -0.0001144 0.0002418 -0.0000747 0.0002126
-0.0003193 0.0002311 0.0040549 -0.0045609 0.0062859 -0.0058151 -0.0001027 0.0001182 -0.0001756 0.0003864 0.0000177 0.0001542 -0.0000316 0.0003255 -0.0000922 0.0003566 -0.0001336 0.0004792 -0.0000957 0.0004892
-0.0004134 0.0005779 -0.0011751 0.0015252 -0.0032451 0.0063240 -0.0000837 0.0004697 0.0006598 -0.0023484 0.0000214 0.0004906 -0.0000477 0.0005758 -0.0009106 0.0010405 -0.0001911 0.0005890 -0.0001328 0.0006429
-0.0005254 0.0007727 -0.0015970 0.0014379 -0.0128512 0.0142481 -0.0000982 0.0005490 0.0002948 -0.0011777 0.0000304 0.0004614 -0.0000703 0.0003580 -0.0016516 0.0010764 -0.0002685 0.0002924 -0.0001704 0.0003771
-0.0002595 0.0003990 -0.0048397 0.0039864 -0.0236875 0.0271505 -0.0001595 0.0002176 -0.0004936 0.0013509 0.0000356 0.0001911 -0.0000939 -0.0000284 -0.0015551 0.0005472 -0.0002760 0.0000624 -0.0001864 0.0001531
-0.0000667 0.0000291 -0.0068702 0.0045412 -0.0124300 0.0140524 -0.0001784 0.0000762 -0.0003841 0.0010757 0.0000451 0.0002291 -0.0000887 0.0000551 -0.0007203 -0.0004200 -0.0002471 0.0002203 -0.0001810 0.0002935
-0.0001860 0.0003069 -0.0140242 0.0104476 -0.0014747 0.0106197 -0.0001713 0.0002296 0.0004302 -0.0015429 0.0000497 0.0004405 -0.0000784 0.0003591 -0.0007702 0.0004189 -0.0002453 0.0004645 -0.0001852 0.0005317
0.0000189 0.0005121 -0.0114593 0.0104930 -0.0026541 0.0151712 -0.0001902 0.0004512 0.0006220 -0.0021471 0.0000273 0.0006385 -0.0000990 0.0005084 -0.0013516 0.0018841 -0.0002578 0.0005567 -0.0001993 0.0005752
0.0005174 -0.0001208 -0.0053330 0.0041920 -0.0033849 0.0038624 -0.0002265 0.0003858 0.0003606 -0.0013407 -0.0000090 0.0003802 -0.0001297 0.0001642 -0.0002887 0.0004675 -0.0002609 0.0003300 -0.0002087 0.0003053
0.0002560 -0.0002420 -0.0051431 0.0052388 -0.0160273 0.0201291 -0.0002497 0.0000220 -0.0004431 0.0012337 -0.0000252 -0.0000479 -0.0001409 -0.0001989 0.0003638 -0.0008799 -0.0002391 0.0000767 -0.0001957 0.0001163
-0.0001550 0.0000103 -0.0001767 0.0010268 -0.0041923 0.0054876 -0.0002574 -0.0001889 -0.0002471 0.0006158 -0.0000174 -0.0000960 -0.0001430 -0.0001737 -0.0002603 -0.0004501 -0.0002195 0.0000429 -0.0001772 0.0001863
-0.0001698 -0.0000172 0.0039745 -0.0044858 0.0221460 -0.0381176 -0.0002560 -0.0001109 0.0006362 -0.0022342 -0.0000059 0.0001065 -0.0001602 -0.0000225 0.0000486 0.0000390 -0.0002434 0.0001248 -0.0001841 0.0003898
-0.0003873 0.0002097 0.0031022 -0.0018784 0.0113155 -0.0094889 -0.0002659 0.0001112 0.0005982 -0.0020931 -0.0000192 0.0003335 -0.0002223 -0.0000369 0.0010269 -0.0010022 -0.0002799 0.0001680 -0.0002178 0.0003990
-0.0004785 0.0000943 0.0016411 -0.0006237 0.0078328 -0.0080481 -0.0003103 -0.0000094 -0.0003542 0.0008556 -0.0000686 0.0000444 -0.0003120 -0.0004977 0.0001558 -0.0017329 -0.0002936 -0.0000834 -0.0002397 0.0000718
-0.0008479 0.0001136 0.0019582 -0.0017848 0.0141163 -0.0282368 -0.0003363 -0.0004491 -0.0011720 0.0033436 -0.0000940 -0.0004093 -0.0003354 -0.0009148 -0.0007682 -0.0013231 -0.0002536 -0.0003084 -0.0002197 -0.0001336
-0.0008756 0.0000544 0.0019985 -0.0020014 0.0084850 -0.0215006 -0.0003109 -0.0005895 -0.0011319 0.0031893 -0.0000890 -0.0004512 -0.0003003 -0.0008383 -0.0005926 -0.0008895 -0.0001840 -0.0000717 -0.0001795 -0.0000255
-0.0006436 0.0001509 0.0019570 -0.0011466 0.0040471 -0.0133852 -0.0002979 -0.0004427 -0.0010912 0.0032091 -0.0001082 -0.0003422 -0.0002747 -0.0005200 -0.0008813 0.0004643 -0.0001353 0.0003690 -0.0001529 0.0002692
-0.0007500 0.0008312 -0.0069720 0.0088999 -0.0005808 0.0061528 -0.0002978 -0.0001819 -0.0003092 0.0006748 -0.0001229 -0.0000594 -0.0002375 -0.0001506 -0.0008533 0.0005414 -0.0001206 0.0006258 -0.0001526 0.0004321
-0.0005281 0.0006590 -0.0096842 0.0084771 -0.0038465 0.0051470 -0.0003038 -0.0000742 -0.0003290 0.0006364 -0.0001249 -0.0000755 -0.0001956 -0.0002456 -0.0022762 0.0014253 -0.0001318 0.0004490 -0.0001581 0.0001972
-0.0000378 -0.0001841 -0.0024893 0.0003783 -0.0067504 -0.0002245 -0.0003146 -0.0002858 -0.0011493 0.0031453 -0.0001327 -0.0003941 -0.0001526 -0.0005456 -0.0024835 0.0017352 -0.0001279 0.0001610 -0.0001508 -0.0000717
0.0001321 -0.0003384 -0.0073250 0.0059216 -0.0036594 0.0094293 -0.0002929 -0.0003700 -0.0011340 0.0029858 -0.0001235 -0.0004021 -0.0000753 -0.0004441 -0.0010462 0.0003772 -0.0001255 0.0001364 -0.0001361 -0.0000900
0.0000682 -0.0000694 -0.0095525 0.0063857 -0.0034165 0.0096844 -0.0002631 -0.0002013 -0.0011152 0.0030147 -0.0001108 -0.0001962 -0.0000230 -0.0001753 -0.0006478 0.0005060 -0.0001345 0.0002611 -0.0001363 0.0000362
0.0000831 0.0001283 -0.0035530 0.0010149 -0.0002073 -0.0090378 -0.0002562 0.0000263 -0.0011145 0.0030807 -0.0001123 -0.0000253 -0.0000148 -0.0001021 -0.0002855 0.0002597 -0.0001496 0.0002399 -0.0001529 -0.0000110
0.0002353 -0.0001893 0.0009276 -0.0034260 0.0134977 -0.0582783 -0.0002585 0.0000654 -0.0011070 0.0029503 -0.0001249 -0.0001628 -0.0000112 -0.0003150 0.0001682 -0.0009344 -0.0001599 -0.0000075 -0.0001622 -0.0002230
0.0002170 -0.0003589 -0.0001385 -0.0008901 -0.0039177 0.0040492 -0.0002354 -0.0000223 -0.0010660 0.0027764 -0.0001132 -0.0003027 0.0000052 -0.0003956 0.0004181 -0.0010599 -0.0001537 -0.0001286 -0.0001510 -0.0002577
-0.0006058 0.0005083 -0.0004237 0.0008013 -0.0012929 0.0073106 -0.0001961 0.0000529 -0.0010163 0.0028107 -0.0000859 -0.0001738 0.0000158 -0.0002356 0.0002467 -0.0000553 -0.0001396 0.0000039 -0.0001279 -0.0000658
-0.0006631 0.0003935 0.0049540 -0.0051153 0.0039207 -0.0043983 -0.0001458 0.0003082 -0.0001777 0.0001471 -0.0000699 0.0000613 0.0000048 -0.0000085 0.0004310 -0.0000504 -0.0001462 0.0001462 -0.0001060 0.0001551
-0.0001525 -0.0001342 0.0062439 -0.0056093 0.0021359 0.0023465 -0.0001159 0.0004033 0.0003922 -0.0015746 -0.0000580 -0.0000175 -0.0000108 -0.0002174 0.0004057 -0.0010313 -0.0001908 -0.0001745 -0.0001011 -0.0000057
-0.0004958 -0.0000743 0.0009991 -0.0005614 -0.0034385 0.0087226 -0.0001179 0.0000769 -0.0004338 0.0012462 -0.0000380 -0.0003496 -0.0000333 -0.0007051 0.0000998 -0.0016612 -0.0002061 -0.0006196 -0.0000859 -0.0002567
-0.0007355 -0.0001880 0.0011377 -0.0007499 0.0018195 0.0017359 -0.0000948 -0.0001771 -0.0006826 0.0021459 -0.0000075 -0.0004034 -0.0000328 -0.0007869 -0.0022679 0.0009415 -0.0001734 -0.0006540 -0.0000527 -0.0001811
-0.0005867 -0.0002805 0.0067676 -0.0065129 0.0094566 -0.0103266 -0.0000705 -0.0001345 0.0001964 -0.0007020 0.0000102 -0.0002371 -0.0000211 -0.0006225 -0.0025448 0.0010462 -0.0001429 -0.0004889 -0.0000341 0.0000391
-0.0003842 -0.0003473 0.0037383 -0.0050489 0.0007150 -0.0035751 -0.0000858 -0.0000166 0.0009210 -0.0030541 0.0000108 -0.0001110 -0.0000268 -0.0005741 -0.0008557 -0.0005830 -0.0001330 -0.0004528 -0.0000239 0.0000558
-0.0005257 -0.0001435 -0.0027407 0.0016552 -0.0089043 0.0094218 -0.0001025 -0.0001303 0.0001475 -0.0004967 0.0000002 -0.0003210 -0.0000229 -0.0008327 -0.0015487 -0.0001106 -0.0001224 -0.0006835 -0.0000086 -0.0001711
-0.0005909 -0.0002871 -0.0033748 0.0010542 -0.0118644 0.0144571 -0.0000683 -0.0003865 -0.0006380 0.0021297 0.0000103 -0.0005425 0.0000206 -0.0009604 -0.0015235 -0.0004505 -0.0000850 -0.0007909 0.0000275 -0.0002185
-0.0000442 -0.0008295 -0.0059466 0.0024476 -0.0216030 0.0141807 -0.0000169 -0.0003853 0.0000293 -0.0000564 0.0000417 -0.0004290 0.0000839 -0.0007559 -0.0009293 -0.0005733 -0.0000381 -0.0006418 0.0000623 -0.0000400
0.0002260 -0.0009095 -0.0076705 0.0040873 -0.0118345 0.0062890 -0.0000002 -0.0002276 0.0009109 -0.0029166 0.0000557 -0.0001880 0.0001046 -0.0004908 -0.0003294 -0.0008566 -0.0000113 -0.0004043 0.0000662 0.0002095
-0.0000290 -0.0004218 -0.0116725 0.0074598 -0.0046223 0.0096506 -0.0000110 -0.0000785 0.0009112 -0.0028977 0.0000491 -0.0001162 0.0000968 -0.0005017 -0.0006848 0.0000008 -0.0000227 -0.0004100 0.0000543 0.0001631
0.0001077 -0.0004892 -0.0065503 0.0054627 -0.0041473 0.0142761 -0.0000214 -0.0002038 0.0003590 -0.0011365 0.0000327 -0.0003703 0.0000967 -0.0007924 -0.0007507 -0.0001873 -0.0000388 -0.0007252 0.0000603 -0.0001188
0.0006323 -0.0014161 -0.0020807 0.0002963 -0.0015713 -0.0011669 0.0000025 -0.0004405 0.0001494 -0.0004229 0.0000416 -0.0005366 0.0001410 -0.0008641 0.0007185 -0.0021165 -0.0000089 -0.0008458 0.0000882 -0.0001454
0.0003752 -0.0013055 -0.0026370 0.0017834 -0.0077027 -0.0079735 0.0000334 -0.0004127 0.0006995 -0.0021903 0.0000652 -0.0004168 0.0001838 -0.0006789 0.0008445 -0.0018575 0.0000326 -0.0006685 0.0001049 0.0000517
-0.0000042 -0.0007052 0.0023209 -0.0011701 0.0010242 -0.0075529 0.0000422 -0.0002417 0.0009086 -0.0028481 0.0000666 -0.0001839 0.0001738 -0.0004132 -0.0002152 -0.0003194 0.0000485 -0.0004160 0.0000978 0.0003145
0.0000367 -0.0005484 0.0087180 -0.0088646 0.0175122 -0.0229521 0.0000364 -0.0000178 0.0008390 -0.0025679 0.0000544 -0.0000372 0.0001616 -0.0003443 0.0002145 -0.0003186 0.0000316 -0.0003981 0.0000818 0.0003306
-0.0002034 -0.0003247 0.0073991 -0.0055271 0.0106305 -0.0092692 0.0000205 -0.0000386 0.0008150 -0.0026833 0.0000366 -0.0001961 0.0001537 -0.0005598 0.0012006 -0.0019067 0.0000065 -0.0006516 0.0000762 0.0001258
-0.0003076 -0.0005703 0.0048209 -0.0033008 -0.0032250 0.0048872 0.0000247 -0.0002101 0.0008349 -0.0028677 0.0000438 -0.0003284 0.0001832 -0.0005983 0.0006014 -0.0021783 0.0000075 -0.0007362 0.0000897 0.0001103
-0.0007463 -0.0001779 0.0049097 -0.0045151 -0.0072150 0.0080955 0.0000458 -0.0001655 0.0008289 -0.0026885 0.0000687 -0.0001889 0.0002234 -0.0003858 0.0001281 -0.0012393 0.0000189 -0.0005802 0.0001009 0.0002801
-0.0007538 0.0000564 0.0037102 -0.0028699 0.0015383 -0.0021935 0.0000495 0.0000072 0.0007735 -0.0023807 0.0000702 0.0000523 0.0002162 -0.0001320 -0.0004690 0.0000905 0.0000215 -0.0003612 0.0000909 0.0005016
-0.0004178 -0.0001332 0.0030030 -0.0017721 0.0018535 -0.0023053 0.0000284 0.0001714 0.0007164 -0.0021668 0.0000523 0.0001130 0.0001926 -0.0001481 -0.0018277 0.0013456 0.0000011 -0.0004054 0.0000666 0.0004436
-0.0004972 0.0000173 -0.0066670 0.0081936 0.0019321 0.0054126 -0.0000000 0.0000664 0.0007131 -0.0023130 0.0000297 -0.0001259 0.0001665 -0.0004312 -0.0016772 0.0000767 -0.0000298 -0.0006722 0.0000516 0.0002069
-0.0001871 -0.0006278 -0.0094292 0.0072705 0.0053220 -0.0061930 -0.0000049 -0.0000983 0.0007301 -0.0024668 0.0000267 -0.0002349 0.0001732 -0.0004617 -0.0022135 0.0001187 -0.0000312 -0.0007227 0.0000567 0.0001977
0.0003227 -0.0012440 -0.0025047 0.0001988 -0.0052592 -0.0010525 0.0000035 -0.0000391 0.0007042 -0.0022749 0.0000380 -0.0000829 0.0001942 -0.0002521 -0.0019635 0.0006019 -0.0000106 -0.0005695 0.0000593 0.0003431
0.0004369 -0.0009948 -0.0071324 0.0063451 -0.0078440 0.0053818 -0.0000119 0.0001215 0.0006430 -0.0019575 0.0000367 0.0001468 0.0001777 -0.0000061 -0.0007794 -0.0005756 -0.0000069 -0.0003454 0.0000430 0.0005440
0.0002957 -0.0005946 -0.0095630 0.0071800 -0.0167385 0.0103506 -0.0000450 0.0002391 0.0006023 -0.0018396 0.0000137 0.0001192 0.0001229 -0.0001297 -0.0012694 0.0003366 -0.0000351 -0.0004388 0.0000161 0.0004079
0.0003024 -0.0007529 -0.0035578 0.0010449 -0.0033558 -0.0045611 -0.0000727 0.0000643 0.0006220 -0.0021396 -0.0000117 -0.0002054 0.0000868 -0.0005391 -0.0005159 -0.0001544 -0.0000583 -0.0007636 0.0000070 0.0000831
0.0005222 -0.0014264 0.0013155 -0.0044177 0.0087251 -0.0244609 -0.0000750 -0.0001433 0.0006500 -0.0023453 -0.0000058 -0.0003257 0.0001139 -0.0005865 0.0012151 -0.0023302 -0.0000409 -0.0007905 0.0000227 0.0000583
0.0005297 -0.0013456 -0.0005455 -0.0005654 -0.0009905 -0.0042022 -0.0000632 -0.0000838 0.0006364 -0.0021625 0.0000155 -0.0001686 0.0001402 -0.0003598 0.0012941 -0.0017757 -0.0000148 -0.0005900 0.0000311 0.0002153
-0.0002924 -0.0002007 -0.0012209 0.0016547 0.0018799 -0.0024258 -0.0000660 0.0000925 0.0005823 -0.0018611 0.0000185 0.0000752 0.0001238 -0.0000984 0.0007636 -0.0009281 -0.0000088 -0.0003477 0.0000188 0.0004287
-0.0003811 -0.0000950 0.0042356 -0.0037241 0.0090852 -0.0156103 -0.0000987 0.0003018 0.0004975 -0.0015217 0.0000017 0.0003201 0.0000837 0.0000539 0.0006375 -0.0008145 -0.0000393 -0.0002695 -0.0000068 0.0004574
0.0001849 -0.0007299 0.0059176 -0.0054215 0.0073771 -0.0110857 -0.0001449 0.0002568 0.0004838 -0.0016276 -0.0000294 0.0001129 0.0000384 -0.0002690 0.0008650 -0.0017156 -0.0000788 -0.0005401 -0.0000277 0.0001687
-0.0001943 -0.0008016 0.0017495 -0.0019433 -0.0025521 0.0026201 -0.0001627 -0.0000434 0.0004798 -0.0018145 -0.0000393 -0.0003090 0.0000257 -0.0006590 0.0007990 -0.0022570 -0.0000729 -0.0007892 -0.0000193 -0.0000421
-0.0006168 -0.0005439 0.0029634 -0.0015463 -0.0031369 0.0056147 -0.0001390 -0.0001410 0.0004980 -0.0018823 -0.0000180 -0.0003241 0.0000544 -0.0005768 -0.0012931 0.0004994 -0.0000416 -0.0007168 0.0000040 0.0000399
-0.0004909 -0.0004958 0.0086672 -0.0077589 0.0118226 -0.0170956 -0.0001179 0.0000119 0.0005308 -0.0018996 -0.0000009 -0.0001171 0.0000766 -0.0003203 -0.0014203 0.0006124 -0.0000215 -0.0004962 0.0000093 0.0002353
-0.0003351 -0.0005336 0.0060000 -0.0062770 0.0109455 -0.0250600 -0.0001303 0.0002188 0.0004615 -0.0015654 -0.0000038 0.0001671 0.0000590 -0.0000111 0.0000281 -0.0009283 -0.0000285 -0.0002260 -0.0000090 0.0004918
-0.0004413 -0.0001513 0.0014924 -0.0010284 -0.0028045 -0.0038477 -0.0001691 0.0004475 0.0003696 -0.0011908 -0.0000269 0.0004905 0.0000168 0.0003161 -0.0011274 0.0003932 -0.0000624 -0.0000227 -0.0000419 0.0006590
-0.0006706 0.0002004 0.0011531 -0.0013853 -0.0010873 -0.0037244 -0.0002201 0.0005139 0.0003337 -0.0011731 -0.0000636 0.0003586 -0.0000324 0.0000765 -0.0018050 0.0010180 -0.0001032 -0.0002230 -0.0000748 0.0004118
-0.0004588 -0.0001265 -0.0027138 0.0018538 -0.0091596 0.0072799 -0.0002515 0.0002747 0.0003787 -0.0015926 -0.0000866 -0.0001062 -0.0000557 -0.0004570 -0.0012780 -0.0003112 -0.0001181 -0.0005856 -0.0000779 0.0000782
-0.0002159 -0.0006999 -0.0038124 0.0013806 -0.0012767 -0.0093003 -0.0002451 0.0000979 0.0004076 -0.0017835 -0.0000734 -0.0002085 -0.0000365 -0.0004975 -0.0009764 -0.0011556 -0.0000988 -0.0006066 -0.0000591 0.0000907
-0.0002386 -0.0005314 -0.0139702 0.0102552 0.0037208 -0.0070649 -0.0002307 0.0001905 0.0003818 -0.0015824 -0.0000561 -0.0000237 -0.0000211 -0.0002604 -0.0007897 -0.0004234 -0.0000823 -0.0004111 -0.0000527 0.0002688
0.0001055 -0.0004882 -0.0150733 0.0119370 0.0002353 -0.0003030 -0.0002428 0.0003854 0.0003193 -0.0012568 -0.0000614 0.0002564 -0.0000414 0.0000675 -0.0011414 0.0005219 -0.0000910 -0.0001828 -0.0000668 0.0005163
0.0006593 -0.0009248 -0.0076090 0.0054122 -0.0081108 0.0006199 -0.0002809 0.0006137 0.0002326 -0.0008996 -0.0000835 0.0005767 -0.0000843 0.0004421 -0.0004451 0.0003684 -0.0001044 0.0000903 -0.0001005 0.0007873
0.0004461 -0.0004010 -0.0083365 0.0089217 -0.0254314 0.0270621 -0.0003369 0.0007722 0.0001762 -0.0007613 -0.0001138 0.0005742 -0.0001211 0.0003425 0.0002537 -0.0006670 -0.0001468 0.0000330 -0.0001293 0.0006454
0.0001095 -0.0002731 -0.0031355 0.0031319 -0.0116060 0.0105713 -0.0003878 0.0006150 0.0001979 -0.0010187 -0.0001370 0.0001927 -0.0001477 -0.0001177 -0.0003428 -0.0005903 -0.0001810 -0.0003097 -0.0001312 0.0002743
0.0000882 -0.0007020 0.0028820 -0.0047625 0.0204192 -0.0425942 -0.0004024 0.0003668 0.0002338 -0.0012497 -0.0001374 -0.0000081 -0.0001614 -0.0002460 0.0003534 -0.0006911 -0.0001572 -0.0003570 -0.0001151 0.0002166
-0.0000718 -0.0005306 0.0038120 -0.0040013 0.0163531 -0.0238388 -0.0004022 0.0003644 0.0002209 -0.0011605 -0.0001282 0.0000904 -0.0001634 -0.0001005 0.0019130 -0.0023046 -0.0001294 -0.0001812 -0.0001048 0.0003479
-0.0001221 -0.0003326 0.0019792 -0.0012292 0.0052303 -0.0031358 -0.0004163 0.0005008 0.0001735 -0.0009133 -0.0001277 0.0003042 -0.0001770 0.0001633 0.0014903 -0.0012725 -0.0001248 0.0000350 -0.0001140 0.0005444
-0.0006800 0.0004779 0.0018965 -0.0006267 0.0023543 0.0008294 -0.0004398 0.0006554 0.0001331 -0.0007587 -0.0001399 0.0003356 -0.0002017 0.0001331 0.0008099 -0.0010383 -0.0001477 -0.0000571 -0.0001277 0.0004384
-0.0007881 0.0002790 0.0042842 -0.0043649 0.0104171 -0.0132221 -0.0004555 0.0005429 0.0001565 -0.0009831 -0.0001562 0.0000587 -0.0002262 -0.0002070 0.0007499 -0.0019974 -0.0001618 -0.0003798 -0.0001283 0.0001474
-0.0004490 -0.0003726 0.0046977 -0.0044754 0.0089963 -0.0086256 -0.0004443 0.0003454 0.0001981 -0.0012298 -0.0001493 -0.0000956 -0.0002329 -0.0003002 -0.0002475 -0.0005374 -0.0001397 -0.0004476 -0.0001093 0.0001167
-0.0006470 -0.0000131 -0.0009302 0.0022112 -0.0013446 0.0109689 -0.0004280 0.0003992 0.0001917 -0.0011383 -0.0001290 0.0000459 -0.0002258 -0.0000990 -0.0009663 0.0003374 -0.0001139 -0.0002891 -0.0000927 0.0002802
-0.0006918 0.0001832 -0.0010885 0.0018370 -0.0031520 0.0084361 -0.0004264 0.0005660 0.0001469 -0.0008827 -0.0001253 0.0002999 -0.0002277 0.0002160 -0.0023153 0.0021110 -0.0001175 -0.0000590 -0.0000961 0.0005041
-0.0004742 0.0001339 0.0035773 -0.0031855 0.0041510 -0.0016972 -0.0004465 0.0006819 0.0001161 -0.0007766 -0.0001379 0.0002785 -0.0002411 0.0001261 -0.0021110 0.0014305 -0.0001387 -0.0001844 -0.0001047 0.0003445
-0.0003036 -0.0002831 0.0003325 -0.0018493 0.0054144 -0.0123860 -0.0004687 0.0004744 0.0001496 -0.0011355 -0.0001533 -0.0001019 -0.0002528 -0.0003531 -0.0013665 0.0001604 -0.0001438 -0.0006017 -0.0000955 -0.0000537
-0.0003986 -0.0004643 -0.0040282 0.0020915 -0.0049163 -0.0031613 -0.0004523 0.0001766 0.0002098 -0.0014761 -0.0001438 -0.0003179 -0.0002390 -0.0005054 -0.0020063 0.0008416 -0.0001081 -0.0007273 -0.0000656 -0.0001325
-0.0004044 -0.0003679 -0.0036064 0.0016529 -0.0122205 0.0077665 -0.0004140 0.0001466 0.0002351 -0.0013990 -0.0001187 -0.0002297 -0.0002118 -0.0003407 -0.0012622 -0.0001750 -0.0000608 -0.0005789 -0.0000357 0.0000078
-0.0000633 -0.0004923 -0.0038052 0.0013440 -0.0246531 0.0170001 -0.0004004 0.0002497 0.0002110 -0.0011577 -0.0001097 -0.0000222 -0.0002012 -0.0000994 -0.0007088 -0.0005411 -0.0000238 -0.0003366 -0.0000277 0.0002232
0.0000688 -0.0004007 -0.0049768 0.0027007 -0.0120451 0.0139648 -0.0004113 0.0004187 0.0001586 -0.0008999 -0.0001180 0.0001628 -0.0002115 -0.0000013 0.0000552 -0.0014791 -0.0000217 -0.0003046 -0.0000451 0.0002109
-0.0001537 -0.0002427 -0.0081515 0.0052859 -0.0007952 0.0050463 -0.0004290 0.0003567 0.0001356 -0.0009602 -0.0001382 -0.0000694 -0.0002308 -0.0003239 -0.0002359 -0.0009212 -0.0000482 -0.0006376 -0.0000541 -0.0001143
-0.0000434 -0.0005481 -0.0051116 0.0036364 0.0021633 0.0022883 -0.0004175 0.0000539 -0.0005247 0.0010722 -0.0001355 -0.0004314 -0.0002204 -0.0006192 -0.0002707 -0.0008429 -0.0000295 -0.0008984 -0.0000279 -0.0003008
0.0004905 -0.0012414 -0.0023852 0.0002879 -0.0004535 -0.0037162 -0.0003668 -0.0000532 -0.0005963 0.0013167 -0.0000993 -0.0004249 -0.0001691 -0.0005258 0.0008450 -0.0024617 0.0000171 -0.0008758 -0.0000006 -0.0002498
0.0003345 -0.0009731 -0.0029078 0.0022362 -0.0201079 0.0162141 -0.0003615 -0.0000259 0.0001367 -0.0010165 -0.0000805 -0.0002565 -0.0001266 -0.0003126 0.0004918 -0.0013608 0.0000445 -0.0006972 0.0000032 -0.0001513
0.0000034 -0.0003674 0.0012697 -0.0004640 -0.0084541 0.0115472 -0.0003843 0.0000629 0.0002463 -0.0012387 -0.0000893 -0.0000391 -0.0001342 -0.0000914 0.0002293 -0.0003326 0.0000616 -0.0003386 -0.0000018 0.0000001
0.0000220 -0.0003893 0.0074603 -0.0080353 0.0161192 -0.0216093 -0.0003517 0.0003090 0.0001711 -0.0010840 -0.0001247 -0.0001619 -0.0001968 -0.0003638 0.0010291 -0.0010935 0.0000635 -0.0002827 -0.0000226 -0.0001681
-0.0001938 -0.0003914 0.0068941 -0.0059645 0.0124990 -0.0079550 -0.0003373 0.0001891 -0.0007549 0.0017093 -0.0001431 -0.0005438 -0.0001943 -0.0007952 0.0020042 -0.0024457 0.0000625 -0.0006160 -0.0000293 -0.0005651
-0.0002493 -0.0005554 0.0045551 -0.0041445 0.0075635 -0.0077130 -0.0003285 -0.0001290 -0.0015217 0.0042608 -0.0001050 -0.0006547 -0.0000744 -0.0006999 0.0012189 -0.0020649 0.0000899 -0.0007774 0.0000013 -0.0006922
-0.0007085 -0.0000006 0.0049253 -0.0051307 0.0116892 -0.0224415 -0.0002904 -0.0001313 -0.0012659 0.0036500 -0.0000593 -0.0005119 0.0000089 -0.0004711 0.0002258 -0.0008722 0.0001327 -0.0006996 0.0000256 -0.0005953
-0.0007135 0.0001502 0.0050505 -0.0053669 0.0037558 0.0006617 -0.0002648 0.0000046 -0.0004205 0.0008942 -0.0000383 -0.0002707 0.0000166 -0.0002820 -0.0000702 -0.0000777 0.0001632 -0.0006995 0.0000050 -0.0005617
-0.0003656 -0.0001683 0.0047219 -0.0047003 0.0010886 0.0054594 -0.0002539 0.0000348 -0.0006375 0.0014665 -0.0000443 -0.0003806 0.0000019 -0.0005247 -0.0005715 0.0000789 0.0001327 -0.0011684 -0.0000548 -0.0009796
-0.0005188 -0.0001439 -0.0048004 0.0056255 -0.0006918 0.0149967 -0.0002388 -0.0002296 -0.0014347 0.0039212 -0.0000465 -0.0007880 -0.0000172 -0.0010602 -0.0005497 -0.0014055 0.0001014 -0.0016343 -0.0000614 -0.0013764
-0.0002405 -0.0008823 -0.0072156 0.0042024 0.0021242 0.0033447 -0.0001935 -0.0004702 -0.0013810 0.0036744 -0.0000312 -0.0009556 -0.0000102 -0.0011993 -0.0013326 -0.0009274 0.0001511 -0.0015108 0.0000091 -0.0012786
0.0002825 -0.0014420 -0.0000368 -0.0033063 0.0029518 -0.0040017 -0.0001479 -0.0004503 -0.0013287 0.0037313 -0.0000113 -0.0008494 0.0000277 -0.0009879 -0.0011943 -0.0000308 0.0002174 -0.0011182 0.0000679 -0.0009844
0.0005042 -0.0011919 -0.0056106 0.0029339 -0.0042612 0.0127430 -0.0001172 -0.0002487 -0.0012283 0.0036894 0.0000058 -0.0005684 0.0000624 -0.0006092 -0.0009684 0.0002378 0.0002381 -0.0008016 0.0000897 -0.0007227
0.0003887 -0.0007262 -0.0103320 0.0059212 -0.0095819 0.0037435 -0.0000998 -0.0001238 -0.0011998 0.0036900 0.0000053 -0.0005873 0.0000750 -0.0006486 -0.0011534 0.0005700 0.0002141 -0.0009007 0.0000963 -0.0008196
0.0003624 -0.0007967 -0.0053874 0.0010988 -0.0058896 -0.0017710 -0.0000827 -0.0002889 -0.0012454 0.0036903 0.0000066 -0.0008920 0.0000965 -0.0009941 -0.0003971 -0.0005910 0.0002072 -0.0011691 0.0001159 -0.0010227
0.0006856 -0.0014669 -0.0009453 -0.0041682 0.0054310 -0.0149733 -0.0000552 -0.0004446 -0.0012163 0.0035810 0.0000345 -0.0009384 0.0001260 -0.0010109 0.0009251 -0.0024066 0.0002363 -0.0011479 0.0001471 -0.0009075
0.0007763 -0.0014351 -0.0028491 -0.0004050 -0.0026871 -0.0016278 0.0000045 -0.0002938 -0.0011427 0.0035528 0.0000772 -0.0007155 0.0001611 -0.0007502 0.0012450 -0.0025687 0.0002435 -0.0009535 0.0001741 -0.0006037
0.0001898 -0.0005559 -0.0038518 0.0021992 -0.0075001 0.0029303 0.0000448 -0.0000578 -0.0003174 0.0009537 0.0000990 -0.0004628 0.0001944 -0.0005405 0.0010378 -0.0020096 0.0002043 -0.0009838 0.0001709 -0.0005667
0.0001881 -0.0005003 0.0023645 -0.0026777 0.0043840 -0.0128817 -0.0000108 -0.0002295 -0.0003446 0.0009762 0.0000843 -0.0005827 0.0001770 -0.0007129 0.0016193 -0.0024317 0.0001829 -0.0012235 0.0001518 -0.0008189
0.0007245 -0.0012459 0.0048769 -0.0060491 0.0048442 -0.0104667 -0.0000461 -0.0005323 -0.0011403 0.0035716 0.0000858 -0.0007837 0.0001882 -0.0008337 0.0021928 -0.0034622 0.0002127 -0.0012074 0.0001676 -0.0008456
0.0003718 -0.0012248 0.0017968 -0.0034088 0.0007452 -0.0149737 -0.0000035 -0.0004744 -0.0010562 0.0034179 0.0001108 -0.0006843 0.0002284 -0.0006665 0.0022482 -0.0028882 0.0002402 -0.0009808 0.0001874 -0.0006518
-0.0000836 -0.0005863 0.0038126 -0.0025508 0.0000677 -0.0002192 0.0000146 -0.0002905 -0.0002244 0.0007015 0.0001155 -0.0004928 0.0002207 -0.0004507 -0.0000373 0.0000884 0.0002480 -0.0007553 0.0001861 -0.0004743
-0.0000519 -0.0004595 0.0101400 -0.0097647 0.0122291 -0.0094605 -0.0000043 -0.0002746 -0.0002850 0.0008138 0.0000954 -0.0005754 0.0001995 -0.0005968 -0.0005227 -0.0000644 0.0002275 -0.0008605 0.0001746 -0.0006227
-0.0001339 -0.0006588 0.0078939 -0.0078520 0.0127859 -0.0132698 -0.0000080 -0.0005307 -0.0010986 0.0033604 0.0000871 -0.0008966 0.0002141 -0.0009436 0.0011092 -0.0018192 0.0002090 -0.0011443 0.0001833 -0.0008800
-0.0002141 -0.0008669 0.0040423 -0.0042538 0.0072342 -0.0119766 0.0000259 -0.0007360 -0.0010608 0.0031795 0.0001120 -0.0009887 0.0002532 -0.0009598 0.0002646 -0.0013960 0.0002306 -0.0011629 0.0002113 -0.0008611
-0.0004388 -0.0006085 0.0043755 -0.0056940 0.0074893 -0.0166268 0.0000572 -0.0007060 -0.0010306 0.0032267 0.0001366 -0.0008737 0.0002686 -0.0008083 -0.0008098 -0.0004855 0.0002643 -0.0009921 0.0002254 -0.0006990
-0.0002481 -0.0003823 0.0008746 -0.0011930 -0.0018138 0.0037900 0.0000680 -0.0005694 -0.0009894 0.0032369 0.0001424 -0.0007261 0.0002737 -0.0007100 -0.0009632 -0.0000484 0.0002701 -0.0009227 0.0002236 -0.0006782
0.0000219 -0.0006851 -0.0000133 -0.0012512 -0.0008319 0.0034650 0.0000700 -0.0006513 -0.0009762 0.0030769 0.0001337 -0.0008839 0.0002731 -0.0009213 -0.0002282 -0.0014294 0.0002471 -0.0011583 0.0002267 -0.0009155
0.0000062 -0.0008374 -0.0117244 0.0090014 -0.0028107 0.0129671 0.0000868 -0.0009786 -0.0009728 0.0028431 0.0001431 -0.0011666 0.0002830 -0.0011735 0.0000120 -0.0022016 0.0002486 -0.0013541 0.0002485 -0.0010598
0.0004354 -0.0012629 -0.0161892 0.0111451 -0.0088982 0.0143391 0.0001180 -0.0011088 -0.0009327 0.0027605 0.0001710 -0.0011669 0.0003052 -0.0011470 -0.0006890 -0.0007426 0.0002864 -0.0012697 0.0002668 -0.0009617
0.0010801 -0.0018737 -0.0070566 0.0030349 -0.0241222 0.0125661 0.0001453 -0.0010060 -0.0009164 0.0028673 0.0001845 -0.0010213 0.0003195 -0.0009695 0.0000224 -0.0001437 0.0003266 -0.0010575 0.0002708 -0.0007583
0.0010357 -0.0013865 -0.0089304 0.0080776 -0.0187487 0.0217974 0.0001525 -0.0007937 -0.0009176 0.0030367 0.0001869 -0.0008025 0.0003368 -0.0007551 0.0006832 -0.0010391 0.0003338 -0.0009107 0.0002661 -0.0006464
0.0008036 -0.0010603 -0.0047946 0.0029276 -0.0093283 0.0103862 0.0001422 -0.0007517 -0.0009204 0.0029886 0.0001731 -0.0008841 0.0003320 -0.0008726 0.0005955 -0.0014781 0.0003011 -0.0010493 0.0002563 -0.0007975
0.0008057 -0.0013108 0.0028757 -0.0058818 0.0156552 -0.0362652 0.0001501 -0.0009469 -0.0009059 0.0027576 0.0001688 -0.0011302 0.0003406 -0.0010848 0.0014389 -0.0024113 0.0002867 -0.0012150 0.0002653 -0.0009188
0.0007509 -0.0013918 0.0055181 -0.0068618 0.0177819 -0.0356051 0.0001676 -0.0010318 -0.0008821 0.0027003 0.0001855 -0.0011134 0.0003676 -0.0010269 0.0031272 -0.0047199 0.0003115 -0.0011465 0.0002832 -0.0008177
0.0007240 -0.0012265 0.0034628 -0.0028720 0.0032347 -0.0090800 0.0001703 -0.0009350 -0.0008739 0.0028015 0.0001922 -0.0009717 0.0003657 -0.0008699 0.0025422 -0.0031581 0.0003296 -0.0009568 0.0002784 -0.0006339
-0.0001829 0.0000323 0.0030031 -0.0013375 0.0003515 -0.0006454 0.0001631 -0.0007616 -0.0008811 0.0029193 0.0001863 -0.0008784 0.0003552 -0.0008224 0.0017931 -0.0023498 0.0003161 -0.0009214 0.0002649 -0.0006378
-0.0003148 -0.0001474 0.0069906 -0.0072832 0.0066281 -0.0069251 0.0001530 -0.0008378 -0.0008807 0.0027678 0.0001684 -0.0010410 0.0003436 -0.0010259 0.0018706 -0.0032668 0.0002887 -0.0011276 0.0002604 -0.0008421
0.0002260 -0.0010084 0.0076159 -0.0072495 0.0057432 -0.0013931 0.0001581 -0.0010594 -0.0008576 0.0025294 0.0001691 -0.0012021 0.0003574 -0.0011314 0.0012977 -0.0023168 0.0002878 -0.0012164 0.0002754 -0.0008933
-0.0001096 -0.0005864 0.0006105 0.0011147 -0.0050658 0.0129240 0.0001761 -0.0010720 -0.0008332 0.0025459 0.0001932 -0.0011201 0.0003777 -0.0010066 0.0014106 -0.0023480 0.0003093 -0.0010770 0.0002927 -0.0007521
-0.0002245 -0.0003877 0.0007086 0.0003629 -0.0011636 0.0086865 0.0001853 -0.0009405 -0.0008281 0.0026802 0.0001982 -0.0009422 0.0003676 -0.0008020 -0.0007553 0.0001717 0.0003173 -0.0008471 0.0002877 -0.0005324
0.0000565 -0.0004891 0.0068346 -0.0063860 0.0080459 -0.0064174 0.0001751 -0.0007933 -0.0008341 0.0027300 0.0001855 -0.0009222 0.0003460 -0.0008508 -0.0012582 0.0002622 0.0002968 -0.0008866 0.0002743 -0.0006158
0.0003134 -0.0009303 0.0029247 -0.0051083 0.0074409 -0.0202906 0.0001596 -0.0009691 -0.0008263 0.0024660 0.0001726 -0.0011869 0.0003438 -0.0011801 0.0002907 -0.0021173 0.0002699 -0.0012012 0.0002785 -0.0009257
0.0001572 -0.0009390 -0.0035942 0.0012798 -0.0055096 0.0055382 0.0001842 -0.0012499 -0.0007927 0.0021978 0.0001878 -0.0013410 0.0003818 -0.0012774 -0.0006687 -0.0011330 0.0002796 -0.0012947 0.0003023 -0.0009717
0.0001082 -0.0008054 -0.0037508 0.0011744 -0.0028996 0.0016398 0.0002200 -0.0012747 -0.0007626 0.0022176 0.0002188 -0.0012363 0.0004112 -0.0011366 -0.0005136 -0.0014715 0.0003158 -0.0011376 0.0003238 -0.0008153
0.0006311 -0.0011195 -0.0051948 0.0016419 -0.0052859 -0.0092933 0.0002300 -0.0011465 -0.0007580 0.0023541 0.0002260 -0.0010504 0.0004071 -0.0009324 0.0002294 -0.0018749 0.0003369 -0.0008972 0.0003256 -0.0005895
0.0008300 -0.0010502 -0.0072943 0.0036671 -0.0144860 0.0096007 0.0002218 -0.0009359 -0.0007702 0.0025009 0.0002196 -0.0009072 0.0003935 -0.0008586 0.0003338 -0.0011194 0.0003214 -0.0008386 0.0003119 -0.0005872
0.0004922 -0.0007562 -0.0129277 0.0081659 -0.0014971 0.0099275 0.0001975 -0.0010271 -0.0007731 0.0023291 0.0002034 -0.0011023 0.0003824 -0.0011381 0.0002328 -0.0012003 0.0002870 -0.0010981 0.0003053 -0.0008675
0.0006313 -0.0010517 -0.0069826 0.0055797 0.0002399 0.0053200 0.0002035 -0.0013465 -0.0007475 0.0019985 0.0002071 -0.0013647 0.0004088 -0.0013354 0.0001896 -0.0018979 0.0002864 -0.0012760 0.0003242 -0.0009929
0.0012411 -0.0018362 -0.0024666 0.0007819 -0.0088346 -0.0041758 0.0002310 -0.0014359 -0.0007124 0.0019518 0.0002362 -0.0013267 0.0004479 -0.0012437 0.0015605 -0.0032149 0.0003159 -0.0011814 0.0003426 -0.0008759
0.0009760 -0.0014916 -0.0033982 0.0029516 -0.0284293 0.0273644 0.0002370 -0.0013231 -0.0006983 0.0020888 0.0002501 -0.0011650 0.0004515 -0.0010762 0.0022975 -0.0035199 0.0003325 -0.0009665 0.0003404 -0.0006756
0.0005735 -0.0008339 0.0023480 -0.0009733 -0.0108632 0.0153462 0.0002297 -0.0011235 -0.0007095 0.0022937 0.0002424 -0.0009427 0.0004272 -0.0008110 0.0012598 -0.0020937 0.0003321 -0.0006963 0.0003220 -0.0004247
0.0005731 -0.0006799 0.0092946 -0.0094132 0.0194299 -0.0346319 0.0001980 -0.0008859 -0.0007378 0.0025260 0.0002222 -0.0006842 0.0003911 -0.0005822 0.0016380 -0.0020381 0.0003056 -0.0005524 0.0002931 -0.0003367
0.0002880 -0.0003172 0.0078649 -0.0057472 0.0080655 -0.0101108 0.0001458 -0.0008936 -0.0007617 0.0024523 0.0001894 -0.0008457 0.0003508 -0.0008499 0.0030243 -0.0041583 0.0002615 -0.0007690 0.0002665 -0.0006063
0.0001587 -0.0005960 0.0052793 -0.0036189 0.0011563 0.0010164 0.0001240 -0.0012009 -0.0007542 0.0021031 0.0001737 -0.0012447 0.0003521 -0.0012376 0.0017901 -0.0034972 0.0002446 -0.0010273 0.0002643 -0.0008342
-0.0004120 -0.0002618 0.0056017 -0.0050639 0.0112062 -0.0169539 0.0001523 -0.0013311 -0.0007264 0.0020009 0.0001953 -0.0012706 0.0003966 -0.0011588 0.0003724 -0.0015875 0.0002593 -0.0009942 0.0002822 -0.0007570
-0.0004434 -0.0001336 0.0050233 -0.0043851 0.0106152 -0.0202180 0.0001725 -0.0011986 -0.0007103 0.0021490 0.0002102 -0.0010937 0.0004090 -0.0009307 0.0002585 -0.0014078 0.0002679 -0.0008128 0.0002852 -0.0005701
-0.0000632 -0.0003521 0.0044780 -0.0031202 0.0038343 -0.0091677 0.0001571 -0.0010100 -0.0007181 0.0023502 0.0002019 -0.0008743 0.0003761 -0.0006866 -0.0000727 -0.0004613 0.0002583 -0.0005551 0.0002689 -0.0003347
-0.0001818 0.0002480 -0.0049891 0.0075924 -0.0020373 0.0124437 0.0001159 -0.0007864 -0.0007400 0.0025606 0.0001809 -0.0006202 0.0003270 -0.0004442 0.0002038 -0.0007108 0.0002289 -0.0003519 0.0002434 -0.0002124
0.0000577 -0.0000174 -0.0071523 0.0065042 -0.0004031 0.0065764 0.0000649 -0.0007388 -0.0007640 0.0025458 0.0001504 -0.0007258 0.0002759 -0.0006373 -0.0012743 0.0001026 0.0001922 -0.0004927 0.0002179 -0.0004194
0.0004620 -0.0007865 0.0001062 -0.0016687 0.0061359 -0.0159203 0.0000413 -0.0009362 -0.0007679 0.0023121 0.0001366 -0.0010559 0.0002640 -0.0009817 -0.0009378 -0.0006284 0.0001890 -0.0007365 0.0002133 -0.0006368
0.0006171 -0.0009697 -0.0048741 0.0032416 0.0023160 -0.0030536 0.0000546 -0.0010073 -0.0007515 0.0022330 0.0001522 -0.0010778 0.0003003 -0.0009169 -0.0000228 -0.0015529 0.0002158 -0.0007067 0.0002251 -0.0005651
0.0004941 -0.0006809 -0.0094677 0.0064573 -0.0089531 0.0079971 0.0000722 -0.0008465 -0.0007461 0.0023654 0.0001677 -0.0008962 0.0003169 -0.0006762 -0.0009865 0.0005665 0.0002295 -0.0005018 0.0002210 -0.0003683
0.0004808 -0.0004438 -0.0052848 0.0030561 -0.0105845 0.0016601 0.0000636 -0.0006238 -0.0007574 0.0025536 0.0001655 -0.0006500 0.0002998 -0.0004527 0.0002805 -0.0008984 0.0002182 -0.0003546 0.0002015 -0.0002913
0.0007449 -0.0007985 -0.0007526 -0.0019356 -0.0020834 -0.0112478 0.0000287 -0.0005993 -0.0007701 0.0024967 0.0001406 -0.0007723 0.0002595 -0.0006567 0.0024366 -0.0044818 0.0001927 -0.0005269 0.0001895 -0.0005201
0.0007268 -0.0009979 -0.0023273 0.0006414 -0.0058209 0.0027787 0.0000152 -0.0008203 -0.0007589 0.0022231 0.0001322 -0.0011005 0.0002449 -0.0009524 0.0029548 -0.0043507 0.0001818 -0.0006953 0.0002040 -0.0006958
0.0000072 -0.0003725 -0.0034212 0.0024307 0.0059368 -0.0125326 0.0000485 -0.0008940 -0.0007231 0.0021495 0.0001599 -0.0011000 0.0002883 -0.0008276 0.0019531 -0.0022464 0.0001967 -0.0005545 0.0002347 -0.0005818
0.0000122 -0.0003732 0.0025197 -0.0023989 0.0139497 -0.0209747 0.0000771 -0.0007316 -0.0007011 0.0022958 0.0001870 -0.0009169 0.0003076 -0.0005638 0.0015352 -0.0016498 0.0002129 -0.0002900 0.0002516 -0.0003672
0.0005930 -0.0007854 0.0047080 -0.0045010 0.0067369 -0.0051624 0.0000707 -0.0005188 -0.0006826 0.0024259 0.0001929 -0.0006951 0.0002948 -0.0003912 0.0020109 -0.0022608 0.0002068 -0.0001322 0.0002470 -0.0002927
0.0002186 -0.0005429 0.0014347 -0.0016677 -0.0071635 0.0004913 0.0000469 -0.0005336 -0.0006873 0.0023589 0.0001774 -0.0008310 0.0002723 -0.0006078 0.0020574 -0.0025795 0.0001807 -0.0002756 0.0002396 -0.0005064
-0.0002441 -0.0003291 0.0030039 -0.0013419 -0.0049816 0.0030147 0.0000520 -0.0007603 -0.0006901 0.0021673 0.0001800 -0.0011242 0.0002846 -0.0008346 -0.0000854 -0.0005876 0.0001801 -0.0004307 0.0002571 -0.0006461
-0.0001811 -0.0005251 0.0091206 -0.0084522 0.0085353 -0.0044975 0.0000902 -0.0007915 -0.0006532 0.0021384 0.0002134 -0.0010871 0.0003403 -0.0006954 -0.0004899 -0.0006078 0.0002098 -0.0003445 0.0002837 -0.0005264
-0.0001245 -0.0005216 0.0069313 -0.0068605 0.0087807 -0.0078266 0.0001111 -0.0006230 -0.0006275 0.0022729 0.0002336 -0.0008975 0.0003626 -0.0004783 0.0011049 -0.0017172 0.0002317 -0.0001377 0.0002883 -0.0003167
-0.0001898 -0.0002201 0.0026760 -0.0019691 0.0044220 -0.0065962 0.0001040 -0.0004064 -0.0002748 0.0012039 0.0002323 -0.0006821 0.0003550 -0.0003471 0.0001606 -0.0012624 0.0002223 -0.0000572 0.0002740 -0.0002708
-0.0003822 -0.0000143 0.0026214 -0.0031903 0.0051119 -0.0194822 0.0000785 -0.0004033 -0.0002927 0.0011630 0.0002126 -0.0008216 0.0003280 -0.0005579 -0.0013701 -0.0001076 0.0001960 -0.0002699 0.0002636 -0.0005072
-0.0001837 -0.0003080 -0.0012735 0.0006085 -0.0024108 0.0011804 0.0000702 -0.0006196 -0.0006441 0.0022079 0.0002090 -0.0011008 0.0003379 -0.0007528 -0.0011024 -0.0004982 0.0001974 -0.0004470 0.0002764 -0.0006430
0.0000836 -0.0007442 -0.0026042 0.0008467 -0.0039758 0.0053187 0.0000949 -0.0006566 -0.0006140 0.0022004 0.0002371 -0.0010617 0.0003882 -0.0006269 -0.0006116 -0.0012384 0.0002222 -0.0003726 0.0002938 -0.0005259
0.0000793 -0.0005230 -0.0125976 0.0095634 -0.0024012 0.0095860 0.0001096 -0.0005029 -0.0002855 0.0013295 0.0002492 -0.0008756 0.0003977 -0.0004252 -0.0005291 -0.0004995 0.0002423 -0.0001903 0.0002939 -0.0003282
0.0003969 -0.0004594 -0.0142317 0.0111674 -0.0079766 0.0214102 0.0000963 -0.0002930 0.0005901 -0.0015227 0.0002401 -0.0006370 0.0003734 -0.0002298 -0.0004823 -0.0000862 0.0002382 -0.0000731 0.0002794 -0.0002517
0.0009316 -0.0010294 -0.0069180 0.0043237 -0.0137825 0.0119726 0.0000606 -0.0002614 0.0002557 -0.0005112 0.0002149 -0.0007397 0.0003334 -0.0004038 0.0000093 -0.0004830 0.0002115 -0.0002388 0.0002646 -0.0004602
0.0007892 -0.0009956 -0.0076924 0.0073956 -0.0102761 0.0030551 0.0000396 -0.0004375 -0.0006021 0.0022799 0.0002051 -0.0010085 0.0003306 -0.0006320 0.0002967 -0.0015855 0.0002111 -0.0004277 0.0002736 -0.0006159
0.0005544 -0.0009138 -0.0026269 0.0018555 -0.0052346 -0.0030065 0.0000635 -0.0004585 -0.0004139 0.0017019 0.0002297 -0.0009644 0.0003758 -0.0004922 -0.0002358 -0.0009317 0.0002431 -0.0003661 0.0002940 -0.0005147
0.0006018 -0.0008750 0.0040542 -0.0057355 0.0113112 -0.0286903 0.0000850 -0.0002922 0.0004668 -0.0011788 0.0002462 -0.0007728 0.0003871 -0.0002705 0.0008073 -0.0007090 0.0002648 -0.0001674 0.0002986 -0.0003265
0.0004509 -0.0004706 0.0052228 -0.0047687 0.0027465 -0.0030777 0.0000672 -0.0000775 0.0011685 -0.0034526 0.0002384 -0.0005558 0.0003617 -0.0001240 0.0025101 -0.0023784 0.0002590 -0.0000586 0.0002870 -0.0002794
0.0003904 -0.0004070 0.0031562 -0.0019229 -0.0029490 0.0103671 0.0000338 -0.0000532 0.0010948 -0.0031996 0.0002154 -0.0006361 0.0003246 -0.0002678 0.0018845 -0.0020475 0.0002401 -0.0002334 0.0002757 -0.0004657
-0.0003241 0.0001955 0.0032103 -0.0019489 -0.0003160 0.0056860 0.0000201 -0.0001748 0.0008878 -0.0026238 0.0002077 -0.0008168 0.0003141 -0.0003937 0.0013345 -0.0018090 0.0002396 -0.0003464 0.0002850 -0.0005486
-0.0004364 0.0000713 0.0061896 -0.0065101 0.0051902 -0.0057075 0.0000289 -0.0001226 0.0009357 -0.0027559 0.0002228 -0.0007140 0.0003323 -0.0002153 0.0012264 -0.0020941 0.0002595 -0.0002121 0.0002977 -0.0004133
-0.0000146 -0.0002147 0.0063134 -0.0054120 0.0042160 -0.0048896 0.0000292 0.0000656 0.0011216 -0.0032463 0.0002311 -0.0005056 0.0003307 0.0000185 0.0005097 -0.0009720 0.0002718 -0.0000111 0.0002934 -0.0002239
-0.0002583 0.0003943 -0.0011954 0.0038249 0.0009717 0.0052096 0.0000044 0.0002328 0.0010773 -0.0030737 0.0002197 -0.0004591 0.0003071 -0.0000079 0.0005537 -0.0008966 0.0002509 -0.0000695 0.0002781 -0.0003179
-0.0002833 0.0001744 -0.0019617 0.0026684 0.0029111 0.0030698 -0.0000211 0.0001583 0.0010697 -0.0032391 0.0002011 -0.0006401 0.0002860 -0.0002302 -0.0017326 0.0008492 0.0002259 -0.0003301 0.0002766 -0.0005732
-0.0000017 -0.0004117 0.0040936 -0.0045271 0.0048433 -0.0055272 -0.0000151 0.0000394 0.0010912 -0.0033738 0.0002050 -0.0006954 0.0002995 -0.0002206 -0.0017610 0.0002376 0.0002433 -0.0003834 0.0002944 -0.0005791
0.0002772 -0.0006175 -0.0002882 -0.0015992 0.0056531 -0.0176812 -0.0000025 0.0001497 0.0010864 -0.0031889 0.0002215 -0.0005366 0.0003203 -0.0000164 -0.0004112 -0.0007472 0.0002714 -0.0002408 0.0003044 -0.0004297
0.0001850 -0.0001982 -0.0064508 0.0043570 -0.0080631 0.0032955 -0.0000126 0.0003433 0.0010299 -0.0028821 0.0002250 -0.0003321 0.0003091 0.0001355 -0.0010035 0.0006535 0.0002681 -0.0001645 0.0002973 -0.0004060
0.0001246 -0.0000305 -0.0055445 0.0033509 -0.0191445 0.0104740 -0.0000400 0.0003270 0.0010221 -0.0029513 0.0002076 -0.0004455 0.0002726 -0.0000670 -0.0002881 -0.0008703 0.0002416 -0.0003881 0.0002912 -0.0006534
0.0005217 -0.0007460 -0.0045413 0.0006145 -0.0231118 0.0077635 -0.0000479 0.0000950 0.0010260 -0.0031219 0.0002005 -0.0007090 0.0002716 -0.0003019 0.0009939 -0.0031405 0.0002434 -0.0006017 0.0003109 -0.0008251
0.0006490 -0.0009353 -0.0060349 0.0025426 -0.0163052 0.0106049 -0.0000180 0.0000480 0.0010477 -0.0031283 0.0002281 -0.0006795 0.0003145 -0.0001740 0.0017456 -0.0038173 0.0002836 -0.0005489 0.0003412 -0.0007475
0.0001990 -0.0003392 -0.0070779 0.0042704 -0.0100571 -0.0024018 0.0000027 0.0002024 0.0010687 -0.0030440 0.0002479 -0.0004994 0.0003347 0.0000343 0.0010452 -0.0022369 0.0003162 -0.0003607 0.0003526 -0.0005804
0.0002582 -0.0001485 -0.0008748 0.0008186 0.0069472 -0.0291512 -0.0000128 0.0003819 0.0010171 -0.0027824 0.0002413 -0.0003892 0.0003099 0.0000457 0.0002935 -0.0010837 0.0003137 -0.0003632 0.0003432 -0.0006375
0.0007236 -0.0007157 0.0023127 -0.0028512 0.0165095 -0.0453905 -0.0000379 0.0002849 0.0010280 -0.0029691 0.0002207 -0.0005744 0.0002818 -0.0002448 0.0015860 -0.0034319 0.0002917 -0.0006654 0.0003400 -0.0009376
0.0003927 -0.0008854 0.0006855 -0.0017702 -0.0026871 -0.0074851 -0.0000271 0.0000273 0.0010721 -0.0032678 0.0002257 -0.0007654 0.0003075 -0.0003900 0.0020937 -0.0034103 0.0003100 -0.0008278 0.0003630 -0.0010410
-0.0000255 -0.0004666 0.0033734 -0.0021635 0.0000083 0.0002622 0.0000124 0.0000325 0.0010790 -0.0031661 0.0002568 -0.0006805 0.0003541 -0.0002152 0.0002771 -0.0009731 0.0003561 -0.0007113 0.0003889 -0.0009105
0.0000142 -0.0003576 0.0092306 -0.0089127 0.0199680 -0.0243437 0.0000304 0.0001890 0.0010493 -0.0028968 0.0002664 -0.0004930 0.0003591 -0.0000169 0.0007015 -0.0019923 0.0003860 -0.0005044 0.0003946 -0.0007205
-0.0000464 -0.0001132 0.0070265 -0.0060208 0.0121600 -0.0085236 0.0000087 0.0003827 0.0009731 -0.0025484 0.0002527 -0.0002653 0.0003252 0.0001780 0.0020502 -0.0029417 0.0003907 -0.0003402 0.0003805 -0.0005991
-0.0001460 0.0000917 0.0033300 -0.0024294 -0.0000155 0.0026482 -0.0000304 0.0004183 0.0009442 -0.0025352 0.0002226 -0.0003408 0.0002803 -0.0000059 0.0008983 -0.0023466 0.0003552 -0.0005188 0.0003587 -0.0007941
-0.0004066 0.0000962 0.0033484 -0.0041449 -0.0007904 -0.0048208 -0.0000495 0.0001907 0.0009872 -0.0028938 0.0002015 -0.0006351 0.0002653 -0.0003645 -0.0006287 -0.0011498 0.0003387 -0.0007647 0.0003609 -0.0010186
-0.0002498 -0.0000668 0.0001557 -0.0005008 -0.0066589 0.0001072 -0.0000317 0.0000834 0.0010063 -0.0029765 0.0002088 -0.0006544 0.0002940 -0.0003273 -0.0003308 -0.0013164 0.0003675 -0.0006995 0.0003835 -0.0009574
0.0000287 -0.0002475 -0.0005574 -0.0005082 0.0036854 -0.0077584 -0.0000158 0.0002178 0.0009701 -0.0027167 0.0002243 -0.0004876 0.0003137 -0.0001260 0.0001234 -0.0017608 0.0003935 -0.0004964 0.0003910 -0.0007862
0.0000225 0.0000510 -0.0096744 0.0080766 -0.0012650 0.0147633 -0.0000322 0.0003982 0.0009019 -0.0024014 0.0002225 -0.0002691 0.0002891 0.0000907 -0.0004554 -0.0005363 0.0004066 -0.0002735 0.0003808 -0.0006186
0.0003202 0.0000029 -0.0125216 0.0098964 -0.0093700 0.0217168 -0.0000655 0.0004776 0.0008667 -0.0023390 0.0001970 -0.0002853 0.0002407 -0.0000063 -0.0008882 -0.0003342 0.0003781 -0.0003924 0.0003632 -0.0007513
0.0007793 -0.0007218 -0.0064456 0.0037054 -0.0078170 0.0056604 -0.0000871 0.0003268 0.0008930 -0.0025955 0.0001780 -0.0005058 0.0002138 -0.0002850 0.0002097 -0.0015625 0.0003563 -0.0006470 0.0003635 -0.0009646
0.0006742 -0.0006250 -0.0073490 0.0070594 -0.0160371 0.0163627 -0.0000848 0.0002330 0.0009058 -0.0026624 0.0001878 -0.0005343 0.0002211 -0.0002672 0.0012670 -0.0028573 0.0003825 -0.0006072 0.0003807 -0.0008984
0.0004728 -0.0002930 -0.0025191 0.0018529 -0.0045698 0.0014329 -0.0000766 0.0003532 0.0008682 -0.0024214 0.0002006 -0.0003793 0.0002228 -0.0000692 0.0007797 -0.0016808 0.0004050 -0.0004168 0.0003827 -0.0007100
0.0004842 -0.0001766 0.0038868 -0.0054206 0.0246125 -0.0502264 -0.0000864 0.0005350 0.0007990 -0.0021008 0.0001927 -0.0001421 0.0001997 0.0001818 0.0012255 -0.0012253 0.0004047 -0.0002090 0.0003724 -0.0005387
0.0003243 0.0001227 0.0051069 -0.0046982 0.0174860 -0.0302368 -0.0001200 0.0006057 0.0007695 -0.0020672 0.0001681 -0.0001981 0.0001644 0.0000464 0.0031211 -0.0037503 0.0003643 -0.0003690 0.0003568 -0.0007071
0.0002035 0.0000054 0.0034239 -0.0024177 0.0107080 -0.0153064 -0.0001397 0.0003912 0.0008191 -0.0024407 0.0001520 -0.0005223 0.0001395 -0.0003317 0.0028138 -0.0038633 0.0003356 -0.0006872 0.0003602 -0.0009744
-0.0005294 0.0005894 0.0034056 -0.0022031 0.0069863 -0.0124993 -0.0001248 0.0002182 0.0008554 -0.0026133 0.0001631 -0.0006064 0.0001481 -0.0003649 0.0020828 -0.0036620 0.0003586 -0.0006807 0.0003813 -0.0009357
-0.0006105 0.0005900 0.0059363 -0.0059681 0.0096543 -0.0131834 -0.0001067 0.0003036 0.0008295 -0.0024000 0.0001792 -0.0004557 0.0001548 -0.0001683 0.0019203 -0.0031845 0.0003856 -0.0005069 0.0003869 -0.0007532
-0.0002093 0.0003577 0.0058671 -0.0047386 0.0055922 0.0010367 -0.0001140 0.0004820 0.0007713 -0.0020875 0.0001784 -0.0002326 0.0001399 0.0000775 0.0009105 -0.0011126 0.0003917 -0.0002908 0.0003748 -0.0005273
-0.0004577 0.0009755 -0.0017427 0.0043043 -0.0019414 0.0162225 -0.0001387 0.0006004 0.0007392 -0.0019831 0.0001614 -0.0002442 0.0001170 -0.0000168 0.0007582 -0.0016571 0.0003526 -0.0004333 0.0003536 -0.0006675
-0.0004746 0.0006772 -0.0024963 0.0027831 -0.0019013 0.0126039 -0.0001525 0.0003914 0.0007900 -0.0023556 0.0001447 -0.0005672 0.0000911 -0.0004180 -0.0010763 -0.0004658 0.0003146 -0.0008326 0.0003475 -0.0010181
-0.0001839 0.0000014 0.0032173 -0.0039184 -0.0001827 0.0037853 -0.0001269 0.0001241 0.0008530 -0.0026698 0.0001521 -0.0007370 0.0001021 -0.0005483 -0.0012586 -0.0004267 0.0003408 -0.0009231 0.0003650 -0.0010424
0.0000977 -0.0001890 -0.0014063 -0.0006479 0.0039035 -0.0114184 -0.0000892 0.0001528 0.0008529 -0.0025439 0.0001743 -0.0006264 0.0001346 -0.0003851 -0.0001440 -0.0014445 0.0003821 -0.0007277 0.0003810 -0.0008538
0.0000208 0.0002035 -0.0071843 0.0049262 -0.0047388 -0.0022926 -0.0000803 0.0003305 0.0008088 -0.0022510 0.0001833 -0.0004053 0.0001388 -0.0001177 -0.0009718 0.0007446 0.0003928 -0.0004181 0.0003772 -0.0005849
-0.0000205 0.0005487 -0.0056029 0.0039533 -0.0182511 0.0110960 -0.0000936 0.0005651 0.0007338 -0.0018906 0.0001780 -0.0001454 0.0001258 0.0001069 -0.0002146 -0.0002396 0.0003592 -0.0002500 0.0003611 -0.0004791
0.0003074 0.0001312 -0.0033204 0.0003419 -0.0195742 0.0153114 -0.0001199 0.0005607 0.0007286 -0.0019745 0.0001540 -0.0002907 0.0001008 -0.0001186 0.0012850 -0.0028971 0.0003031 -0.0004693 0.0003444 -0.0006914
0.0003572 -0.0001489 -0.0047950 0.0023261 -0.0117954 0.0170743 -0.0001240 0.0002842 0.0008023 -0.0024168 0.0001433 -0.0006424 0.0000915 -0.0004567 0.0016009 -0.0030793 0.0002933 -0.0006918 0.0003444 -0.0008354
-0.0001623 0.0003102 -0.0061598 0.0042158 -0.0050283 0.0031822 -0.0000952 0.0001952 0.0008282 -0.0024771 0.0001655 -0.0006447 0.0001152 -0.0003924 0.0011403 -0.0015719 0.0003215 -0.0005681 0.0003559 -0.0007043
-0.0001386 0.0004619 -0.0001414 0.0003455 -0.0040865 0.0034517 -0.0000814 0.0003585 0.0007915 -0.0022064 0.0001809 -0.0004511 0.0001242 -0.0001431 0.0014621 -0.0011079 0.0003307 -0.0002903 0.0003527 -0.0004723
0.0003182 0.0001909 0.0026099 -0.0022837 0.0030132 -0.0064090 -0.0000952 0.0005872 0.0007224 -0.0018571 0.0001790 -0.0001783 0.0001069 0.0001773 0.0023563 -0.0024268 0.0003150 0.0000246 0.0003311 -0.0002017
-0.0000146 0.0005886 0.0004650 0.0000163 0.0010713 -0.0053406 -0.0001280 0.0008425 0.0006417 -0.0015510 0.0001653 -0.0000176 0.0000877 0.0002768 0.0021080 -0.0020049 0.0002633 0.0000861 0.0003008 -0.0001906
-0.0004819 0.0010098 0.0025203 -0.0000572 0.0026545 0.0036410 -0.0001646 0.0008300 0.0006426 -0.0016880 0.0001423 -0.0002340 0.0000618 -0.0000107 0.0001567 -0.0002911 0.0002009 -0.0001788 0.0002771 -0.0004434
-0.0005079 0.0007270 0.0078703 -0.0066785 0.0168281 -0.0167127 -0.0001737 0.0006221 0.0006997 -0.0020182 0.0001403 -0.0004840 0.0000480 -0.0001967 -0.0000783 -0.0003947 0.0001959 -0.0002897 0.0002802 -0.0005150
-0.0005311 0.0006745 0.0055803 -0.0045482 0.0067467 -0.0044518 -0.0001606 0.0006209 0.0006984 -0.0019709 0.0001603 -0.0004170 0.0000628 -0.0000473 0.0010941 -0.0015360 0.0002249 -0.0000963 0.0002895 -0.0003520
-0.0005984 0.0009275 0.0017960 -0.0004769 -0.0090130 0.0132867 -0.0001622 0.0007900 0.0006471 -0.0016981 0.0001725 -0.0001893 0.0000708 0.0002616 0.0001460 -0.0010170 0.0002323 0.0001767 0.0002731 -0.0001073
-0.0007892 0.0013534 0.0017650 -0.0011347 -0.0059006 0.0038292 -0.0001877 0.0010213 0.0005829 -0.0014389 0.0001683 -0.0000547 0.0000612 0.0003792 -0.0008707 0.0001496 0.0001809 0.0001808 0.0002471 -0.0001158
-0.0006597 0.0013002 -0.0014119 0.0021594 -0.0010074 -0.0065252 -0.0002140 0.0010126 0.0005943 -0.0015764 0.0001515 -0.0002499 0.0000383 0.0001203 -0.0005327 -0.0008770 0.0001105 -0.0000801 0.0002430 -0.0003749
-0.0004635 0.0007475 -0.0025727 0.0017191 0.0044438 -0.0128874 -0.0002182 0.0008261 0.0006503 -0.0018810 0.0001528 -0.0004638 0.0000238 -0.0000562 -0.0001804 -0.0018646 0.0001015 -0.0001814 0.0002571 -0.0004645
-0.0004882 0.0008019 -0.0125945 0.0104261 -0.0038080 0.0124275 -0.0002097 0.0008145 0.0006588 -0.0018721 0.0001780 -0.0004336 0.0000326 0.0000507 -0.0004867 -0.0006716 0.0001280 -0.0000441 0.0002720 -0.0003560
-0.0001668 0.0007747 -0.0149366 0.0125503 -0.0126791 0.0187666 -0.0002082 0.0009525 0.0006236 -0.0016504 0.0001982 -0.0002596 0.0000446 0.0002776 -0.0011121 0.0005945 0.0001436 0.0001432 0.0002739 -0.0002279
0.0003784 0.0002407 -0.0080360 0.0060713 -0.0263279 0.0148281 -0.0002211 0.0010031 0.0006152 -0.0016270 0.0001974 -0.0003072 0.0000373 0.0001947 -0.0002267 -0.0002352 0.0001078 0.0000532 0.0002676 -0.0003594
0.0002338 0.0003119 -0.0082194 0.0083959 -0.0166593 0.0150409 -0.0002382 0.0008139 0.0006696 -0.0019169 0.0001965 -0.0005763 0.0000334 -0.0000974 0.0002756 -0.0010425 0.0000814 -0.0001243 0.0002797 -0.0005643
-0.0000419 0.0004039 -0.0030380 0.0028613 -0.0067397 0.0034804 -0.0002277 0.0006869 0.0007034 -0.0020166 0.0002170 -0.0006349 0.0000463 -0.0000902 0.0001097 -0.0004116 0.0001149 -0.0000325 0.0003004 -0.0005077
0.0000005 0.0004111 0.0035534 -0.0044630 0.0040665 -0.0073922 -0.0002064 0.0007969 0.0006811 -0.0018066 0.0002401 -0.0004778 0.0000671 0.0001246 0.0011626 -0.0007773 0.0001518 0.0000751 0.0002992 -0.0003339
-0.0001498 0.0007776 0.0047018 -0.0033064 0.0014914 0.0009126 -0.0002099 0.0010173 0.0005762 -0.0014285 0.0002523 -0.0002720 0.0000925 0.0002669 0.0023825 -0.0025081 0.0001428 -0.0000459 0.0002714 -0.0003528
-0.0002239 0.0007289 0.0031222 -0.0013104 -0.0035692 0.0027836 -0.0002217 0.0009969 0.0005911 -0.0015856 0.0002478 -0.0004299 0.0000890 0.0000357 0.0020833 -0.0027895 0.0000960 -0.0003848 0.0002551 -0.0006233
-0.0009077 0.0011155 0.0031868 -0.0015386 -0.0005645 -0.0026470 -0.0002130 0.0007407 0.0007217 -0.0021058 0.0002495 -0.0007279 0.0000866 -0.0002280 0.0015414 -0.0024543 0.0000883 -0.0005240 0.0002758 -0.0007236
-0.0009818 0.0009181 0.0052320 -0.0048342 0.0048182 -0.0079620 -0.0001811 0.0006826 0.0007469 -0.0021196 0.0002733 -0.0007054 0.0001113 -0.0001549 0.0012782 -0.0019381 0.0001193 -0.0002330 0.0002996 -0.0005751
-0.0005393 0.0005962 0.0053856 -0.0040489 0.0021138 0.0056897 -0.0001596 0.0008185 0.0007125 -0.0018642 0.0002877 -0.0005232 0.0001265 0.0000452 0.0002306 -0.0003550 0.0001447 -0.0000263 0.0002674 -0.0004432
-0.0007198 0.0011550 -0.0027095 0.0057253 -0.0061737 0.0226384 -0.0001874 0.0009844 0.0006566 -0.0016182 0.0002804 -0.0003995 0.0001222 0.0000893 0.0000996 -0.0007450 0.0001169 -0.0001470 0.0002198 -0.0005275
-0.0006403 0.0008480 -0.0040249 0.0043551 -0.0038683 0.0150058 -0.0002209 0.0008741 0.0006814 -0.0017768 0.0002544 -0.0006174 0.0001045 -0.0001633 -0.0014418 0.0004469 0.0000787 -0.0001984 0.0002372 -0.0006771
-0.0002704 0.0001254 0.0015890 -0.0023820 -0.0008288 0.0020552 -0.0002100 0.0006277 0.0007515 -0.0021192 0.0002373 -0.0008816 0.0000877 -0.0003503 -0.0014566 0.0008371 0.0001029 -0.0000528 0.0002752 -0.0005997
-0.0000330 0.0000185 -0.0016604 0.0009636 -0.0070095 -0.0011390 -0.0001817 0.0006167 0.0007528 -0.0021147 0.0002466 -0.0008020 0.0000998 -0.0002173 -0.0002521 -0.0002236 0.0001314 0.0001354 0.0002840 -0.0003910
-0.0000726 0.0004019 -0.0045749 0.0034776 -0.0140382 -0.0043525 -0.0001706 0.0007660 0.0007050 -0.0018635 0.0002582 -0.0005323 0.0001219 0.0000875 -0.0003509 0.0003397 0.0001217 0.0003722 0.0002696 -0.0001491
-0.0000546 0.0007158 -0.0034835 0.0029279 -0.0131484 -0.0033685 -0.0001784 0.0009906 0.0006363 -0.0015418 0.0002570 -0.0002854 0.0001282 0.0002723 0.0003950 -0.0005047 0.0000722 0.0004425 0.0002472 -0.0000809
0.0001612 0.0004383 -0.0021618 0.0007659 -0.0032613 -0.0235254 -0.0001821 0.0010279 0.0006455 -0.0016570 0.0002467 -0.0004130 0.0001263 0.0000684 0.0012320 -0.0022197 -0.0000117 0.0001147 0.0002327 -0.0003017
0.0002931 0.0001668 -0.0043078 0.0027335 -0.0050972 0.0002342 -0.0001973 0.0007944 0.0007094 -0.0019869 0.0002640 -0.0006085 0.0001279 -0.0001233 0.0014845 -0.0025947 -0.0000497 -0.0001585 0.0002334 -0.0004382
-0.0001719 0.0006340 -0.0050761 0.0039624 -0.0069672 0.0095639 -0.0002209 0.0006544 0.0007158 -0.0019343 0.0002964 -0.0004855 0.0001340 0.0000095 0.0015608 -0.0020673 -0.0000200 0.0000126 0.0002410 -0.0002832
-0.0001654 0.0006836 0.0013625 -0.0008910 -0.0015982 0.0023353 -0.0002260 0.0007796 0.0006696 -0.0016550 0.0003016 -0.0002506 0.0001232 0.0002775 0.0018545 -0.0015594 0.0000057 0.0003484 0.0002320 -0.0000043
0.0003437 0.0003216 0.0040184 -0.0031591 0.0044525 -0.0012166 -0.0002391 0.0010209 0.0003880 -0.0007736 0.0002884 0.0000276 0.0001028 0.0005441 0.0021436 -0.0012822 -0.0000074 0.0005607 0.0002082 0.0001431
0.0000012 0.0005178 0.0011903 -0.0005225 -0.0044432 0.0071058 -0.0002695 0.0010638 0.0003760 -0.0008134 0.0002635 -0.0000605 0.0000687 0.0004013 0.0015808 -0.0004091 -0.0000574 0.0004099 0.0001861 -0.0000029
-0.0004300 0.0007494 0.0027645 -0.0004209 -0.0013077 0.0089330 -0.0002820 0.0008801 0.0006346 -0.0016897 0.0002460 -0.0003310 0.0000422 0.0001371 -0.0004851 0.0013113 -0.0000803 0.0002199 0.0001839 -0.0001192
-0.0003995 0.0006314 0.0081743 -0.0064598 0.0116210 -0.0029377 -0.0002712 0.0008275 0.0006470 -0.0017237 0.0002472 -0.0002904 0.0000409 0.0002294 -0.0002807 0.0003335 -0.0000574 0.0003602 0.0001912 0.0000132
-0.0003257 0.0006293 0.0058671 -0.0048899 0.0075949 -0.0005422 -0.0002681 0.0009772 0.0006036 -0.0014940 0.0002456 -0.0000883 0.0000388 0.0004637 0.0007884 -0.0005427 -0.0000416 0.0006285 0.0001831 0.0002347
-0.0004192 0.0009729 0.0015906 -0.0002133 -0.0041953 0.0061889 -0.0002831 0.0011836 0.0004272 -0.0008717 0.0002302 0.0001310 0.0000299 0.0006288 -0.0007441 0.0009415 -0.0000681 0.0007388 0.0001630 0.0002914
-0.0006191 0.0011635 0.0012000 -0.0009165 -0.0034627 0.0024520 -0.0003047 0.0011712 0.0004285 -0.0009630 0.0002065 0.0000341 -0.0000004 0.0004878 -0.0016380 0.0013466 -0.0001080 0.0005497 0.0001477 0.0001258
-0.0003362 0.0008464 -0.0024848 0.0025235 -0.0070335 0.0057944 -0.0003144 0.0010125 0.0005846 -0.0015829 0.0001909 -0.0001495 -0.0000252 0.0003493 -0.0010020 0.0005914 -0.0001068 0.0004702 0.0001521 0.0000820
-0.0000656 0.0005478 -0.0039619 0.0030112 -0.0179725 0.0095557 -0.0003087 0.0010218 0.0005785 -0.0015331 0.0001888 -0.0000395 -0.0000336 0.0005079 -0.0001336 -0.0004415 -0.0000842 0.0006813 0.0001519 0.0002550
-0.0001319 0.0008033 -0.0122292 0.0098721 -0.0059271 0.0130583 -0.0003096 0.0011701 0.0005235 -0.0012783 0.0001820 0.0001958 -0.0000570 0.0007921 -0.0006476 0.0007846 -0.0000787 0.0009421 0.0001294 0.0004927
0.0001361 0.0009628 -0.0117161 0.0107586 -0.0067141 0.0192883 -0.0003321 0.0013268 0.0004256 -0.0010284 0.0001630 0.0002554 -0.0000871 0.0007937 -0.0014302 0.0019532 -0.0001171 0.0008484 0.0001004 0.0004112
0.0006528 0.0002248 -0.0062886 0.0051859 -0.0155433 0.0132206 -0.0003525 0.0011844 0.0004721 -0.0013422 0.0001424 0.0000035 -0.0001071 0.0004577 0.0000938 0.0000550 -0.0001496 0.0004887 0.0000915 0.0001094
0.0004485 0.0001244 -0.0068012 0.0073901 -0.0114596 0.0152482 -0.0003432 0.0009284 0.0005909 -0.0017754 0.0001395 -0.0001454 -0.0001130 0.0003486 0.0012275 -0.0014104 -0.0001281 0.0004051 0.0001058 0.0000724
0.0001455 0.0004385 -0.0004993 0.0018536 -0.0030534 0.0094680 -0.0003194 0.0009296 0.0005882 -0.0016869 0.0001443 -0.0000183 -0.0001212 0.0005350 0.0007376 -0.0002978 -0.0001016 0.0005822 0.0001141 0.0002331
0.0001692 0.0005066 0.0069124 -0.0068013 0.0136558 -0.0185361 -0.0003122 0.0010740 0.0005461 -0.0014307 0.0001383 0.0002081 -0.0001376 0.0007988 0.0011811 0.0003447 -0.0000977 0.0008183 0.0001028 0.0004480
-0.0001006 0.0010124 0.0066895 -0.0039650 0.0066825 0.0011361 -0.0003270 0.0011746 0.0005229 -0.0013449 0.0001206 0.0002143 -0.0001578 0.0007359 0.0023686 -0.0010923 -0.0001338 0.0006797 0.0000824 0.0003289
-0.0002271 0.0008475 0.0045481 -0.0019085 0.0011770 0.0046662 -0.0003332 0.0009625 0.0005818 -0.0017137 0.0001060 -0.0000730 -0.0001761 0.0003752 0.0013842 -0.0010782 -0.0001566 0.0003165 0.0000842 0.0000147
-0.0008294 0.0011311 0.0048748 -0.0029138 0.0052451 -0.0058274 -0.0003019 0.0006923 0.0006521 -0.0020258 0.0001088 -0.0001990 -0.0001744 0.0002890 0.0006033 -0.0007109 -0.0001242 0.0002690 0.0001097 -0.0000046
-0.0008690 0.0011792 0.0050758 -0.0036000 0.0009849 0.0022343 -0.0002616 0.0006923 0.0006558 -0.0019148 0.0001191 -0.0000686 -0.0001607 0.0004624 0.0006331 -0.0006297 -0.0000933 0.0004474 0.0001246 0.0001577
-0.0004832 0.0009399 0.0044999 -0.0024322 0.0018174 -0.0007426 -0.0002429 0.0008175 0.0006168 -0.0016583 0.0001219 0.0001397 -0.0001587 0.0007034 -0.0001979 0.0005116 -0.0000893 0.0006924 0.0001136 0.0003803
-0.0005975 0.0014957 -0.0050410 0.0084175 0.0007485 0.0094284 -0.0002487 0.0009685 0.0005729 -0.0014510 0.0001105 0.0002368 -0.0001664 0.0007254 -0.0003911 0.0003586 -0.0001257 0.0006554 0.0000876 0.0003364
-0.0003596 0.0010146 -0.0075974 0.0074526 0.0017226 -0.0020966 -0.0002590 0.0008273 0.0006064 -0.0017162 0.0000874 0.0000143 -0.0001809 0.0004100 -0.0018076 0.0009414 -0.0001556 0.0003290 0.0000766 0.0000478
0.0001204 0.0000938 -0.0011664 0.0001881 -0.0003003 -0.0041628 -0.0002419 0.0005280 0.0006799 -0.0021153 0.0000793 -0.0001914 -0.0001758 0.0002337 -0.0018424 0.0007812 -0.0001292 0.0002194 0.0000925 -0.0000274
0.0003369 0.0000685 -0.0064655 0.0061762 -0.0109564 0.0128762 -0.0002064 0.0004829 0.0006935 -0.0020855 0.0000902 -0.0001171 -0.0001534 0.0003548 -0.0012671 0.0004986 -0.0000924 0.0003925 0.0001075 0.0001205
0.0002584 0.0003949 -0.0098310 0.0080743 -0.0263074 0.0165191 -0.0001823 0.0005984 0.0006608 -0.0018462 0.0000896 0.0000723 -0.0001557 0.0005812 -0.0017493 0.0022796 -0.0000882 0.0006377 0.0000975 0.0003358
0.0002453 0.0006314 -0.0041585 0.0030456 -0.0156495 0.0035082 -0.0001882 0.0007803 0.0005987 -0.0015455 0.0000781 0.0003016 -0.0001637 0.0007808 -0.0002677 0.0011060 -0.0001098 0.0007566 0.0000741 0.0004084
0.0004176 0.0003188 0.0008033 -0.0019184 -0.0005785 -0.0185146 -0.0002146 0.0007758 0.0005913 -0.0016181 0.0000553 0.0001880 -0.0001844 0.0005985 0.0018638 -0.0022705 -0.0001405 0.0005424 0.0000570 0.0002084
0.0003860 0.0001321 -0.0001605 0.0004556 -0.0055101 -0.0036975 -0.0002206 0.0005549 0.0006500 -0.0019872 0.0000392 -0.0000942 -0.0002023 0.0003202 0.0013836 -0.0017519 -0.0001435 0.0003441 0.0000600 0.0000672
-0.0004331 0.0009564 -0.0003978 0.0018458 -0.0053559 0.0068969 -0.0002028 0.0004700 0.0006697 -0.0020497 0.0000456 -0.0000814 -0.0001930 0.0003829 0.0009371 -0.0006725 -0.0001194 0.0004601 0.0000713 0.0001733
-0.0005037 0.0009339 0.0048074 -0.0037441 0.0050473 0.0020796 -0.0001949 0.0005740 0.0006351 -0.0018375 0.0000475 0.0000881 -0.0001943 0.0005966 0.0013158 -0.0006418 -0.0001135 0.0006679 0.0000635 0.0003656
-0.0000165 0.0005838 0.0060822 -0.0041043 0.0080222 -0.0057367 -0.0002092 0.0007500 0.0005719 -0.0015397 0.0000341 0.0003275 -0.0002135 0.0008526 0.0014469 -0.0005516 -0.0001336 0.0008412 0.0000378 0.0005167
-0.0003768 0.0009854 0.0009159 0.0014045 0.0005570 0.0025421 -0.0002385 0.0008046 0.0005525 -0.0015392 0.0000106 0.0002490 -0.0002406 0.0006983 0.0014104 -0.0008436 -0.0001791 0.0006326 0.0000127 0.0003209
-0.0007107 0.0009882 0.0010275 0.0013182 -0.0021142 0.0052960 -0.0002527 0.0005606 0.0006125 -0.0019747 -0.0000093 -0.0001061 -0.0002564 0.0002949 -0.0017617 0.0020888 -0.0002045 0.0002749 0.0000137 0.0000179
-0.0005574 0.0005535 0.0065889 -0.0050314 0.0031986 -0.0095187 -0.0002324 0.0003547 0.0006602 -0.0022084 -0.0000010 -0.0002137 -0.0002435 0.0002395 -0.0022244 0.0017595 -0.0001696 0.0002634 0.0000376 0.0000236
-0.0002972 0.0002835 0.0033947 -0.0038210 0.0089304 -0.0168879 -0.0002150 0.0004210 0.0006453 -0.0020423 0.0000138 -0.0000818 -0.0002235 0.0004096 -0.0002806 -0.0002312 -0.0001309 0.0004404 0.0000502 0.0001878
-0.0003611 0.0006399 -0.0026148 0.0026400 0.0046578 -0.0070797 -0.0002183 0.0005899 0.0005948 -0.0017583 0.0000115 0.0001367 -0.0002324 0.0006796 -0.0011137 0.0014586 -0.0001286 0.0006652 0.0000371 0.0004119
-0.0004251 0.0010000 -0.0030674 0.0029887 -0.0105557 0.0086482 -0.0002379 0.0008004 0.0005216 -0.0014259 -0.0000017 0.0003767 -0.0002491 0.0008764 -0.0013610 0.0017506 -0.0001573 0.0007534 0.0000130 0.0004576
-0.0000334 0.0006141 -0.0051298 0.0037565 -0.0272364 0.0221765 -0.0002772 0.0007900 0.0005166 -0.0015288 -0.0000281 0.0002140 -0.0002745 0.0006255 -0.0006147 0.0002004 -0.0001959 0.0004798 -0.0000008 0.0001825
0.0001612 0.0000619 -0.0070987 0.0046080 -0.0184919 0.0099005 -0.0002891 0.0005093 0.0005851 -0.0019782 -0.0000370 -0.0001597 -0.0002919 0.0002805 0.0000715 -0.0011980 -0.0001851 0.0002138 0.0000079 -0.0000150
-0.0000820 0.0001098 -0.0105817 0.0074906 -0.0088347 0.0075536 -0.0002677 0.0003910 0.0006137 -0.0020743 -0.0000198 -0.0001949 -0.0002711 0.0003058 -0.0001444 -0.0004347 -0.0001435 0.0002977 0.0000237 0.0000775
0.0000839 0.0002360 -0.0054422 0.0055859 -0.0071139 0.0191360 -0.0002568 0.0005188 0.0005849 -0.0018442 -0.0000086 -0.0000313 -0.0002643 0.0005139 -0.0002949 0.0002538 -0.0001316 0.0005266 0.0000278 0.0002791
0.0005798 -0.0000840 -0.0012116 0.0014276 -0.0057744 0.0102216 -0.0002689 0.0007079 0.0005211 -0.0015229 -0.0000148 0.0002141 -0.0002748 0.0007954 0.0009081 -0.0007438 -0.0001439 0.0007962 0.0000129 0.0005241
0.0002687 0.0002882 -0.0016911 0.0027329 -0.0094218 0.0025815 -0.0003045 0.0009310 0.0004351 -0.0011671 -0.0000345 0.0005050 -0.0002962 0.0011004 0.0009938 -0.0000437 -0.0001763 0.0010291 -0.0000145 0.0006984
-0.0002048 0.0008593 0.0023711 0.0004926 -0.0000031 -0.0012881 -0.0003500 0.0010184 0.0004018 -0.0011368 -0.0000622 0.0004139 -0.0003334 0.0009379 -0.0001981 0.0009503 -0.0002245 0.0008791 -0.0000428 0.0005049
-0.0002754 0.0005729 0.0085523 -0.0074781 0.0119551 -0.0079316 -0.0003778 0.0008135 0.0004479 -0.0015173 -0.0000829 0.0000302 -0.0003530 0.0005110 0.0004796 -0.0006997 -0.0002300 0.0005617 -0.0000472 0.0002173
-0.0004851 0.0005041 0.0068835 -0.0047615 0.0075628 0.0016014 -0.0003728 0.0006427 0.0004752 -0.0016993 -0.0000781 -0.0000732 -0.0003437 0.0004544 0.0016892 -0.0021884 -0.0001945 0.0005428 -0.0000351 0.0002189
-0.0005257 0.0005385 0.0037897 -0.0017190 0.0013537 -0.0001111 -0.0003617 0.0007127 0.0004519 -0.0015407 -0.0000679 0.0000469 -0.0003314 0.0006007 0.0005688 -0.0010877 -0.0001741 0.0006791 -0.0000385 0.0003491
-0.0008249 0.0009497 0.0039334 -0.0027344 0.0040382 -0.0090326 -0.0003713 0.0008733 0.0003995 -0.0012938 -0.0000718 0.0002482 -0.0003431 0.0008387 -0.0007322 0.0010047 -0.0001774 0.0008406 -0.0000573 0.0005279
-0.0007625 0.0011821 0.0016026 0.0002434 0.0006644 0.0006591 -0.0004000 0.0010217 0.0003580 -0.0011760 -0.0000880 0.0002682 -0.0003609 0.0008000 -0.0006292 0.0000580 -0.0002117 0.0006848 -0.0000826 0.0003889
-0.0005260 0.0006680 0.0008177 0.0002405 -0.0034702 0.0064370 -0.0004261 0.0008961 0.0003872 -0.0014598 -0.0001067 0.0000008 -0.0003747 0.0004603 -0.0008756 -0.0005123 -0.0002318 0.0003117 -0.0000843 0.0000448
-0.0005780 0.0004860 -0.0090506 0.0093937 0.0018329 0.0103205 -0.0004215 0.0006757 0.0004347 -0.0017480 -0.0001007 -0.0001623 -0.0003791 0.0003589 -0.0008159 -0.0003064 -0.0001999 0.0002946 -0.0000529 0.0000010
-0.0001739 0.0001025 -0.0125451 0.0102477 0.0033942 0.0024420 -0.0004019 0.0007024 0.0004282 -0.0016389 -0.0000828 -0.0000542 -0.0003638 0.0005321 -0.0013460 0.0003912 -0.0001640 0.0005712 -0.0000248 0.0001831
0.0003966 -0.0003995 -0.0053667 0.0036012 -0.0056736 0.0001772 -0.0003955 0.0008625 0.0003841 -0.0013568 -0.0000756 0.0001651 -0.0003518 0.0007882 -0.0013880 0.0015493 -0.0001532 0.0008477 -0.0000240 0.0004285
0.0003708 0.0000407 -0.0075841 0.0084840 -0.0155987 0.0254866 -0.0004122 0.0010533 0.0003312 -0.0010995 -0.0000805 0.0003024 -0.0003519 0.0008566 -0.0004937 0.0003057 -0.0001729 0.0008691 -0.0000408 0.0004043
0.0001562 0.0001415 -0.0055051 0.0050151 -0.0104097 0.0157563 -0.0004338 0.0009652 0.0003473 -0.0012795 -0.0000967 0.0000792 -0.0003702 0.0005611 -0.0002326 -0.0000445 -0.0001990 0.0005722 -0.0000462 0.0000989
0.0001676 -0.0002813 0.0012072 -0.0026011 0.0107364 -0.0261728 -0.0004254 0.0006851 0.0004090 -0.0016498 -0.0000954 -0.0001998 -0.0003661 0.0003284 0.0007239 -0.0010029 -0.0001741 0.0004065 -0.0000261 -0.0000241
0.0001775 -0.0003744 0.0040094 -0.0041496 0.0097396 -0.0233941 -0.0003948 0.0006283 0.0004194 -0.0016390 -0.0000740 -0.0001690 -0.0003377 0.0004164 0.0020749 -0.0026282 -0.0001251 0.0005304 -0.0000062 0.0001032
0.0001638 -0.0001499 0.0023399 -0.0009452 0.0052908 -0.0107717 -0.0003763 0.0007465 0.0003879 -0.0013993 -0.0000612 0.0000078 -0.0003256 0.0006310 0.0015923 -0.0011347 -0.0001120 0.0007221 -0.0000084 0.0003064
-0.0006091 0.0009397 0.0019616 0.0005595 0.0085883 -0.0201993 -0.0003851 0.0009214 0.0003350 -0.0011246 -0.0000652 0.0001790 -0.0003248 0.0007319 0.0007870 -0.0005336 -0.0001359 0.0007515 -0.0000241 0.0003043
-0.0007404 0.0007335 0.0055675 -0.0046649 0.0202340 -0.0507293 -0.0004083 0.0008652 0.0003371 -0.0012462 -0.0000829 0.0000013 -0.0003441 0.0004861 0.0006085 -0.0008414 -0.0001634 0.0005014 -0.0000326 0.0000440
-0.0002960 -0.0000981 0.0062202 -0.0051449 0.0051217 -0.0024881 -0.0004097 0.0006082 0.0003914 -0.0015951 -0.0000867 -0.0002815 -0.0003456 0.0002470 0.0003280 -0.0007246 -0.0001469 0.0003684 -0.0000152 -0.0000758
-0.0005561 0.0002203 -0.0003719 0.0025183 -0.0031142 0.0151192 -0.0003803 0.0005378 0.0004075 -0.0015957 -0.0000687 -0.0002559 -0.0003190 0.0003250 0.0003548 -0.0009417 -0.0001088 0.0005161 0.0000038 0.0000453
-0.0006134 0.0004084 -0.0001375 0.0018533 -0.0001388 0.0072821 -0.0003578 0.0006428 0.0003768 -0.0013660 -0.0000610 -0.0000888 -0.0003069 0.0005196 -0.0022527 0.0018139 -0.0001009 0.0006346 -0.0000029 0.0002271
-0.0003513 0.0003386 0.0054456 -0.0040443 0.0052991 0.0025073 -0.0003653 0.0008058 0.0003208 -0.0010923 -0.0000685 0.0000985 -0.0003013 0.0006351 -0.0023215 0.0013693 -0.0001209 0.0006212 -0.0000193 0.0002478
-0.0001075 -0.0000106 0.0016162 -0.0024974 0.0007418 0.0018234 -0.0003885 0.0007702 0.0003204 -0.0011866 -0.0000875 -0.0000465 -0.0003100 0.0004104 -0.0008977 0.0004511 -0.0001429 0.0004527 -0.0000299 0.0000345
-0.0002145 -0.0000731 -0.0043396 0.0029243 -0.0027029 -0.0062419 -0.0003884 0.0005418 0.0003686 -0.0015169 -0.0000969 -0.0003242 -0.0003169 0.0001549 -0.0016738 0.0013751 -0.0001220 0.0002971 -0.0000320 -0.0001274
-0.0002642 -0.0000101 -0.0041810 0.0024421 -0.0009769 -0.0237878 -0.0003642 0.0004856 0.0003795 -0.0015443 -0.0000870 -0.0003064 -0.0003057 0.0002079 -0.0010940 0.0000905 -0.0000777 0.0002942 -0.0000345 -0.0000630
0.0001640 -0.0002689 -0.0046194 0.0020396 -0.0382072 0.0118534 -0.0003553 0.0006024 0.0003474 -0.0013546 -0.0000890 -0.0001436 -0.0003033 0.0003920 -0.0002137 -0.0002635 -0.0000613 0.0003930 -0.0000435 0.0001226
0.0003300 -0.0002233 -0.0061071 0.0038768 -0.0205623 0.0180920 -0.0003728 0.0007515 0.0003061 -0.0011863 -0.0001034 -0.0000700 -0.0003087 0.0003955 0.0002857 -0.0010136 -0.0000798 0.0003073 -0.0000596 0.0000404
-0.0000042 -0.0001155 -0.0098267 0.0066610 -0.0052394 0.0106251 -0.0003824 0.0006418 -0.0000662 -0.0002212 -0.0001219 -0.0003279 -0.0003211 0.0000674 -0.0004655 -0.0008214 -0.0001017 -0.0000286 -0.0000591 -0.0002858
0.0000708 -0.0004657 -0.0050473 0.0040284 0.0012677 -0.0002599 -0.0003646 0.0003410 -0.0005595 0.0012325 -0.0001244 -0.0005983 -0.0003246 -0.0001451 -0.0002496 -0.0008252 -0.0000773 -0.0001482 -0.0000312 -0.0003826
0.0006030 -0.0010352 -0.0013761 0.0001456 0.0002383 -0.0079221 -0.0003335 0.0002558 -0.0001598 0.0000138 -0.0001053 -0.0005720 -0.0003034 -0.0000513 0.0012939 -0.0025003 -0.0000330 -0.0000087 -0.0000026 -0.0002559
0.0004035 -0.0007565 -0.0023260 0.0019755 -0.0143611 0.0101806 -0.0003118 0.0003617 0.0004047 -0.0017223 -0.0000895 -0.0004100 -0.0002854 0.0001473 0.0013775 -0.0025069 -0.0000144 0.0001893 0.0000047 -0.0000621
0.0000605 -0.0001781 0.0019882 -0.0003140 -0.0038255 0.0075832 -0.0003112 0.0004901 0.0003828 -0.0015643 -0.0000909 -0.0003701 -0.0002833 0.0001243 -0.0003036 -0.0007649 -0.0000295 0.0001232 -0.0000024 -0.0001374
0.0000508 -0.0003723 0.0079975 -0.0077216 0.0124737 -0.0086383 -0.0003103 0.0003356 -0.0001460 0.0001256 -0.0001003 -0.0006132 -0.0002865 -0.0001918 0.0000599 -0.0009194 -0.0000358 -0.0001919 0.0000040 -0.0004274
-0.0001487 -0.0004721 0.0067810 -0.0053009 0.0084256 -0.0018164 -0.0002821 0.0000691 -0.0006403 0.0016942 -0.0000910 -0.0007976 -0.0002704 -0.0003368 0.0022257 -0.0033338 0.0000059 -0.0002945 0.0000290 -0.0004862
-0.0001754 -0.0004858 0.0045203 -0.0031587 0.0043785 -0.0049174 -0.0002342 0.0000493 -0.0000926 -0.0001080 -0.0000706 -0.0007197 -0.0002336 -0.0002137 0.0018642 -0.0033659 0.0000492 -0.0001626 0.0000498 -0.0003504
-0.0005373 0.0000344 0.0049417 -0.0043225 0.0081410 -0.0105150 -0.0002036 0.0001670 0.0004768 -0.0018558 -0.0000607 -0.0005407 -0.0002119 -0.0000055 0.0005260 -0.0012569 0.0000603 0.0000346 0.0000479 -0.0001491
-0.0005249 0.0003036 0.0036450 -0.0025136 0.0055790 -0.0001889 -0.0002072 0.0003231 0.0004450 -0.0016648 -0.0000655 -0.0004726 -0.0002063 -0.0000011 -0.0000199 -0.0010857 0.0000385 -0.0000095 0.0000323 -0.0002079
-0.0002778 -0.0001105 0.0029418 -0.0020467 0.0086529 -0.0104108 -0.0002189 0.0002016 -0.0001045 0.0000515 -0.0000815 -0.0006944 -0.0002148 -0.0002914 -0.0003115 -0.0012919 0.0000205 -0.0003158 0.0000273 -0.0004843
-0.0003631 -0.0001339 -0.0065680 0.0075585 0.0026925 0.0055287 -0.0002015 -0.0000683 -0.0006206 0.0017241 -0.0000812 -0.0008830 -0.0002057 -0.0004373 -0.0003205 -0.0015964 0.0000476 -0.0004215 0.0000411 -0.0005394
-0.0000107 -0.0005182 -0.0095478 0.0075392 -0.0035435 0.0094667 -0.0001673 -0.0000882 -0.0000799 -0.0000481 -0.0000666 -0.0008000 -0.0001746 -0.0003057 -0.0017008 -0.0005088 0.0000751 -0.0002764 0.0000532 -0.0003967
0.0004754 -0.0009431 -0.0022245 0.0003816 -0.0035253 0.0009958 -0.0001526 0.0000532 0.0004919 -0.0018850 -0.0000639 -0.0006095 -0.0001595 -0.0000892 -0.0013921 0.0003271 0.0000737 -0.0000817 0.0000435 -0.0001948
0.0005507 -0.0006106 -0.0058292 0.0056202 -0.0066038 0.0130803 -0.0001678 0.0002496 0.0004356 -0.0015940 -0.0000706 -0.0004214 -0.0001577 0.0000364 -0.0006924 -0.0004100 0.0000471 -0.0000329 0.0000228 -0.0001699
0.0003819 -0.0004184 -0.0080190 0.0061302 -0.0151585 0.0219358 -0.0001955 0.0002100 0.0004144 -0.0016953 -0.0000899 -0.0005649 -0.0001824 -0.0001705 -0.0015596 0.0006065 0.0000165 -0.0002284 0.0000086 -0.0003933
0.0003716 -0.0006918 -0.0037681 0.0014235 -0.0086610 0.0105924 -0.0001967 -0.0000277 0.0000375 -0.0005634 -0.0000997 -0.0008237 -0.0001925 -0.0003730 -0.0002062 -0.0006386 0.0000313 -0.0003417 0.0000155 -0.0005003
0.0005671 -0.0010600 0.0003857 -0.0027081 0.0014083 -0.0142444 -0.0001753 -0.0000800 0.0000529 -0.0005622 -0.0000898 -0.0007879 -0.0001730 -0.0002630 0.0015891 -0.0029882 0.0000621 -0.0002231 0.0000292 -0.0003858
0.0005695 -0.0008339 -0.0004919 -0.0000886 -0.0035972 -0.0006227 -0.0001674 0.0000391 0.0004505 -0.0018334 -0.0000855 -0.0006220 -0.0001658 -0.0000677 0.0014969 -0.0019054 0.0000654 -0.0000300 0.0000240 -0.0002021
-0.0000835 0.0001261 -0.0006974 0.0014561 -0.0004773 0.0051263 -0.0001826 0.0001946 0.0004278 -0.0016703 -0.0000912 -0.0005473 -0.0001719 -0.0000537 0.0010031 -0.0009933 0.0000422 -0.0000445 0.0000076 -0.0002456
-0.0001790 -0.0000678 0.0036789 -0.0033865 0.0111409 -0.0128489 -0.0002004 0.0000956 -0.0001475 0.0001427 -0.0001052 -0.0007377 -0.0001977 -0.0002714 0.0012453 -0.0019837 0.0000212 -0.0002675 0.0000029 -0.0004840
0.0002428 -0.0008071 0.0048382 -0.0047938 0.0127387 -0.0168064 -0.0001949 -0.0001253 -0.0007987 0.0022666 -0.0001080 -0.0008941 -0.0002038 -0.0003633 0.0017868 -0.0031703 0.0000367 -0.0003119 0.0000184 -0.0005335
-0.0000193 -0.0005790 0.0014102 -0.0012477 0.0002551 0.0012643 -0.0001785 -0.0001055 -0.0002952 0.0006203 -0.0000947 -0.0007925 -0.0001896 -0.0002139 0.0010418 -0.0017214 0.0000610 -0.0001583 0.0000283 -0.0003936
-0.0003235 -0.0000764 0.0024095 -0.0006680 0.0025603 0.0000340 -0.0001697 0.0000383 0.0004083 -0.0016693 -0.0000897 -0.0005895 -0.0001909 0.0000145 -0.0020033 0.0021595 0.0000594 0.0000241 0.0000236 -0.0002349
-0.0002424 -0.0000076 0.0069152 -0.0054537 0.0099036 -0.0050210 -0.0001777 0.0000923 0.0002328 -0.0011881 -0.0001002 -0.0006461 -0.0002024 -0.0001097 -0.0021807 0.0007955 0.0000349 -0.0001273 0.0000121 -0.0004096
-0.0001552 -0.0004198 0.0044651 -0.0046271 0.0079560 -0.0075433 -0.0001843 -0.0001462 -0.0006866 0.0016911 -0.0001095 -0.0009702 -0.0002032 -0.0004933 -0.0003863 -0.0020210 0.0000327 -0.0004550 0.0000159 -0.0007218
-0.0002397 -0.0005798 0.0006571 -0.0010910 -0.0076940 0.0050098 -0.0001554 -0.0003852 -0.0013304 0.0038806 -0.0000936 -0.0010825 -0.0001732 -0.0005639 -0.0009039 -0.0010425 0.0000667 -0.0004823 0.0000407 -0.0007368
-0.0003081 -0.0003989 0.0006539 -0.0016500 -0.0054304 -0.0000943 -0.0001140 -0.0003530 -0.0012475 0.0037690 -0.0000672 -0.0009569 -0.0001477 -0.0003868 -0.0013311 -0.0003420 0.0000956 -0.0003255 0.0000570 -0.0005889
0.0000009 -0.0003625 -0.0020893 0.0014668 0.0011924 -0.0096561 -0.0000992 -0.0002055 -0.0004337 0.0011350 -0.0000595 -0.0007787 -0.0001386 -0.0002500 -0.0011898 -0.0001869 0.0000928 -0.0002661 0.0000554 -0.0005573
0.0001918 -0.0006041 -0.0030614 0.0014427 -0.0026531 -0.0052241 -0.0001061 -0.0002573 -0.0004876 0.0012125 -0.0000678 -0.0008998 -0.0001397 -0.0004531 -0.0005296 -0.0017381 0.0000770 -0.0004756 0.0000488 -0.0007649
0.0000907 -0.0007642 -0.0096996 0.0065298 -0.0057152 0.0108729 -0.0000984 -0.0005215 -0.0012780 0.0037404 -0.0000646 -0.0011584 -0.0001326 -0.0007005 -0.0008029 -0.0018186 0.0000969 -0.0006253 0.0000618 -0.0008957
0.0003376 -0.0009125 -0.0097210 0.0073976 -0.0084180 0.0162788 -0.0000654 -0.0006122 -0.0012465 0.0036829 -0.0000418 -0.0011450 -0.0001036 -0.0006374 -0.0013212 -0.0006968 0.0001396 -0.0005303 0.0000854 -0.0008044
0.0008511 -0.0013165 -0.0049740 0.0030848 -0.0059565 -0.0000107 -0.0000390 -0.0005157 -0.0011875 0.0036664 -0.0000265 -0.0009939 -0.0000800 -0.0004646 0.0001262 -0.0017056 0.0001656 -0.0003615 0.0000921 -0.0006391
0.0007205 -0.0009375 -0.0053869 0.0058409 -0.0204156 0.0264972 -0.0000371 -0.0004312 -0.0011731 0.0036636 -0.0000275 -0.0009841 -0.0000720 -0.0005165 0.0011654 -0.0033415 0.0001573 -0.0004226 0.0000849 -0.0007178
0.0004607 -0.0008325 -0.0009575 0.0012256 -0.0085337 0.0162169 -0.0000381 -0.0005889 -0.0012083 0.0035934 -0.0000314 -0.0011850 -0.0000693 -0.0007702 0.0009476 -0.0034262 0.0001553 -0.0006442 0.0000875 -0.0009367
0.0004781 -0.0011528 0.0049949 -0.0062455 0.0224836 -0.0414949 -0.0000187 -0.0007781 -0.0012022 0.0034825 -0.0000222 -0.0012648 -0.0000505 -0.0008120 0.0011627 -0.0026666 0.0001870 -0.0006551 0.0001033 -0.0009284
0.0003049 -0.0008729 0.0055131 -0.0045827 0.0184824 -0.0332747 0.0000015 -0.0007227 -0.0011845 0.0035547 -0.0000080 -0.0011343 -0.0000246 -0.0006490 0.0022774 -0.0035701 0.0002137 -0.0005132 0.0001110 -0.0007796
0.0002661 -0.0006828 0.0037373 -0.0019889 0.0059215 -0.0070681 0.0000061 -0.0005786 -0.0011425 0.0035722 -0.0000028 -0.0009799 -0.0000105 -0.0005622 0.0013810 -0.0024893 0.0002033 -0.0004777 0.0001058 -0.0007783
-0.0003405 -0.0000769 0.0036939 -0.0020389 0.0046332 -0.0070745 -0.0000007 -0.0006812 -0.0011447 0.0034303 -0.0000151 -0.0011502 -0.0000205 -0.0008254 0.0006465 -0.0024386 0.0001763 -0.0007329 0.0001045 -0.0010478
-0.0004560 -0.0004355 0.0054587 -0.0055248 0.0136943 -0.0336554 0.0000085 -0.0010053 -0.0011624 0.0032187 -0.0000167 -0.0014401 -0.0000146 -0.0010914 0.0010712 -0.0034141 0.0001964 -0.0009327 0.0001268 -0.0012107
-0.0000587 -0.0009684 0.0054490 -0.0049270 0.0052142 -0.0035197 0.0000488 -0.0011145 -0.0011241 0.0031307 0.0000146 -0.0014379 0.0000327 -0.0010140 -0.0000232 -0.0018389 0.0002452 -0.0008547 0.0001584 -0.0011268
-0.0002086 -0.0004830 -0.0020191 0.0041559 0.0015036 0.0125300 0.0000815 -0.0010170 -0.0011023 0.0032361 0.0000409 -0.0012898 0.0000636 -0.0008252 0.0001372 -0.0018092 0.0002741 -0.0006760 0.0001720 -0.0009652
-0.0000785 -0.0005266 -0.0029561 0.0032834 0.0050985 0.0006209 0.0000859 -0.0008883 -0.0010986 0.0033362 0.0000422 -0.0012204 0.0000639 -0.0008339 -0.0015760 -0.0001326 0.0002658 -0.0006907 0.0001698 -0.0010235
0.0002264 -0.0010047 0.0025596 -0.0030046 0.0072702 -0.0141192 0.0000774 -0.0010462 -0.0010893 0.0031332 0.0000327 -0.0014355 0.0000616 -0.0011451 -0.0023740 -0.0003823 0.0002460 -0.0009758 0.0001752 -0.0013066
0.0004122 -0.0014423 -0.0015117 -0.0002057 -0.0052733 0.0004501 0.0000957 -0.0013510 -0.0010553 0.0028482 0.0000463 -0.0016328 0.0000976 -0.0013043 -0.0010664 -0.0018890 0.0002721 -0.0011035 0.0002027 -0.0013930
0.0003274 -0.0012626 -0.0063162 0.0039991 -0.0160257 0.0164848 0.0001460 -0.0013826 -0.0010156 0.0028517 0.0000775 -0.0015526 0.0001558 -0.0011623 -0.0011761 -0.0005118 0.0003171 -0.0009706 0.0002290 -0.0012596
0.0003162 -0.0009954 -0.0046864 0.0026473 -0.0180570 0.0116790 0.0001788 -0.0012627 -0.0010004 0.0029969 0.0000928 -0.0013775 0.0001739 -0.0009723 -0.0003496 -0.0013608 0.0003397 -0.0007714 0.0002326 -0.0010705
0.0006544 -0.0011792 -0.0026002 0.0000145 -0.0161326 0.0039736 0.0001691 -0.0010916 -0.0010153 0.0031862 0.0000863 -0.0011862 0.0001629 -0.0008577 0.0006876 -0.0027113 0.0003329 -0.0006869 0.0002181 -0.0010183
0.0007260 -0.0011827 -0.0038234 0.0017912 -0.0138266 0.0138249 0.0001401 -0.0011274 -0.0010264 0.0031024 0.0000615 -0.0013036 0.0001368 -0.0010663 0.0013054 -0.0032461 0.0003060 -0.0008724 0.0002052 -0.0012236
0.0002624 -0.0009287 -0.0054530 0.0034807 -0.0069748 0.0076968 0.0001352 -0.0013710 -0.0010118 0.0028284 0.0000545 -0.0015639 0.0001353 -0.0013003 0.0010440 -0.0031250 0.0003088 -0.0010207 0.0002127 -0.0013450
0.0002874 -0.0010171 -0.0006479 0.0004062 0.0010267 -0.0091825 0.0001603 -0.0014296 -0.0009903 0.0027858 0.0000759 -0.0015415 0.0001728 -0.0012073 0.0012723 -0.0033033 0.0003432 -0.0009316 0.0002286 -0.0012354
0.0007206 -0.0013203 0.0016377 -0.0020207 0.0025465 -0.0189771 0.0001800 -0.0013081 -0.0009859 0.0029169 0.0000894 -0.0013818 0.0001927 -0.0010224 0.0021637 -0.0040462 0.0003555 -0.0007169 0.0002328 -0.0010602
0.0004669 -0.0009988 0.0003625 -0.0006359 -0.0048599 -0.0005356 0.0001677 -0.0011352 -0.0009981 0.0030509 0.0000840 -0.0012843 0.0001784 -0.0010100 0.0019981 -0.0034093 0.0003301 -0.0007548 0.0002101 -0.0011143
0.0000865 -0.0006879 0.0024604 -0.0011277 -0.0015178 0.0087219 0.0001403 -0.0012308 -0.0010031 0.0028977 0.0000643 -0.0014608 0.0001496 -0.0012602 0.0001298 -0.0017872 0.0003006 -0.0010141 0.0001972 -0.0013578
0.0000430 -0.0009543 0.0067241 -0.0064368 0.0126446 -0.0099552 0.0001400 -0.0014938 -0.0009832 0.0026564 0.0000627 -0.0016384 0.0001619 -0.0013846 0.0001636 -0.0021589 0.0003123 -0.0010260 0.0002203 -0.0014108
-0.0000176 -0.0009205 0.0051171 -0.0046759 0.0088971 -0.0069273 0.0001721 -0.0014787 -0.0009556 0.0026941 0.0000866 -0.0015397 0.0002079 -0.0012034 0.0019526 -0.0040624 0.0003443 -0.0008610 0.0002402 -0.0012846
-0.0000543 -0.0006903 0.0025725 -0.0018480 0.0051874 -0.0070911 0.0001947 -0.0013054 -0.0009486 0.0028671 0.0001014 -0.0013375 0.0002236 -0.0009541 0.0007111 -0.0029313 0.0003551 -0.0006488 0.0002395 -0.0010857
-0.0002202 -0.0002992 0.0026304 -0.0022917 0.0063098 -0.0140876 0.0001849 -0.0011576 -0.0009569 0.0029562 0.0000956 -0.0013091 0.0002004 -0.0010096 -0.0006478 -0.0014233 0.0003336 -0.0007428 0.0002204 -0.0012031
-0.0001966 -0.0003728 0.0003776 0.0000630 -0.0087217 0.0052563 0.0001672 -0.0013553 -0.0009543 0.0027028 0.0000772 -0.0015947 0.0001779 -0.0013967 -0.0006218 -0.0021455 0.0003017 -0.0011011 0.0002142 -0.0015647
-0.0000741 -0.0009099 -0.0002919 -0.0002986 -0.0081914 0.0010689 0.0001839 -0.0016702 -0.0009227 0.0024185 0.0000891 -0.0017931 0.0002102 -0.0015521 -0.0004338 -0.0027390 0.0003205 -0.0012566 0.0002371 -0.0016495
-0.0000811 -0.0008589 -0.0066057 0.0055252 -0.0018463 0.0104076 0.0002282 -0.0016613 -0.0008848 0.0024474 0.0001267 -0.0017086 0.0002618 -0.0013928 -0.0005385 -0.0024645 0.0003642 -0.0011526 0.0002637 -0.0015009
0.0001582 -0.0008612 -0.0079634 0.0062234 -0.0049026 0.0139011 0.0002529 -0.0014999 -0.0008714 0.0026103 0.0001374 -0.0015274 0.0002704 -0.0011851 -0.0012373 -0.0015733 0.0003822 -0.0008937 0.0002726 -0.0012791
0.0004787 -0.0010060 -0.0037863 0.0026026 -0.0206083 0.0118359 0.0002388 -0.0013204 -0.0008801 0.0027572 0.0001262 -0.0014356 0.0002522 -0.0011819 -0.0002118 -0.0015786 0.0003702 -0.0008284 0.0002678 -0.0012785
0.0004100 -0.0008910 -0.0052248 0.0052561 -0.0226154 0.0234328 0.0002128 -0.0014434 -0.0008788 0.0025837 0.0001093 -0.0016537 0.0002338 -0.0014767 -0.0000855 -0.0020598 0.0003375 -0.0009456 0.0002801 -0.0015011
0.0002750 -0.0010453 -0.0037563 0.0025280 -0.0126506 0.0161761 0.0002264 -0.0017278 -0.0008510 0.0023201 0.0001175 -0.0018565 0.0002557 -0.0016077 -0.0004370 -0.0017098 0.0003400 -0.0009031 0.0003118 -0.0015221
0.0002991 -0.0011125 0.0002747 -0.0015390 0.0063441 -0.0114717 0.0002703 -0.0017306 -0.0008208 0.0023566 0.0001483 -0.0017680 0.0003076 -0.0014388 0.0012452 -0.0026511 0.0003742 -0.0007120 0.0003357 -0.0013364
0.0002898 -0.0008946 0.0020098 -0.0020870 0.0142828 -0.0312081 0.0002904 -0.0015654 -0.0008156 0.0025365 0.0001599 -0.0015772 0.0003214 -0.0012228 0.0027449 -0.0043503 0.0003892 -0.0004646 0.0003375 -0.0011086
0.0002546 -0.0005678 0.0007822 -0.0000989 0.0004314 -0.0034032 0.0002686 -0.0013483 -0.0008369 0.0027636 0.0001522 -0.0013417 0.0003014 -0.0010152 0.0020440 -0.0029737 0.0003715 -0.0003045 0.0003213 -0.0009929
-0.0002723 0.0001016 0.0006722 0.0004692 -0.0047026 0.0092700 0.0002317 -0.0013265 -0.0008563 0.0027240 0.0001303 -0.0014375 0.0002710 -0.0011993 0.0012532 -0.0023488 0.0003355 -0.0004585 0.0003037 -0.0011697
-0.0003918 -0.0001719 0.0032874 -0.0031738 0.0092576 -0.0103233 0.0002193 -0.0015601 -0.0008485 0.0024534 0.0001201 -0.0017300 0.0002555 -0.0015083 0.0015143 -0.0029890 0.0003250 -0.0006381 0.0003078 -0.0013192
-0.0001068 -0.0006279 0.0037731 -0.0033290 0.0149830 -0.0151788 0.0002401 -0.0016335 -0.0008282 0.0024096 0.0001391 -0.0017202 0.0002814 -0.0014278 0.0015298 -0.0028977 0.0003439 -0.0005333 0.0003239 -0.0011943
-0.0002770 -0.0002388 -0.0004888 0.0014759 0.0033586 0.0023402 0.0002569 -0.0014701 -0.0008229 0.0025851 0.0001533 -0.0015302 0.0002983 -0.0011964 0.0012937 -0.0024334 0.0003479 -0.0003094 0.0003204 -0.0009754
-0.0003642 0.0000582 -0.0004540 0.0014061 -0.0010964 0.0110828 0.0002400 -0.0012450 -0.0008401 0.0028159 0.0001444 -0.0012635 0.0002744 -0.0009025 -0.0013330 0.0011050 0.0003245 -0.0000425 0.0003001 -0.0007220
-0.0002474 0.0001934 0.0032796 -0.0022610 0.0052917 0.0043696 0.0002011 -0.0010038 -0.0008689 0.0029965 0.0001263 -0.0011139 0.0002454 -0.0008434 -0.0015580 0.0002995 0.0002773 -0.0000135 0.0002723 -0.0007354
-0.0001361 -0.0000484 0.0007139 -0.0012330 0.0089133 -0.0138563 0.0001633 -0.0010689 -0.0008847 0.0028565 0.0001046 -0.0013151 0.0002195 -0.0011485 0.0002796 -0.0025540 0.0002336 -0.0002533 0.0002558 -0.0009915
-0.0002446 -0.0001607 -0.0029977 0.0020488 0.0005452 -0.0048159 0.0001553 -0.0012959 -0.0008780 0.0026245 0.0000973 -0.0015013 0.0002052 -0.0012950 -0.0008216 -0.0005770 0.0002322 -0.0003154 0.0002602 -0.0010297
-0.0003053 -0.0000220 -0.0027916 0.0017392 -0.0049341 0.0018678 0.0001701 -0.0012567 -0.0008669 0.0026751 0.0001098 -0.0013872 0.0002113 -0.0011202 -0.0017270 0.0003171 0.0002464 -0.0001388 0.0002660 -0.0008517
-0.0000428 -0.0000517 -0.0034535 0.0022644 -0.0125896 0.0024073 0.0001706 -0.0010648 -0.0008741 0.0028665 0.0001147 -0.0011673 0.0002072 -0.0008537 -0.0009102 -0.0001231 0.0002389 0.0000991 0.0002581 -0.0006197
0.0000641 0.0000690 -0.0041789 0.0032651 -0.0005702 -0.0103196 0.0001451 -0.0008213 -0.0008768 0.0030158 0.0001081 -0.0009715 0.0001901 -0.0007071 0.0004002 -0.0010818 0.0002028 0.0001507 0.0002373 -0.0005778
-0.0001221 0.0001935 -0.0065560 0.0051635 -0.0011151 0.0047143 0.0001066 -0.0008240 -0.0008883 0.0029379 0.0000887 -0.0010996 0.0001592 -0.0008996 -0.0001829 -0.0008695 0.0001620 -0.0000709 0.0002229 -0.0007743
-0.0000658 -0.0000070 -0.0047001 0.0042992 -0.0066735 0.0169197 0.0000949 -0.0010084 -0.0008983 0.0027851 0.0000797 -0.0013072 0.0001325 -0.0010611 -0.0007396 -0.0002742 0.0001590 -0.0001792 0.0002298 -0.0008367
0.0002599 -0.0003743 -0.0023351 0.0018634 0.0000906 -0.0030151 0.0001040 -0.0009801 -0.0008880 0.0028297 0.0000927 -0.0012203 0.0001357 -0.0009107 0.0006797 -0.0012342 0.0001755 -0.0000113 0.0002401 -0.0006688
0.0001153 -0.0000804 -0.0025107 0.0031428 -0.0065786 0.0104249 0.0000953 -0.0007779 -0.0008761 0.0029696 0.0001000 -0.0010017 0.0001331 -0.0006431 0.0015295 -0.0020375 0.0001687 0.0002403 0.0002306 -0.0004279
-0.0001100 0.0003889 0.0003122 0.0012300 -0.0005649 0.0062553 0.0000720 -0.0005295 -0.0003640 0.0013800 0.0000950 -0.0007956 0.0001170 -0.0004999 0.0007147 -0.0017298 0.0001270 0.0003256 0.0002102 -0.0003946
-0.0001395 0.0003154 0.0041300 -0.0035619 0.0241494 -0.0413668 0.0000412 -0.0005641 -0.0003940 0.0013272 0.0000736 -0.0009707 0.0000873 -0.0007617 0.0010530 -0.0020606 0.0000859 0.0000226 0.0001963 -0.0006665
-0.0003222 0.0001693 0.0037844 -0.0025449 0.0078757 -0.0075128 0.0000316 -0.0008312 -0.0009183 0.0028513 0.0000683 -0.0012872 0.0000724 -0.0010502 0.0026363 -0.0039126 0.0001015 -0.0003253 0.0002004 -0.0008471
-0.0003556 0.0000603 0.0024265 -0.0012325 0.0012917 -0.0032630 0.0000520 -0.0008927 -0.0008941 0.0028114 0.0000941 -0.0012913 0.0000899 -0.0009888 0.0016639 -0.0029263 0.0001401 -0.0002822 0.0002234 -0.0007559
-0.0006380 0.0005121 0.0025527 -0.0015022 0.0014765 0.0008518 0.0000682 -0.0007505 -0.0008707 0.0029409 0.0001142 -0.0011290 0.0001094 -0.0007655 0.0008223 -0.0016056 0.0001620 0.0000098 0.0002398 -0.0005506
-0.0006381 0.0007316 0.0026497 -0.0016133 -0.0011880 0.0097602 0.0000616 -0.0005273 -0.0001738 0.0007439 0.0001188 -0.0008908 0.0001139 -0.0005006 0.0010552 -0.0016319 0.0001608 0.0002043 0.0002362 -0.0004331
-0.0004598 0.0006261 0.0027075 -0.0011998 -0.0010727 0.0083139 0.0000412 -0.0004817 -0.0001867 0.0007275 0.0001086 -0.0010042 0.0000907 -0.0006740 0.0000930 -0.0013289 0.0001295 -0.0000405 0.0002288 -0.0006473
-0.0006055 0.0006133 -0.0040102 0.0058373 -0.0037719 0.0196851 0.0000428 -0.0007333 -0.0008766 0.0028486 0.0001067 -0.0013775 0.0000881 -0.0010927 -0.0002300 -0.0022607 0.0001276 -0.0004230 0.0002458 -0.0008976
-0.0004300 0.0001392 -0.0048765 0.0045471 0.0026589 0.0003747 0.0000713 -0.0008789 -0.0008487 0.0027387 0.0001333 -0.0014530 0.0001307 -0.0011217 -0.0017255 -0.0007009 0.0001727 -0.0004697 0.0002759 -0.0008526
-0.0000622 -0.0001765 0.0006401 -0.0010613 0.0003424 -0.0087092 0.0000925 -0.0007531 -0.0008268 0.0028663 0.0001605 -0.0012910 0.0001664 -0.0009171 -0.0016131 -0.0006520 0.0002110 -0.0002429 0.0002914 -0.0006509
0.0001205 -0.0000339 -0.0031892 0.0027615 -0.0042367 0.0037516 0.0000859 -0.0005293 -0.0000420 0.0004070 0.0001657 -0.0010365 0.0001748 -0.0006360 -0.0006727 -0.0008628 0.0002230 0.0000972 0.0002959 -0.0004017
0.0000163 0.0003567 -0.0068585 0.0055578 -0.0052086 -0.0041047 0.0000619 -0.0004003 0.0001277 -0.0001459 0.0001536 -0.0010311 0.0001595 -0.0006908 -0.0013243 0.0003796 0.0001939 0.0000541 0.0002868 -0.0004898
-0.0000282 0.0002577 -0.0047856 0.0033714 -0.0026842 -0.0103448 0.0000470 -0.0005712 -0.0006883 0.0023763 0.0001439 -0.0013099 0.0001445 -0.0010311 -0.0004174 -0.0013639 0.0001745 -0.0002649 0.0002872 -0.0007489
0.0002658 -0.0003865 -0.0023503 0.0000958 -0.0036423 -0.0197213 0.0000527 -0.0007261 -0.0008560 0.0028541 0.0001553 -0.0013976 0.0001640 -0.0010817 0.0010672 -0.0026748 0.0002053 -0.0002934 0.0003031 -0.0007167
0.0003503 -0.0003288 -0.0034229 0.0019841 -0.0157904 0.0007169 0.0000573 -0.0006042 -0.0007740 0.0027418 0.0001716 -0.0012306 0.0001848 -0.0008645 0.0014388 -0.0020599 0.0002365 -0.0001156 0.0003061 -0.0005245
-0.0001042 0.0003869 -0.0044500 0.0037093 -0.0036198 -0.0046378 0.0000396 -0.0003913 0.0000664 -0.0000067 0.0001702 -0.0009821 0.0001789 -0.0005806 0.0009688 -0.0011706 0.0002366 0.0001142 0.0002887 -0.0002845
-0.0000994 0.0006009 -0.0000534 0.0010696 0.0036361 -0.0063240 -0.0000025 -0.0001375 0.0008954 -0.0027509 0.0001567 -0.0008004 0.0001554 -0.0004633 0.0008811 -0.0010293 0.0001983 0.0001451 0.0002604 -0.0002706
0.0002963 0.0000939 0.0017539 -0.0011170 0.0034546 -0.0054997 -0.0000494 -0.0001561 -0.0000377 0.0002668 0.0001336 -0.0009602 0.0001280 -0.0007003 0.0017276 -0.0024678 0.0001533 -0.0001039 0.0002418 -0.0005007
0.0000233 -0.0000553 0.0001104 -0.0002437 -0.0038139 0.0000064 -0.0000706 -0.0003601 -0.0008835 0.0029982 0.0001222 -0.0011700 0.0001158 -0.0008683 0.0022014 -0.0035667 0.0001536 -0.0002190 0.0002443 -0.0005672
-0.0003063 0.0003023 0.0024816 -0.0007987 -0.0051820 0.0104131 -0.0000752 -0.0003320 -0.0005599 0.0019139 0.0001324 -0.0010788 0.0001161 -0.0007080 0.0002848 -0.0011346 0.0001704 -0.0000595 0.0002486 -0.0004109
-0.0002567 0.0004197 0.0072130 -0.0058283 0.0074132 -0.0002962 -0.0000974 -0.0001383 0.0003001 -0.0009319 0.0001321 -0.0008576 0.0001035 -0.0004430 0.0005444 -0.0007321 0.0001618 0.0001827 0.0002347 -0.0001893
-0.0003312 0.0006713 0.0057348 -0.0033821 0.0094157 -0.0070476 -0.0001415 0.0001163 0.0007811 -0.0025025 0.0001187 -0.0006207 0.0000817 -0.0002553 0.0020290 -0.0022487 0.0001243 0.0002607 0.0002088 -0.0001375
-0.0004647 0.0007243 0.0033886 -0.0012590 0.0076364 -0.0152555 -0.0001890 0.0001406 0.0005128 -0.0016681 0.0000939 -0.0007314 0.0000471 -0.0004322 0.0006670 -0.0021364 0.0000765 0.0000544 0.0001876 -0.0003324
-0.0008108 0.0007814 0.0036508 -0.0027390 0.0012376 -0.0022078 -0.0002187 -0.0000270 -0.0001820 0.0005522 0.0000782 -0.0009690 0.0000128 -0.0006269 -0.0004861 -0.0012939 0.0000704 -0.0000679 0.0001891 -0.0004193
-0.0007566 0.0007594 0.0022195 -0.0009874 -0.0076013 0.0209517 -0.0002373 -0.0000128 -0.0000109 -0.0000746 0.0000823 -0.0008937 0.0000031 -0.0004941 -0.0003056 -0.0011440 0.0000895 0.0000718 0.0001953 -0.0002738
-0.0005405 0.0006974 0.0016890 -0.0002450 -0.0034299 0.0168649 -0.0002644 0.0001677 0.0006754 -0.0023597 0.0000805 -0.0006741 -0.0000080 -0.0002395 -0.0004345 -0.0008069 0.0000870 0.0002950 0.0001838 -0.0000550
-0.0006184 0.0011389 -0.0065114 0.0082866 -0.0002779 0.0161581 -0.0003054 0.0004022 0.0006491 -0.0022161 0.0000702 -0.0005082 -0.0000261 -0.0001370 -0.0003755 -0.0009162 0.0000517 0.0003254 0.0001637 -0.0000592
-0.0004073 0.0007881 -0.0085485 0.0077846 -0.0007212 0.0076425 -0.0003483 0.0003572 0.0000901 -0.0004745 0.0000479 -0.0006916 -0.0000577 -0.0003929 -0.0016246 -0.0000087 0.0000080 0.0000670 0.0001519 -0.0003102
-0.0000470 -0.0000110 -0.0023945 0.0010996 -0.0020590 -0.0220466 -0.0003679 0.0001174 -0.0007349 0.0021603 0.0000364 -0.0009328 -0.0000795 -0.0005846 -0.0017856 0.0003588 0.0000183 -0.0000737 0.0001677 -0.0004003
0.0000647 -0.0000195 -0.0060180 0.0053874 0.0008332 -0.0138104 -0.0003740 0.0001100 -0.0005568 0.0015707 0.0000469 -0.0008681 -0.0000773 -0.0004655 -0.0009599 -0.0006369 0.0000604 0.0000628 0.0001857 -0.0002585
-0.0000406 0.0003332 -0.0079736 0.0065265 -0.0003975 -0.0048605 -0.0003837 0.0002746 0.0002875 -0.0012274 0.0000529 -0.0006728 -0.0000794 -0.0002200 -0.0011504 0.0004751 0.0000692 0.0002576 0.0001861 -0.0000493
-0.0000478 0.0005490 -0.0044448 0.0033735 -0.0044201 -0.0026731 -0.0004185 0.0004757 0.0005875 -0.0021582 0.0000478 -0.0004941 -0.0000877 -0.0000771 0.0001277 -0.0005655 0.0000516 0.0002990 0.0001822 -0.0000367
0.0000964 0.0002294 -0.0012311 -0.0002346 0.0048443 -0.0256846 -0.0004553 0.0004059 -0.0000237 -0.0002491 0.0000238 -0.0006744 -0.0001194 -0.0003441 0.0015689 -0.0033194 0.0000291 0.0000138 0.0001764 -0.0002904
0.0001052 -0.0000745 -0.0024061 0.0013824 -0.0057582 -0.0075461 -0.0004600 0.0001237 -0.0008681 0.0024390 0.0000160 -0.0009540 -0.0001312 -0.0005987 0.0017311 -0.0034763 0.0000431 -0.0002074 0.0001915 -0.0004045
-0.0003569 0.0003720 -0.0032858 0.0028230 -0.0100544 0.0122195 -0.0004447 0.0000635 -0.0008235 0.0024035 0.0000378 -0.0009057 -0.0001065 -0.0004814 0.0010552 -0.0018739 0.0000844 -0.0000986 0.0002146 -0.0002649
-0.0002985 0.0004406 0.0008574 -0.0003225 0.0032377 -0.0036013 -0.0004334 0.0002094 0.0000490 -0.0004501 0.0000536 -0.0007096 -0.0001046 -0.0002436 0.0011043 -0.0014844 0.0001045 0.0001099 0.0002165 -0.0000524
0.0001779 0.0001579 0.0024203 -0.0017619 0.0089242 -0.0168417 -0.0004481 0.0004107 0.0005836 -0.0021795 0.0000521 -0.0004674 -0.0001080 -0.0000422 0.0021151 -0.0028885 0.0000981 0.0002135 0.0002047 0.0000344
-0.0000574 0.0002945 0.0003873 0.0000163 -0.0057869 0.0042182 -0.0004752 0.0004087 0.0002158 -0.0010356 0.0000294 -0.0005653 -0.0001295 -0.0002185 0.0016470 -0.0023200 0.0000714 -0.0000180 0.0001890 -0.0001535
-0.0003505 0.0003288 0.0023984 -0.0008035 0.0004686 -0.0027094 -0.0004754 0.0001636 -0.0006316 0.0016774 0.0000175 -0.0008459 -0.0001446 -0.0005015 -0.0002949 -0.0002214 0.0000727 -0.0002357 0.0001958 -0.0002885
-0.0003031 0.0001739 0.0073131 -0.0063565 0.0185780 -0.0267972 -0.0004488 0.0000644 -0.0006722 0.0018951 0.0000308 -0.0008266 -0.0001146 -0.0004474 0.0003774 -0.0011211 0.0001086 -0.0001453 0.0002140 -0.0001677
-0.0003355 0.0003540 0.0057184 -0.0040665 0.0072741 0.0004306 -0.0004286 0.0001827 0.0001961 -0.0009525 0.0000434 -0.0006433 -0.0000956 -0.0002408 0.0019570 -0.0026111 0.0001265 0.0000528 0.0002120 0.0000367
-0.0003828 0.0005728 0.0033064 -0.0015528 0.0027670 0.0043662 -0.0004246 0.0003611 0.0005818 -0.0021692 0.0000435 -0.0004356 -0.0000952 -0.0000932 0.0008450 -0.0018875 0.0001021 0.0001196 0.0001949 0.0000901
-0.0006864 0.0008308 0.0036275 -0.0028174 0.0104886 -0.0146441 -0.0004366 0.0003224 0.0003517 -0.0014591 0.0000237 -0.0005283 -0.0001137 -0.0002512 -0.0000371 -0.0011619 0.0000659 -0.0000631 0.0001866 -0.0000773
-0.0006599 0.0006770 0.0020021 -0.0010787 0.0104182 -0.0131771 -0.0004334 0.0001049 -0.0001906 0.0002022 0.0000123 -0.0007265 -0.0001231 -0.0004250 0.0002333 -0.0013979 0.0000705 -0.0001587 0.0001988 -0.0001398
-0.0004134 0.0003881 0.0018441 -0.0007706 0.0053452 0.0001150 -0.0004073 0.0000714 0.0000004 -0.0004449 0.0000237 -0.0006562 -0.0001027 -0.0003147 -0.0003560 -0.0002390 0.0000969 -0.0000218 0.0002055 0.0000078
-0.0004391 0.0007194 -0.0053890 0.0070316 -0.0017903 0.0190422 -0.0003959 0.0001934 0.0005717 -0.0022310 0.0000244 -0.0004675 -0.0001020 -0.0000997 -0.0006676 -0.0003433 0.0001020 0.0001892 0.0001920 0.0002203
-0.0002329 0.0006975 -0.0068304 0.0064423 -0.0019542 0.0131677 -0.0004118 0.0003168 0.0005773 -0.0021787 0.0000116 -0.0004160 -0.0001143 -0.0001131 -0.0017006 -0.0000552 0.0000705 0.0001351 0.0001717 0.0001552
0.0000616 0.0001435 -0.0007482 -0.0000634 -0.0015549 0.0076575 -0.0004136 0.0001455 -0.0003475 0.0007738 -0.0000054 -0.0006512 -0.0001232 -0.0004256 -0.0018827 0.0002535 0.0000382 -0.0001954 0.0001688 -0.0001252
0.0001665 -0.0001781 -0.0047354 0.0038020 -0.0048201 0.0127353 -0.0003846 -0.0001478 -0.0011493 0.0034256 -0.0000014 -0.0008126 -0.0001066 -0.0005670 -0.0013459 -0.0000995 0.0000550 -0.0002914 0.0001898 -0.0001611
0.0000660 0.0000072 -0.0079859 0.0058176 -0.0065465 0.0050366 -0.0003443 -0.0001746 -0.0007827 0.0022752 0.0000212 -0.0007193 -0.0000829 -0.0004243 -0.0013426 0.0006429 0.0000937 -0.0001211 0.0002012 0.0000035
0.0000701 0.0002223 -0.0053815 0.0036374 -0.0067161 -0.0024824 -0.0003240 -0.0000562 0.0001018 -0.0005958 0.0000285 -0.0005305 -0.0000854 -0.0002003 -0.0003580 -0.0004674 0.0000997 0.0000618 0.0001897 0.0002069
0.0002944 0.0001451 -0.0022328 0.0003379 0.0026551 -0.0187250 -0.0003402 0.0000191 0.0006674 -0.0024059 0.0000229 -0.0004755 -0.0000831 -0.0002017 0.0008497 -0.0021455 0.0000609 -0.0001064 0.0001797 0.0001291
0.0002480 -0.0000281 -0.0029533 0.0013406 -0.0037224 -0.0032574 -0.0003686 -0.0003006 -0.0002220 0.0005444 0.0000257 -0.0006849 -0.0000816 -0.0005593 0.0013440 -0.0027107 0.0000207 -0.0005367 0.0001924 -0.0001909
-0.0001578 -0.0002246 -0.0044125 0.0025654 -0.0086792 0.0036144 -0.0003508 -0.0007066 -0.0010337 0.0032227 0.0000510 -0.0008216 -0.0001010 -0.0008861 0.0003186 -0.0015989 0.0000318 -0.0006626 0.0002094 -0.0003137
-0.0001714 -0.0004503 -0.0016415 0.0008699 -0.0015816 0.0002500 -0.0003174 -0.0008199 -0.0010381 0.0032110 0.0000748 -0.0007292 -0.0001237 -0.0009223 0.0003265 -0.0017615 0.0000629 -0.0004812 0.0002075 -0.0002128
0.0001622 -0.0005875 -0.0001804 -0.0002479 -0.0035629 0.0030092 -0.0003165 -0.0008217 -0.0008484 0.0027005 0.0000835 -0.0005466 -0.0001252 -0.0007478 0.0017467 -0.0032827 0.0000622 -0.0002350 0.0001946 -0.0000304
0.0000283 -0.0001875 -0.0007377 0.0010096 -0.0124475 0.0126699 -0.0003371 -0.0007064 -0.0000136 -0.0000507 0.0000786 -0.0003058 -0.0001328 -0.0005090 0.0020318 -0.0029643 0.0000401 -0.0000076 0.0001691 0.0001200
-0.0002154 0.0002394 0.0013179 -0.0000325 -0.0019979 0.0088650 -0.0003779 -0.0007126 -0.0002330 0.0005301 0.0000451 -0.0003503 -0.0001656 -0.0006527 0.0004221 -0.0017279 -0.0000012 -0.0001072 0.0001289 -0.0000531
-0.0002534 0.0000163 0.0046560 -0.0043283 0.0182325 -0.0165251 -0.0004061 -0.0010268 -0.0010806 0.0031120 0.0000096 -0.0006659 -0.0001817 -0.0010386 0.0000541 -0.0013163 -0.0000314 -0.0003418 0.0001089 -0.0003242
-0.0003753 -0.0000739 0.0039182 -0.0033122 0.0122695 -0.0036897 -0.0003943 -0.0012499 -0.0010800 0.0029513 0.0000089 -0.0007592 -0.0001620 -0.0010994 0.0022990 -0.0032519 -0.0000218 -0.0003499 0.0001127 -0.0003203
-0.0003778 0.0000320 0.0020554 -0.0012886 0.0059554 0.0001357 -0.0003707 -0.0011723 -0.0010764 0.0030249 0.0000152 -0.0006303 -0.0001463 -0.0009436 0.0019730 -0.0031867 -0.0000102 -0.0001978 0.0000989 -0.0001833
-0.0005307 0.0003698 0.0016275 -0.0010764 0.0072835 -0.0088960 -0.0003853 -0.0010203 -0.0010953 0.0031910 -0.0000001 -0.0004481 -0.0001611 -0.0007263 0.0008530 -0.0016521 -0.0000233 0.0000211 0.0000646 0.0000007
-0.0005743 0.0005990 0.0012930 -0.0009516 0.0042840 -0.0048610 -0.0004191 -0.0008420 -0.0011209 0.0033025 -0.0000249 -0.0003513 -0.0001821 -0.0006877 0.0008008 -0.0021279 -0.0000560 0.0000060 0.0000210 -0.0000575
-0.0005386 0.0004586 0.0011399 -0.0006621 0.0086020 -0.0072990 -0.0004413 -0.0009017 -0.0011409 0.0031342 -0.0000502 -0.0005223 -0.0002070 -0.0009372 -0.0001067 -0.0016240 -0.0000721 -0.0001843 -0.0000161 -0.0003020
-0.0006234 0.0003902 -0.0025056 0.0028117 0.0035183 0.0075428 -0.0004357 -0.0010694 -0.0011407 0.0029062 -0.0000559 -0.0006765 -0.0002214 -0.0010337 -0.0002841 -0.0013013 -0.0000803 -0.0002665 -0.0000249 -0.0003775
-0.0005506 0.0003538 -0.0030246 0.0025011 0.0010185 0.0066627 -0.0004086 -0.0009889 -0.0011270 0.0029266 -0.0000431 -0.0005718 -0.0002054 -0.0008439 -0.0025945 0.0012180 -0.0000905 -0.0001917 -0.0000282 -0.0002658
-0.0004125 0.0003725 0.0000531 -0.0003858 0.0041341 -0.0048536 -0.0003965 -0.0007686 -0.0011308 0.0031018 -0.0000376 -0.0003574 -0.0002000 -0.0005833 -0.0027635 0.0013307 -0.0000878 -0.0000038 -0.0000480 -0.0000460
-0.0003185 0.0004993 -0.0015683 0.0010629 0.0130886 -0.0255110 -0.0004059 -0.0005533 -0.0011460 0.0031977 -0.0000464 -0.0003133 -0.0002148 -0.0006037 -0.0007291 -0.0010591 -0.0001077 -0.0000401 -0.0000756 -0.0001036
-0.0004187 0.0004742 -0.0030195 0.0022637 0.0075475 -0.0139980 -0.0003998 -0.0006272 -0.0011477 0.0029797 -0.0000569 -0.0005358 -0.0002344 -0.0009241 -0.0019287 0.0004894 -0.0001153 -0.0001268 -0.0000842 -0.0002954
-0.0004832 0.0002304 -0.0026041 0.0015341 -0.0049532 0.0051254 -0.0003527 -0.0007850 -0.0011258 0.0027395 -0.0000492 -0.0006698 -0.0002315 -0.0009913 -0.0022620 0.0002900 -0.0000924 -0.0000115 -0.0000557 -0.0002657
-0.0002234 0.0000695 -0.0035443 0.0021724 -0.0099115 -0.0047700 -0.0003183 -0.0007564 -0.0010945 0.0027936 -0.0000303 -0.0005883 -0.0001996 -0.0007435 -0.0006781 -0.0013451 -0.0000726 0.0001251 -0.0000252 -0.0001205
-0.0000814 0.0002443 -0.0058432 0.0036593 -0.0049468 -0.0103488 -0.0003139 -0.0005958 -0.0010731 0.0030404 -0.0000107 -0.0003699 -0.0001603 -0.0003884 0.0002121 -0.0008099 -0.0000473 0.0004013 -0.0000096 0.0001797
-0.0002838 0.0007849 -0.0117475 0.0089816 -0.0040010 0.0017404 -0.0002974 -0.0003409 -0.0010583 0.0032067 0.0000052 -0.0002851 -0.0001217 -0.0003065 -0.0005828 0.0008662 -0.0000516 0.0004550 -0.0000014 0.0002316
-0.0001245 0.0006969 -0.0079123 0.0075514 0.0004578 0.0033822 -0.0002627 -0.0003852 -0.0010302 0.0030299 0.0000131 -0.0004944 -0.0001000 -0.0005387 -0.0006392 0.0005000 -0.0000640 0.0001859 0.0000076 0.0000386
0.0004854 -0.0002163 -0.0042522 0.0034488 -0.0059094 0.0097491 -0.0002071 -0.0005818 -0.0009853 0.0028184 0.0000355 -0.0006117 -0.0000649 -0.0005758 0.0009564 -0.0015855 -0.0000304 0.0001151 0.0000306 0.0000686
0.0002918 0.0000030 -0.0052197 0.0060217 -0.0269368 0.0315634 -0.0001537 -0.0005265 -0.0009499 0.0028619 0.0000690 -0.0004742 -0.0000219 -0.0003525 0.0011190 -0.0019774 0.0000010 0.0002763 0.0000461 0.0002717
-0.0000119 0.0005328 0.0004145 0.0015858 -0.0061783 0.0096096 -0.0001247 -0.0003407 -0.0008944 0.0029066 0.0000846 -0.0002237 -0.0000114 -0.0000296 0.0001812 -0.0006798 -0.0000024 0.0005064 0.0000345 0.0005325
0.0000431 0.0006557 0.0076036 -0.0069809 0.0150722 -0.0280757 -0.0001240 -0.0000974 -0.0000540 0.0001820 0.0000821 0.0000663 -0.0000131 0.0002236 0.0007462 -0.0000705 -0.0000311 0.0006301 0.0000155 0.0006378
-0.0002067 0.0009987 0.0071971 -0.0044166 0.0051020 -0.0108921 -0.0001550 -0.0001096 -0.0001080 0.0002647 0.0000635 -0.0000461 -0.0000280 0.0000134 0.0018819 -0.0019793 -0.0000682 0.0004451 -0.0000023 0.0004386
-0.0002839 0.0007360 0.0044693 -0.0015379 -0.0021500 0.0014489 -0.0001654 -0.0004275 -0.0009424 0.0029468 0.0000550 -0.0003812 -0.0000323 -0.0003246 0.0010572 -0.0016517 -0.0000628 0.0002673 -0.0000069 0.0002996
-0.0010036 0.0013226 0.0046451 -0.0020014 0.0031285 -0.0016648 -0.0001269 -0.0005406 -0.0009138 0.0028858 0.0000669 -0.0003918 -0.0000125 -0.0002871 0.0004503 -0.0005004 -0.0000412 0.0003439 0.0000001 0.0004046
-0.0010442 0.0013559 0.0067533 -0.0051165 0.0073836 -0.0126864 -0.0000987 -0.0004026 -0.0007439 0.0024991 0.0000733 -0.0002182 -0.0000031 -0.0000835 0.0005951 -0.0004707 -0.0000408 0.0005029 -0.0000100 0.0005856
-0.0005159 0.0010093 0.0070297 -0.0043456 0.0000826 -0.0043574 -0.0001060 -0.0002055 0.0000777 -0.0002532 0.0000638 0.0000129 -0.0000114 0.0001029 -0.0001612 0.0006516 -0.0000595 0.0005847 -0.0000350 0.0006608
-0.0008299 0.0014936 -0.0002603 0.0042909 -0.0136730 0.0185553 -0.0001279 -0.0002071 -0.0001075 0.0002465 0.0000434 -0.0000897 -0.0000372 -0.0000683 -0.0002869 0.0003519 -0.0000847 0.0004386 -0.0000565 0.0005085
-0.0008969 0.0011814 -0.0005600 0.0028559 -0.0069843 0.0125640 -0.0001289 -0.0004286 -0.0009194 0.0029115 0.0000341 -0.0003533 -0.0000455 -0.0003145 -0.0022848 0.0025397 -0.0000832 0.0003290 -0.0000537 0.0004291
-0.0005857 0.0007074 0.0061176 -0.0049097 0.0059924 -0.0083583 -0.0000997 -0.0004928 -0.0008974 0.0028644 0.0000450 -0.0003198 -0.0000290 -0.0002124 -0.0023611 0.0027659 -0.0000623 0.0004727 -0.0000411 0.0005794
-0.0002538 0.0005222 0.0020061 -0.0026070 0.0062144 -0.0140510 -0.0000784 -0.0003548 -0.0008148 0.0027752 0.0000543 -0.0001316 -0.0000234 0.0000312 -0.0010906 0.0017643 -0.0000583 0.0007124 -0.0000463 0.0008082
-0.0003959 0.0010155 -0.0036556 0.0035659 0.0021262 -0.0092996 -0.0000833 -0.0001468 -0.0000107 0.0001750 0.0000480 0.0000627 -0.0000265 0.0001566 -0.0015686 0.0028907 -0.0000928 0.0007845 -0.0000702 0.0008473
-0.0005414 0.0011980 -0.0036862 0.0031026 -0.0049022 -0.0049148 -0.0000981 -0.0002140 -0.0000947 0.0002770 0.0000309 -0.0001112 -0.0000447 -0.0000993 -0.0016290 0.0019415 -0.0001249 0.0005486 -0.0000875 0.0006253
-0.0001188 0.0005195 -0.0060479 0.0039574 -0.0172872 0.0048971 -0.0000878 -0.0005229 -0.0008900 0.0027383 0.0000294 -0.0004133 -0.0000472 -0.0003464 -0.0014071 0.0009752 -0.0001154 0.0003950 -0.0000765 0.0005201
0.0000806 0.0002072 -0.0072095 0.0045560 -0.0065972 -0.0090221 -0.0000486 -0.0006121 -0.0008556 0.0026595 0.0000480 -0.0003993 -0.0000170 -0.0002668 -0.0006135 0.0005008 -0.0000869 0.0005100 -0.0000630 0.0006452
-0.0001189 0.0005797 -0.0150946 0.0111699 -0.0027965 0.0040060 -0.0000185 -0.0004991 -0.0008394 0.0027724 0.0000595 -0.0002385 -0.0000067 -0.0000598 -0.0006605 0.0008393 -0.0000703 0.0007363 -0.0000639 0.0008489
0.0001269 0.0007560 -0.0112763 0.0104172 -0.0052671 0.0157350 -0.0000180 -0.0003300 -0.0006619 0.0023220 0.0000578 -0.0000197 -0.0000129 0.0001664 -0.0012501 0.0017883 -0.0000704 0.0009088 -0.0000738 0.0009562
0.0007465 0.0001123 -0.0061071 0.0053700 -0.0160265 0.0214497 -0.0000251 -0.0003424 -0.0006601 0.0022409 0.0000501 -0.0001421 -0.0000118 -0.0000128 -0.0007740 0.0009038 -0.0001006 0.0006952 -0.0000804 0.0007769
0.0005010 0.0000578 -0.0072313 0.0082672 -0.0215418 0.0286261 -0.0000112 -0.0006502 -0.0008139 0.0025268 0.0000591 -0.0004807 0.0000191 -0.0003434 -0.0001323 -0.0003335 -0.0001170 0.0004428 -0.0000660 0.0006241
0.0001605 0.0001789 -0.0006349 0.0021139 -0.0032640 0.0063067 0.0000382 -0.0008096 -0.0007730 0.0024115 0.0000897 -0.0004888 0.0000705 -0.0002677 -0.0001252 0.0002431 -0.0000944 0.0005363 -0.0000454 0.0007382
0.0002280 0.0001775 0.0071445 -0.0075692 0.0150672 -0.0265333 0.0000767 -0.0006895 -0.0007564 0.0025636 0.0001073 -0.0002968 0.0000876 -0.0000347 0.0005253 0.0005884 -0.0000767 0.0007139 -0.0000465 0.0009236
0.0000451 0.0005878 0.0071856 -0.0049508 0.0124755 -0.0145419 0.0000665 -0.0005279 -0.0007374 0.0026616 0.0000959 -0.0000693 0.0000609 0.0001918 0.0020447 -0.0007980 -0.0000756 0.0009229 -0.0000696 0.0011085
-0.0000182 0.0007344 0.0044741 -0.0012143 0.0036801 0.0014941 0.0000351 -0.0004741 -0.0007559 0.0026837 0.0000734 -0.0001104 0.0000272 0.0000656 0.0017794 -0.0008520 -0.0001012 0.0008790 -0.0000979 0.0010155
-0.0009099 0.0015043 0.0043947 -0.0013577 -0.0000365 0.0067703 0.0000178 -0.0006677 -0.0007857 0.0025617 0.0000607 -0.0003817 0.0000166 -0.0002629 0.0006511 -0.0000118 -0.0001245 0.0006621 -0.0001053 0.0008231
-0.0010484 0.0011922 0.0070090 -0.0058979 0.0089727 -0.0138715 0.0000397 -0.0008230 -0.0007641 0.0024405 0.0000676 -0.0004259 0.0000387 -0.0002496 0.0005936 0.0001050 -0.0001190 0.0007013 -0.0000925 0.0009089
-0.0004400 0.0006043 0.0070633 -0.0049570 0.0093061 -0.0151613 0.0000664 -0.0007240 -0.0007516 0.0025584 0.0000773 -0.0002449 0.0000584 -0.0000144 0.0004909 0.0006094 -0.0001166 0.0009258 -0.0000910 0.0011255
-0.0007035 0.0012339 -0.0007105 0.0046860 -0.0003419 0.0093468 0.0000575 -0.0005356 -0.0007144 0.0026091 0.0000690 0.0000184 0.0000462 0.0002768 0.0003107 0.0011492 -0.0001338 0.0011796 -0.0001130 0.0013412
-0.0007452 0.0013056 -0.0009369 0.0036645 -0.0008737 0.0107207 0.0000268 -0.0004687 -0.0007390 0.0026299 0.0000407 -0.0000272 0.0000117 0.0001347 -0.0022484 0.0036609 -0.0001805 0.0011072 -0.0001462 0.0012147
-0.0005021 0.0007499 0.0056525 -0.0042161 0.0035333 0.0014677 0.0000036 -0.0007170 -0.0007916 0.0024975 0.0000204 -0.0003800 -0.0000057 -0.0002984 -0.0026616 0.0029695 -0.0002179 0.0008358 -0.0001589 0.0009462
-0.0002442 0.0001602 0.0017480 -0.0027202 0.0031821 -0.0090215 0.0000175 -0.0009624 -0.0007662 0.0022989 0.0000324 -0.0004949 0.0000243 -0.0003356 -0.0012251 0.0014102 -0.0002060 0.0007976 -0.0001471 0.0009610
-0.0003658 0.0004690 -0.0041796 0.0033455 -0.0080016 0.0020927 0.0000469 -0.0009185 -0.0007464 0.0023762 0.0000515 -0.0003447 0.0000431 -0.0001147 -0.0017468 0.0029071 -0.0001886 0.0009467 -0.0001469 0.0011256
-0.0004388 0.0008125 -0.0040672 0.0030615 -0.0151317 0.0048049 0.0000470 -0.0007661 -0.0007496 0.0025546 0.0000502 -0.0001132 0.0000196 0.0001354 -0.0017251 0.0029813 -0.0001942 0.0011447 -0.0001646 0.0012853
0.0000425 0.0004976 -0.0062199 0.0041278 -0.0235432 0.0028670 0.0000169 -0.0007160 -0.0007620 0.0025622 0.0000264 -0.0001624 -0.0000167 -0.0000077 -0.0009157 0.0013208 -0.0002208 0.0010588 -0.0001889 0.0011543
0.0001879 0.0001282 -0.0083370 0.0053016 -0.0105442 -0.0092212 0.0000023 -0.0009259 -0.0007545 0.0023110 0.0000093 -0.0004583 -0.0000307 -0.0003658 -0.0001025 0.0000532 -0.0002329 0.0008228 -0.0001952 0.0009376
-0.0001285 0.0002120 -0.0147576 0.0102107 -0.0038229 -0.0024814 0.0000253 -0.0010936 -0.0007293 0.0021789 0.0000227 -0.0005250 -0.0000066 -0.0003617 -0.0003124 0.0009852 -0.0002174 0.0008304 -0.0001808 0.0009768
0.0001097 0.0003145 -0.0092061 0.0082827 -0.0101510 0.0150167 0.0000461 -0.0009956 -0.0007142 0.0022911 0.0000384 -0.0003646 0.0000062 -0.0001422 -0.0005580 0.0018259 -0.0002026 0.0009875 -0.0001756 0.0011394
0.0007820 -0.0001869 -0.0046997 0.0039171 -0.0133490 0.0114586 0.0000429 -0.0008164 -0.0007227 0.0024898 0.0000345 -0.0001367 -0.0000001 0.0000527 -0.0000456 0.0015485 -0.0002057 0.0010772 -0.0001876 0.0012059
0.0005182 0.0000706 -0.0060110 0.0068118 -0.0187604 0.0218871 0.0000198 -0.0008383 -0.0007314 0.0024241 0.0000139 -0.0002726 -0.0000220 -0.0001862 0.0003460 0.0004618 -0.0002299 0.0008657 -0.0002053 0.0009970
0.0001136 0.0001961 0.0004911 0.0010345 -0.0052724 0.0070243 0.0000203 -0.0011271 -0.0007138 0.0021059 0.0000058 -0.0006161 -0.0000318 -0.0005343 -0.0002581 0.0006017 -0.0002243 0.0006442 -0.0001974 0.0008234
0.0001393 -0.0000873 0.0083449 -0.0090762 0.0139307 -0.0274916 0.0000591 -0.0012525 -0.0006826 0.0020105 0.0000251 -0.0006349 0.0000050 -0.0004769 0.0000908 0.0008660 -0.0001891 0.0007120 -0.0001716 0.0009078
-0.0000904 0.0003405 0.0077100 -0.0056222 0.0016938 0.0000798 0.0000906 -0.0011171 -0.0006672 0.0021519 0.0000418 -0.0004568 0.0000317 -0.0002480 0.0014961 -0.0004161 -0.0001664 0.0008930 -0.0001605 0.0010845
-0.0001342 0.0005447 0.0050235 -0.0020491 0.0034474 -0.0074285 0.0000878 -0.0009290 -0.0006760 0.0023554 0.0000435 -0.0002378 0.0000274 -0.0000885 0.0012023 -0.0000164 -0.0001751 0.0009704 -0.0001696 0.0011173
-0.0008907 0.0013356 0.0052778 -0.0028147 0.0190891 -0.0424617 0.0000653 -0.0009878 -0.0006821 0.0022459 0.0000234 -0.0004012 -0.0000019 -0.0003499 0.0003412 0.0005657 -0.0001995 0.0007241 -0.0001799 0.0008702
-0.0010219 0.0010094 0.0068399 -0.0061932 0.0203170 -0.0414576 0.0000751 -0.0013108 -0.0006598 0.0018930 0.0000165 -0.0007437 0.0000025 -0.0006648 -0.0002306 0.0006816 -0.0001841 0.0004847 -0.0001584 0.0006900
-0.0005128 0.0002918 0.0066680 -0.0053291 0.0028810 -0.0004504 0.0001204 -0.0014203 -0.0006212 0.0018129 0.0000486 -0.0007388 0.0000666 -0.0005653 -0.0005229 0.0011707 -0.0001401 0.0005494 -0.0001206 0.0007745
-0.0007220 0.0008719 -0.0019651 0.0053861 -0.0005386 0.0100993 0.0001547 -0.0012655 -0.0005999 0.0019747 0.0000744 -0.0005508 0.0001019 -0.0003215 -0.0002864 0.0011857 -0.0001099 0.0007372 -0.0001084 0.0009547
-0.0006194 0.0008590 -0.0025497 0.0039359 0.0079393 -0.0172558 0.0001575 -0.0010691 -0.0006094 0.0021928 0.0000706 -0.0003146 0.0000905 -0.0001448 -0.0020663 0.0030346 -0.0001119 0.0008321 -0.0001179 0.0009985
-0.0002640 0.0004543 0.0043794 -0.0040511 0.0036335 -0.0169232 0.0001311 -0.0011044 -0.0006219 0.0021238 0.0000457 -0.0004415 0.0000639 -0.0003835 -0.0025145 0.0028049 -0.0001336 0.0006104 -0.0001281 0.0007660
0.0000161 -0.0000811 -0.0007311 -0.0010680 -0.0118481 0.0105154 0.0001241 -0.0013771 -0.0006070 0.0018247 0.0000352 -0.0007484 0.0000715 -0.0006927 -0.0017566 0.0013971 -0.0001172 0.0003896 -0.0001131 0.0005912
-0.0001379 0.0000593 -0.0072208 0.0046535 -0.0172485 0.0119960 0.0001619 -0.0014654 -0.0005770 0.0017731 0.0000570 -0.0007277 0.0001238 -0.0005802 -0.0020178 0.0025780 -0.0000795 0.0004591 -0.0000835 0.0006655
-0.0002094 0.0003886 -0.0060690 0.0038752 -0.0106961 -0.0065409 0.0001915 -0.0013097 -0.0005650 0.0019529 0.0000756 -0.0005330 0.0001496 -0.0003443 -0.0013173 0.0020972 -0.0000583 0.0006437 -0.0000735 0.0008335
0.0002688 0.0000900 -0.0057585 0.0026995 -0.0310737 0.0063243 0.0001807 -0.0010967 -0.0005803 0.0021857 0.0000641 -0.0002710 0.0001207 -0.0000900 -0.0006645 0.0014929 -0.0000516 0.0008596 -0.0000868 0.0010125
0.0003932 0.0001663 -0.0074374 0.0046625 -0.0149198 -0.0001907 0.0001405 -0.0009815 -0.0006033 0.0022477 0.0000348 -0.0002835 0.0000762 -0.0001966 0.0001021 0.0007692 -0.0000763 0.0007636 -0.0001088 0.0008838
-0.0000344 0.0004156 -0.0108096 0.0074538 -0.0032437 -0.0031000 0.0001098 -0.0011441 -0.0006070 0.0020361 0.0000143 -0.0005568 0.0000562 -0.0005317 -0.0002349 0.0008197 -0.0000926 0.0004941 -0.0001108 0.0006266
0.0000534 0.0002122 -0.0050160 0.0043974 -0.0050838 -0.0004846 0.0001194 -0.0012848 -0.0005942 0.0019185 0.0000161 -0.0006124 0.0000689 -0.0005183 -0.0006873 0.0014690 -0.0000652 0.0004859 -0.0000933 0.0006384
0.0006350 -0.0002922 -0.0016204 0.0009752 -0.0068621 -0.0011229 0.0001419 -0.0011620 -0.0005917 0.0020526 0.0000239 -0.0004398 0.0000868 -0.0003047 0.0007361 0.0002978 -0.0000341 0.0006326 -0.0000845 0.0007895
0.0003725 0.0000735 -0.0026216 0.0032302 -0.0100527 0.0158519 0.0001355 -0.0009548 -0.0006105 0.0022645 0.0000182 -0.0001879 0.0000783 -0.0000503 0.0006836 0.0013059 -0.0000356 0.0008024 -0.0000918 0.0009227
-0.0000527 0.0006401 0.0019922 0.0000628 -0.0029403 0.0092909 0.0001059 -0.0008783 -0.0006310 0.0022783 -0.0000062 -0.0002285 0.0000426 -0.0001627 -0.0007289 0.0025736 -0.0000678 0.0006618 -0.0001066 0.0007580
-0.0000791 0.0003847 0.0086996 -0.0088511 0.0132967 -0.0183691 0.0000896 -0.0010608 -0.0006297 0.0020449 -0.0000249 -0.0004957 0.0000156 -0.0004538 -0.0000627 0.0011271 -0.0000755 0.0003944 -0.0001042 0.0005295
-0.0003048 0.0004224 0.0076066 -0.0058511 0.0103154 -0.0096740 0.0001018 -0.0011613 -0.0006153 0.0019654 -0.0000167 -0.0005126 0.0000331 -0.0003944 0.0018280 -0.0010535 -0.0000505 0.0004176 -0.0000832 0.0005669
-0.0004028 0.0005729 0.0049014 -0.0026598 0.0059096 -0.0043424 0.0001164 -0.0010272 -0.0006098 0.0021214 -0.0000032 -0.0003224 0.0000500 -0.0001619 0.0016651 -0.0008018 -0.0000410 0.0005802 -0.0000741 0.0007127
-0.0009763 0.0013502 0.0050357 -0.0033275 0.0034951 -0.0056071 0.0001025 -0.0008325 -0.0006268 0.0023425 -0.0000099 -0.0000614 0.0000301 0.0000865 0.0001993 0.0010186 -0.0000514 0.0007145 -0.0000804 0.0007875
-0.0010204 0.0014168 0.0047022 -0.0034008 -0.0037770 0.0023803 0.0000703 -0.0008157 -0.0006451 0.0023002 -0.0000379 -0.0001643 -0.0000093 -0.0001217 -0.0002759 0.0008358 -0.0000857 0.0005097 -0.0000938 0.0005442
-0.0007055 0.0007426 0.0043009 -0.0031032 -0.0044193 0.0077646 0.0000623 -0.0010688 -0.0006343 0.0019936 -0.0000523 -0.0004957 -0.0000233 -0.0004836 -0.0007466 0.0007295 -0.0000991 0.0001935 -0.0000864 0.0002740
-0.0008643 0.0008966 -0.0044649 0.0066184 -0.0044636 0.0171207 0.0000905 -0.0011916 -0.0006053 0.0019019 -0.0000352 -0.0005143 0.0000159 -0.0004261 -0.0009187 0.0008027 -0.0000632 0.0001904 -0.0000528 0.0002978
-0.0005976 0.0006444 -0.0060345 0.0057469 -0.0006114 0.0055196 0.0001156 -0.0010569 -0.0005919 0.0020613 -0.0000224 -0.0003326 0.0000386 -0.0002172 -0.0018703 0.0018445 -0.0000279 0.0003633 -0.0000339 0.0004432
-0.0002200 0.0003697 0.0006135 -0.0012605 0.0090993 -0.0202133 0.0000967 -0.0008728 -0.0006095 0.0022876 -0.0000314 -0.0000976 0.0000212 0.0000268 -0.0021978 0.0025505 -0.0000292 0.0005314 -0.0000331 0.0005066
-0.0001022 0.0005076 -0.0031649 0.0023247 0.0053722 -0.0119329 0.0000326 -0.0008993 -0.0006356 0.0022772 -0.0000563 -0.0001902 -0.0000116 -0.0001560 -0.0016525 0.0016400 -0.0000607 0.0004098 -0.0000340 0.0002828
-0.0002716 0.0004609 -0.0074456 0.0049463 -0.0088362 0.0077994 0.0000096 -0.0011560 -0.0006330 0.0019857 -0.0000787 -0.0005185 -0.0000352 -0.0005703 -0.0020158 0.0018895 -0.0000477 0.0002202 -0.0000285 0.0000424
-0.0002942 0.0001979 -0.0062263 0.0033469 -0.0183336 0.0206227 0.0000596 -0.0012396 -0.0006104 0.0018782 -0.0000672 -0.0005555 -0.0000052 -0.0005366 -0.0006397 -0.0001179 0.0000085 0.0002567 -0.0000056 0.0000587
0.0000229 -0.0000769 -0.0034406 0.0002408 -0.0135181 0.0084135 0.0000939 -0.0010809 -0.0006018 0.0020474 -0.0000449 -0.0003512 0.0000408 -0.0002548 0.0010875 -0.0017467 0.0000344 0.0003787 0.0000149 0.0001990
0.0000949 0.0001483 -0.0044861 0.0021975 -0.0023785 -0.0069457 0.0000824 -0.0008794 -0.0006118 0.0022791 -0.0000452 -0.0000744 0.0000452 0.0000441 0.0011995 -0.0004175 0.0000282 0.0005228 0.0000147 0.0003481
-0.0003287 0.0007697 -0.0058516 0.0040233 0.0029069 0.0014531 0.0000529 -0.0007793 -0.0006325 0.0023535 -0.0000656 -0.0000945 0.0000171 -0.0000567 0.0005055 0.0003956 -0.0000002 0.0003792 0.0000019 0.0001934
