-0.0000000 -0.0000000 -0.0000000 -0.0000000 -0.0000000 -0.0000000 -0.0000000 -0.0000000 -0.0000000 -0.0000000 -0.0000000 -0.0000000 -0.0000000 -0.0000000 -0.0000000 -0.0000000 -0.0000000 -0.0000000 -0.0000000 -0.0000000
-0.0000000 -0.0000000 -0.0000000 -0.0000000 -0.0000000 -0.0000000 -0.0000000 -0.0000000 -0.0000000 -0.0000000 -0.0000000 -0.0000000 -0.0000000 -0.0000000 -0.0000000 -0.0000000 -0.0000000 -0.0000000 -0.0000000 -0.0000000
-0.0000885 -0.0001693 -0.0000264 0.0000814 -0.0031549 0.0021152 -0.0016017 0.0073082 -0.0029712 0.0032620 -0.0003329 0.0003764 -0.0000481 0.0000925 0.0000159 0.0001483 0.0000009 0.0003174 -0.0007089 0.0027605
-0.0002129 -0.0003758 -0.0000475 0.0002424 0.0045480 -0.0070919 0.0021033 -0.0128121 -0.0051951 0.0091948 -0.0002897 0.0004790 -0.0001859 0.0003514 0.0000512 0.0002551 0.0045140 -0.0047907 -0.0006094 0.0043559
-0.0002878 -0.0004465 -0.0000398 0.0003964 0.0044788 -0.0044744 -0.0064671 -0.0006092 0.0006452 0.0062712 -0.0001674 0.0004066 -0.0001835 0.0001833 0.0000350 0.0002103 0.0071467 -0.0040972 -0.0016444 -0.0044845
-0.0002735 -0.0004356 -0.0000145 0.0004476 0.0019079 -0.0066143 -0.0081705 0.0033192 0.0002349 0.0078950 -0.0000311 0.0000096 -0.0003545 -0.0000013 -0.0000047 0.0000362 0.0034258 0.0034985 -0.0023814 -0.0043809
-0.0002578 -0.0005045 0.0000234 0.0004390 0.0092799 -0.0205931 0.0004025 0.0005986 0.0042987 -0.0228528 0.0002849 -0.0006884 -0.0003816 -0.0001363 -0.0000149 -0.0000391 -0.0023821 0.0022547 -0.0039061 -0.0023855
-0.0001975 -0.0003747 0.0000599 0.0003919 0.0053053 -0.0151338 -0.0024369 0.0084396 0.0016829 -0.0172329 0.0001665 -0.0005706 -0.0002422 -0.0001492 -0.0000049 -0.0000083 -0.0018189 -0.0000785 0.0080255 -0.0093225
-0.0000988 -0.0000935 0.0000864 0.0003932 -0.0011123 0.0007589 -0.0040216 0.0067573 -0.0070334 0.0109466 -0.0000067 -0.0000848 -0.0001160 0.0000400 -0.0000407 -0.0000169 -0.0003307 -0.0005901 0.0068001 -0.0048988
-0.0000577 0.0000822 0.0001024 0.0004280 0.0023722 0.0047426 0.0000543 0.0013596 -0.0010681 0.0119031 0.0000740 0.0000580 0.0000771 0.0002268 -0.0000717 0.0000042 0.0010939 -0.0084314 0.0007063 -0.0074639
-0.0000467 0.0002000 0.0001148 0.0004499 0.0053894 -0.0016855 0.0013902 -0.0144989 0.0060194 -0.0099085 -0.0004420 0.0005220 0.0001175 0.0004348 -0.0000536 0.0001054 0.0177590 -0.0529919 0.0001520 -0.0103082
-0.0000209 0.0003134 0.0001379 0.0005170 0.0028381 -0.0115209 -0.0052433 0.0025466 -0.0009429 -0.0033690 -0.0007625 0.0007866 0.0001379 0.0004082 -0.0000065 0.0001261 -0.0034885 0.0023140 -0.0016807 -0.0008684
0.0000366 0.0003803 0.0001574 0.0004981 -0.0026173 -0.0002532 -0.0026439 0.0139851 -0.0014637 0.0030825 -0.0002423 -0.0000717 0.0002985 -0.0001385 0.0000607 -0.0000204 -0.0055559 0.0132709 -0.0035565 0.0027600
0.0000988 0.0004021 0.0001694 0.0004268 -0.0052662 0.0008706 -0.0008932 0.0091041 0.0017913 -0.0082465 0.0000846 -0.0006245 0.0000759 -0.0003041 0.0001152 -0.0000940 0.0049710 0.0049142 -0.0041081 -0.0017713
0.0001622 0.0005040 0.0001719 0.0003617 0.0069399 -0.0074423 -0.0127884 0.0132383 -0.0039546 0.0050673 0.0003690 -0.0006751 -0.0001684 -0.0002247 0.0001595 -0.0000655 0.0035193 0.0064503 -0.0137873 0.0080615
0.0001961 0.0006082 0.0001654 0.0003403 0.0079034 -0.0071198 -0.0175849 0.0178735 -0.0085826 0.0197851 0.0005684 -0.0005534 -0.0000918 -0.0003378 0.0001646 0.0000410 0.0051405 -0.0056400 0.0005124 -0.0091357
0.0001966 0.0006620 0.0001573 0.0003567 -0.0010806 -0.0053704 -0.0122836 0.0075266 -0.0042914 0.0127433 0.0003772 -0.0003624 0.0000313 -0.0004052 0.0001516 0.0001356 0.0039361 -0.0050606 0.0104842 -0.0143037
0.0002052 0.0007329 0.0001488 0.0003619 -0.0010177 -0.0103884 0.0096017 -0.0217243 -0.0019781 -0.0074169 0.0003232 -0.0002815 0.0001524 -0.0005406 0.0001574 0.0000654 -0.0019527 0.0022865 0.0011853 0.0061283
0.0002102 0.0006898 0.0001429 0.0002899 0.0013532 -0.0175354 0.0097539 -0.0181288 -0.0183221 0.0158786 -0.0003488 0.0000369 0.0002316 -0.0008364 0.0001495 -0.0001389 0.0042673 -0.0090434 0.0041699 -0.0057513
0.0001993 0.0005019 0.0001366 0.0001312 -0.0054503 -0.0068774 -0.0011360 -0.0012160 -0.0100605 0.0112232 -0.0009067 -0.0001778 0.0002342 -0.0011159 0.0001539 -0.0002758 0.0001307 -0.0012413 0.0090281 -0.0203811
0.0001901 0.0003947 0.0001268 0.0000214 0.0058243 -0.0210441 -0.0034981 0.0000459 0.0093662 -0.0100487 -0.0005167 -0.0005655 0.0002316 -0.0011629 0.0001834 -0.0002918 0.0010131 0.0023810 0.0041862 -0.0108951
0.0001948 0.0004024 0.0001212 -0.0000071 0.0073162 -0.0167493 -0.0058509 0.0017383 0.0105128 -0.0174089 -0.0001690 -0.0003363 -0.0001232 -0.0006883 0.0001623 -0.0001983 0.0073378 -0.0066508 0.0104380 -0.0152996
0.0001863 0.0004308 0.0001108 0.0000207 0.0029246 -0.0090233 -0.0026874 -0.0033067 0.0029485 -0.0175311 0.0003936 -0.0005766 -0.0003849 -0.0003725 0.0001333 -0.0000592 -0.0036092 0.0088812 0.0093985 -0.0134747
0.0001652 0.0004602 0.0001065 0.0000654 0.0089787 -0.0139140 0.0017803 -0.0185511 -0.0024051 -0.0013867 0.0009373 -0.0010802 -0.0003226 -0.0003747 0.0001363 -0.0000601 -0.0052629 0.0137014 0.0047532 -0.0088330
0.0001546 0.0004020 0.0001080 0.0000244 0.0005634 0.0050101 -0.0049028 -0.0025313 -0.0045301 0.0073846 0.0007806 -0.0009663 -0.0001956 -0.0005599 0.0001308 -0.0002319 0.0008335 0.0144397 0.0120966 -0.0253086
0.0001528 0.0002436 0.0001062 -0.0001046 -0.0030073 0.0020478 0.0009143 -0.0008446 0.0027662 -0.0088404 0.0005687 -0.0013439 0.0001062 -0.0011201 0.0001188 -0.0003476 0.0017442 0.0127490 0.0124682 -0.0312516
0.0001406 0.0001169 0.0001044 -0.0001962 0.0069182 -0.0209126 0.0066405 -0.0034526 0.0088240 -0.0270624 0.0004287 -0.0015749 0.0003107 -0.0014073 0.0001259 -0.0003316 -0.0007914 0.0050039 -0.0002079 -0.0051955
0.0001227 0.0000880 0.0001023 -0.0001991 0.0052619 -0.0230785 0.0023051 0.0032349 -0.0061682 0.0040484 -0.0004085 -0.0004699 0.0001897 -0.0010234 0.0001334 -0.0002239 -0.0109358 0.0156016 0.0016343 0.0117456
0.0001089 0.0001205 0.0001010 -0.0001442 0.0039404 -0.0064854 -0.0001760 -0.0004327 -0.0044886 -0.0011832 -0.0003731 -0.0002267 0.0001098 -0.0007361 0.0001091 -0.0000601 -0.0054441 0.0079976 0.0043150 0.0075020
0.0000939 0.0001696 0.0001008 -0.0000779 0.0042337 -0.0066668 0.0031152 -0.0135073 0.0094659 -0.0114250 -0.0001285 -0.0001361 0.0000406 -0.0005151 0.0000891 0.0000752 0.0090569 -0.0015812 -0.0003359 -0.0090515
0.0000874 0.0001947 0.0001011 -0.0000455 0.0055508 -0.0249844 -0.0012302 -0.0114470 0.0037130 0.0029715 -0.0000477 -0.0000378 -0.0003220 -0.0001684 0.0000806 0.0000250 0.0013034 0.0115470 -0.0128418 0.0146855
0.0000784 0.0000972 0.0000990 -0.0001131 0.0150909 -0.0356731 0.0041453 -0.0115637 -0.0061866 0.0035138 0.0004253 -0.0009717 -0.0003121 -0.0004872 0.0000799 -0.0001722 -0.0081684 0.0149501 -0.0067750 0.0063080
0.0000620 -0.0000521 0.0001001 -0.0002201 0.0161324 -0.0368040 0.0061350 -0.0172214 -0.0052741 -0.0047721 0.0006340 -0.0012984 -0.0002386 -0.0006068 0.0000836 -0.0002301 0.0068712 -0.0178162 0.0076302 -0.0078732
0.0000589 -0.0000950 0.0001058 -0.0002631 0.0081380 -0.0157350 -0.0023013 -0.0018578 -0.0063395 -0.0003838 0.0005603 -0.0007737 -0.0001547 -0.0003641 0.0000678 -0.0001270 0.0013589 -0.0066015 0.0039147 0.0017194
0.0000547 -0.0000710 0.0001037 -0.0002418 0.0034777 0.0072117 0.0060812 -0.0122571 0.0026581 -0.0017930 0.0005077 -0.0006793 0.0000936 -0.0003694 0.0000614 0.0000187 -0.0108832 0.0141986 -0.0012413 -0.0001971
0.0000436 -0.0000268 0.0000994 -0.0001849 0.0022797 0.0052529 0.0167425 -0.0467413 0.0055954 -0.0079541 0.0000300 -0.0002849 0.0001663 -0.0002297 0.0000531 0.0001635 -0.0066129 0.0087323 -0.0019039 -0.0063311
0.0000349 0.0000364 0.0000951 -0.0001154 -0.0012632 -0.0123491 0.0077615 -0.0171154 -0.0024096 0.0037433 -0.0006046 0.0003803 0.0001104 -0.0000342 0.0000501 0.0001639 -0.0107752 0.0173361 -0.0045775 0.0034594
0.0000384 0.0000090 0.0000930 -0.0001486 -0.0158326 0.0123812 0.0014870 0.0164464 0.0007870 0.0002526 -0.0005416 -0.0001148 0.0001784 -0.0003227 0.0000578 -0.0000290 -0.0070739 0.0163206 -0.0074006 0.0094377
0.0000470 -0.0001343 0.0001003 -0.0002819 -0.0163442 0.0209998 -0.0007498 0.0140320 0.0057053 -0.0214173 -0.0001957 -0.0008488 0.0000127 -0.0004588 0.0000521 -0.0001423 0.0036116 0.0010055 0.0018854 -0.0109936
0.0000395 -0.0002257 0.0001030 -0.0003538 0.0041106 0.0067641 0.0036470 -0.0236048 0.0043010 -0.0167572 0.0001681 -0.0009234 -0.0001744 -0.0002538 0.0000360 -0.0000762 0.0027571 0.0003647 -0.0022351 0.0019917
0.0000243 -0.0002235 0.0000989 -0.0003428 0.0045395 0.0072013 -0.0055937 0.0019272 -0.0004073 0.0139195 0.0003967 -0.0008026 -0.0001952 -0.0000539 0.0000310 0.0000444 0.0038113 -0.0021479 -0.0094692 0.0120961
0.0000113 -0.0001836 0.0000947 -0.0002916 -0.0054187 0.0071972 -0.0052892 0.0025385 -0.0011093 0.0111949 0.0003181 -0.0005384 -0.0002465 0.0001055 0.0000450 0.0001687 0.0101329 -0.0264945 0.0012191 0.0044109
-0.0000006 -0.0001276 0.0000889 -0.0002189 -0.0016353 -0.0076788 0.0090141 -0.0128580 -0.0013209 -0.0113118 0.0004376 -0.0001952 -0.0001549 0.0002397 0.0000544 0.0002769 0.0045837 -0.0251143 0.0007981 0.0096980
-0.0000005 -0.0000737 0.0000861 -0.0001688 0.0048746 -0.0172453 0.0060575 -0.0035504 -0.0140985 0.0203832 -0.0002040 0.0004708 -0.0000187 0.0001856 0.0000522 0.0001960 0.0095197 -0.0242940 0.0048491 -0.0058933
-0.0000065 -0.0001542 0.0000835 -0.0002363 0.0055129 -0.0174423 -0.0018507 0.0058648 -0.0123039 0.0202936 -0.0006550 0.0000800 0.0000155 -0.0001988 0.0000648 -0.0000643 0.0125274 -0.0287372 0.0171060 -0.0426201
-0.0000179 -0.0003115 0.0000783 -0.0003493 0.0054558 -0.0227000 -0.0037472 0.0054187 0.0083436 -0.0050057 -0.0002987 -0.0005837 0.0000263 -0.0003856 0.0000769 -0.0001582 0.0047778 -0.0082127 0.0012281 -0.0105572
-0.0000223 -0.0003623 0.0000762 -0.0003838 -0.0093659 0.0054382 -0.0072354 0.0073786 0.0028451 0.0030641 -0.0001850 -0.0003111 -0.0002587 0.0000152 0.0000649 -0.0000610 0.0081537 -0.0125230 -0.0021791 0.0022685
-0.0000327 -0.0003408 0.0000697 -0.0003442 -0.0005641 0.0004036 -0.0089882 0.0123568 -0.0120359 0.0123886 0.0001486 -0.0003839 -0.0005643 0.0003343 0.0000673 0.0000560 0.0156352 -0.0408748 0.0031256 -0.0100626
-0.0000481 -0.0002830 0.0000614 -0.0002670 0.0104922 -0.0133916 -0.0073182 0.0026816 -0.0072173 0.0040818 0.0007252 -0.0007206 -0.0004643 0.0003685 0.0000682 0.0001800 0.0082871 -0.0261447 0.0119229 -0.0308283
-0.0000648 -0.0002094 0.0000558 -0.0001762 -0.0011551 0.0061043 -0.0146980 0.0153591 -0.0113245 0.0073864 0.0007755 -0.0003232 -0.0003196 0.0005119 0.0000585 0.0003339 -0.0000131 0.0104231 0.0062717 -0.0139431
-0.0000722 -0.0001440 0.0000550 -0.0001066 -0.0019801 -0.0013978 -0.0064423 0.0072298 -0.0076399 0.0052015 0.0006607 -0.0003378 -0.0001330 0.0002444 0.0000608 0.0002686 0.0011738 0.0075019 0.0023469 -0.0130207
-0.0000677 -0.0001933 0.0000568 -0.0001423 0.0082681 -0.0263603 0.0107417 -0.0156956 -0.0033886 0.0006203 0.0004141 -0.0009116 0.0001663 -0.0003470 0.0000745 0.0000025 -0.0001968 -0.0063261 0.0115501 -0.0352981
-0.0000645 -0.0003194 0.0000569 -0.0002322 0.0012757 -0.0071719 0.0060868 -0.0039233 -0.0097561 0.0137832 -0.0005454 -0.0003347 0.0002371 -0.0004907 0.0000957 -0.0001057 -0.0167857 0.0211950 0.0024631 0.0056588
-0.0000680 -0.0003667 0.0000557 -0.0002602 0.0072087 -0.0119523 0.0032254 -0.0048661 -0.0015858 0.0052085 -0.0005791 -0.0003170 0.0001490 -0.0004538 0.0000892 -0.0000350 -0.0137538 0.0183899 -0.0020247 0.0141353
-0.0000724 -0.0003409 0.0000493 -0.0002193 0.0138631 -0.0343655 0.0035397 -0.0065668 0.0110059 -0.0091688 -0.0004572 -0.0001320 -0.0000073 -0.0002716 0.0000691 0.0001036 0.0050010 0.0014919 0.0019276 -0.0110544
-0.0000780 -0.0002671 0.0000404 -0.0001375 0.0008854 -0.0055975 -0.0019447 0.0013825 0.0046987 0.0030538 -0.0002014 0.0004250 -0.0003398 0.0001734 0.0000975 0.0002536 0.0030821 0.0044204 -0.0054109 -0.0077044
-0.0000020 -0.0000228 0.0000313 -0.0001423 0.0000468 0.0010236 -0.0000824 0.0017025 0.0023755 -0.0085179 0.0007558 0.0002596 -0.0003339 0.0001254 0.0001460 0.0003920 0.0005423 -0.0025136 -0.0118788 0.0008942
0.0001136 0.0002833 0.0000288 -0.0001655 0.0026402 -0.0105623 -0.0033335 0.0020504 0.0123476 -0.0393827 0.0009309 0.0004799 -0.0000916 -0.0000423 0.0001728 0.0003182 -0.0029445 -0.0088723 0.0027627 0.0035365
0.0001750 0.0003523 0.0000227 -0.0002360 -0.0010822 0.0007137 -0.0014768 0.0013038 0.0059490 -0.0303272 0.0007154 0.0006724 0.0002131 -0.0002474 0.0002158 0.0001462 -0.0122510 0.0054751 0.0040350 0.0013749
0.0003897 0.0007151 -0.0000362 -0.0009361 -0.0009951 0.0152172 0.0092323 -0.0151605 0.0078704 -0.0124093 0.0013726 0.0005616 0.0006776 -0.0010128 0.0002421 -0.0001099 0.0028050 -0.0158724 0.0039800 -0.0188149
0.0006900 0.0014077 0.0000294 -0.0015046 0.0013560 0.0076693 0.0160212 -0.0389892 0.0087219 -0.0092717 0.0015572 0.0012623 0.0007540 -0.0012996 0.0000793 -0.0007003 0.0121291 -0.0402437 -0.0009612 -0.0098505
0.0008230 0.0018262 0.0003139 -0.0012272 0.0056914 -0.0193326 -0.0011960 -0.0099249 0.0020770 0.0015166 0.0013097 0.0025646 0.0006668 -0.0009852 -0.0000786 -0.0009411 -0.0077034 0.0021459 -0.0045831 0.0027927
0.0009370 0.0022835 0.0004471 -0.0011720 -0.0096887 0.0154112 -0.0097798 0.0228755 0.0045161 0.0018105 0.0016563 0.0028479 0.0006722 -0.0009673 -0.0000884 -0.0007798 -0.0019813 -0.0027242 -0.0079487 0.0069188
0.0010444 0.0026971 0.0004465 -0.0011444 -0.0130691 0.0243968 -0.0005344 0.0166472 0.0071668 -0.0070029 0.0020119 0.0024115 0.0001593 -0.0006278 -0.0001370 -0.0006496 0.0063313 -0.0016574 0.0015505 -0.0114718
0.0009898 0.0026242 0.0004414 -0.0008956 0.0046597 0.0092904 0.0036676 -0.0016275 0.0049393 -0.0056192 0.0019473 0.0019388 -0.0002375 -0.0000505 -0.0002839 -0.0007597 -0.0005016 0.0150732 -0.0003689 -0.0031175
0.0007254 0.0018149 0.0003128 -0.0005219 -0.0004579 0.0184504 -0.0153908 0.0248903 0.0002439 0.0142544 0.0011827 0.0008792 0.0001096 0.0009002 -0.0004676 -0.0010782 0.0001990 0.0011836 0.0028669 -0.0044765
0.0004238 0.0007944 0.0001042 -0.0001413 -0.0142628 0.0189711 -0.0214728 0.0273429 -0.0037428 0.0197223 0.0002248 -0.0000456 0.0004227 0.0013107 -0.0004958 -0.0009345 -0.0017440 0.0010657 0.0104203 -0.0073606
0.0002325 0.0003586 -0.0000425 -0.0001063 -0.0037122 -0.0024391 0.0018062 0.0030597 -0.0074254 0.0085006 -0.0000230 -0.0006266 0.0003477 0.0008405 -0.0004722 -0.0006663 -0.0047702 0.0063823 0.0018413 0.0044274
0.0001550 0.0003486 0.0000112 -0.0000071 0.0030480 -0.0130327 0.0040881 -0.0015281 -0.0085969 0.0077333 -0.0009790 0.0001505 0.0002961 0.0007004 -0.0005008 -0.0006442 0.0072481 -0.0053830 -0.0010403 -0.0011526
0.0001423 0.0003786 0.0001019 0.0001201 0.0015215 -0.0058606 -0.0065187 -0.0028145 -0.0050015 -0.0011717 -0.0017809 0.0010346 0.0000865 0.0008929 -0.0005110 -0.0006068 0.0075113 -0.0035865 0.0043636 -0.0150668
0.0001045 0.0003422 0.0001145 0.0001232 0.0019329 -0.0028050 -0.0073494 -0.0101860 0.0052552 -0.0045898 -0.0013026 0.0005347 -0.0000604 0.0011048 -0.0005108 -0.0004712 0.0077872 -0.0063642 0.0044511 -0.0235313
0.0000912 0.0003659 0.0001105 0.0001151 -0.0048713 -0.0011063 -0.0002262 -0.0213770 -0.0001585 0.0095334 -0.0007632 0.0002549 -0.0003700 0.0013820 -0.0004987 -0.0004512 0.0091024 -0.0125021 0.0080135 -0.0101986
0.0000873 0.0002704 0.0001024 0.0000155 0.0020533 -0.0118425 -0.0010217 -0.0080938 -0.0063584 0.0080531 -0.0002867 -0.0002748 -0.0005179 0.0012425 -0.0004827 -0.0006296 -0.0042236 0.0025732 0.0035982 -0.0011014
0.0000843 0.0000554 0.0000996 -0.0001646 0.0082947 -0.0008823 0.0042319 -0.0088755 0.0036179 -0.0203922 0.0001904 -0.0013167 -0.0002766 0.0006479 -0.0004592 -0.0007601 -0.0116475 0.0142738 0.0013461 0.0026036
0.0000798 -0.0000792 0.0000906 -0.0002842 0.0042703 0.0044051 -0.0028608 0.0043881 0.0068247 -0.0263051 -0.0001535 -0.0011860 -0.0000884 0.0004167 -0.0004131 -0.0007396 0.0040850 -0.0001069 0.0046271 -0.0030414
0.0000779 -0.0001071 0.0000777 -0.0003288 -0.0034911 -0.0068828 -0.0013567 0.0026388 0.0054849 -0.0221130 -0.0007373 -0.0004431 0.0001055 0.0004045 -0.0003892 -0.0006151 0.0026257 0.0093881 -0.0007931 -0.0043438
0.0000804 -0.0000975 0.0000606 -0.0003267 -0.0138079 0.0102134 0.0045128 0.0082517 0.0042079 -0.0181925 -0.0011242 -0.0000948 0.0003192 0.0002700 -0.0004090 -0.0005086 -0.0094623 0.0172370 -0.0063584 0.0054468
0.0000666 -0.0000868 0.0000413 -0.0002915 -0.0037165 -0.0093349 0.0018146 0.0115009 -0.0047684 -0.0035128 -0.0012899 0.0002167 0.0002694 0.0004708 -0.0004298 -0.0004093 -0.0066403 0.0025130 -0.0025691 0.0080967
0.0000449 -0.0000605 0.0000308 -0.0002295 0.0124268 -0.0185584 0.0013975 -0.0090925 -0.0039616 0.0030117 -0.0008771 0.0003549 0.0000115 0.0008121 -0.0004102 -0.0003458 0.0048672 -0.0148246 0.0006615 0.0056830
0.0000229 -0.0001557 0.0000122 -0.0002711 0.0121435 -0.0123671 -0.0134208 0.0120304 0.0024322 0.0141854 -0.0005634 -0.0000698 -0.0000990 0.0007234 -0.0003783 -0.0004018 0.0059443 -0.0100107 0.0017578 -0.0007418
-0.0000040 -0.0003924 -0.0000116 -0.0003774 0.0040272 -0.0046792 -0.0122955 0.0125674 0.0035970 0.0091995 -0.0000596 -0.0008772 -0.0000368 0.0004784 -0.0003174 -0.0004295 -0.0002656 -0.0012536 0.0050780 -0.0094159
-0.0000277 -0.0005681 -0.0000256 -0.0004132 0.0012961 -0.0011743 0.0008889 0.0088170 0.0047045 -0.0175263 0.0002413 -0.0012133 -0.0000149 0.0002193 -0.0002360 -0.0003333 -0.0098615 0.0106451 0.0005631 -0.0038801
-0.0000285 -0.0006664 -0.0000425 -0.0004732 -0.0039628 0.0078752 0.0040990 0.0020688 -0.0089710 -0.0007272 -0.0006623 -0.0004642 -0.0000046 -0.0001252 -0.0001874 -0.0001649 -0.0050292 0.0078184 0.0017331 -0.0011296
-0.0000089 -0.0006854 -0.0000577 -0.0004963 -0.0106494 0.0145163 -0.0004010 -0.0007227 -0.0085172 -0.0021007 -0.0011643 -0.0001620 0.0001608 -0.0002621 -0.0001101 0.0000228 0.0063281 -0.0171880 0.0038263 -0.0108030
0.0000206 -0.0005969 -0.0000552 -0.0004233 -0.0061093 0.0008762 -0.0085489 0.0077125 0.0022956 0.0066701 -0.0009786 -0.0000573 0.0002250 -0.0001294 -0.0000372 0.0001656 0.0214991 -0.0466581 -0.0083443 0.0015227
0.0000464 -0.0005052 -0.0000467 -0.0003539 -0.0064608 0.0085501 -0.0080868 0.0009320 0.0004425 0.0130933 -0.0011089 0.0005866 -0.0001035 0.0002579 -0.0000024 0.0002151 0.0150579 -0.0264430 -0.0023846 -0.0034922
0.0000854 -0.0004678 -0.0000260 -0.0003907 -0.0059468 0.0063496 -0.0115307 0.0126753 0.0010333 -0.0051683 -0.0006111 -0.0001574 -0.0003118 0.0001879 0.0000449 0.0000532 -0.0009698 -0.0055904 0.0113542 -0.0283057
0.0001298 -0.0005278 -0.0000001 -0.0005312 0.0058072 -0.0010950 -0.0049730 0.0061551 -0.0025749 -0.0065732 0.0002529 -0.0015821 -0.0001476 -0.0003115 0.0000549 -0.0001453 -0.0035299 0.0038265 0.0118285 -0.0247829
0.0001458 -0.0006316 0.0000141 -0.0006599 0.0040030 -0.0022606 -0.0025458 0.0061137 -0.0146601 0.0141961 0.0004867 -0.0017660 -0.0001056 -0.0003755 0.0000541 -0.0001753 0.0037050 0.0091868 0.0141468 -0.0247427
0.0001570 -0.0006579 0.0000188 -0.0007088 -0.0020922 -0.0029397 -0.0006196 0.0003228 -0.0068477 0.0017108 0.0002307 -0.0013229 0.0000826 -0.0005239 0.0000927 -0.0001527 0.0026247 0.0094435 0.0123142 -0.0237593
0.0001661 -0.0006232 0.0000184 -0.0006922 0.0052960 -0.0109304 0.0086255 -0.0089803 -0.0054054 -0.0021808 -0.0000450 -0.0010684 0.0003785 -0.0007139 0.0001144 -0.0000683 -0.0055470 0.0070582 0.0039592 -0.0104618
0.0001680 -0.0005649 0.0000233 -0.0006491 0.0040825 -0.0143426 -0.0006762 0.0087328 -0.0111991 0.0167240 -0.0008450 -0.0000658 0.0004253 -0.0005331 0.0001111 0.0000661 -0.0193994 0.0204964 -0.0002362 0.0110107
0.0001629 -0.0004954 0.0000233 -0.0005875 0.0024677 -0.0015463 -0.0093430 0.0074460 -0.0023589 0.0067950 -0.0010662 0.0004448 0.0003207 -0.0002639 0.0001168 0.0001929 -0.0156855 0.0179452 -0.0026140 0.0164927
0.0001674 -0.0004534 0.0000241 -0.0005756 0.0010784 0.0017568 -0.0064748 0.0003293 0.0079435 -0.0065364 -0.0006545 -0.0000739 0.0001716 -0.0002645 0.0001548 0.0001002 0.0081498 -0.0103920 -0.0091907 0.0101742
0.0001753 -0.0005239 0.0000359 -0.0006635 -0.0015941 -0.0003147 -0.0110437 0.0122575 0.0017117 0.0054178 -0.0003109 -0.0005892 -0.0001681 -0.0002304 0.0001781 -0.0000998 0.0114638 -0.0139999 -0.0179122 0.0088960
0.0001775 -0.0006104 0.0000448 -0.0007397 0.0059767 -0.0135906 -0.0009476 0.0048935 0.0038896 -0.0084311 0.0002577 -0.0013276 -0.0001948 -0.0003310 0.0001875 -0.0001414 0.0058255 -0.0103604 -0.0147444 -0.0029241
0.0001840 -0.0006019 0.0000577 -0.0007407 0.0087276 -0.0242259 0.0011267 -0.0001539 0.0075572 -0.0151184 0.0001341 -0.0010268 -0.0001320 -0.0003162 0.0001988 -0.0000688 -0.0099140 0.0006984 -0.0009762 -0.0006672
0.0001935 -0.0005294 0.0000736 -0.0006822 0.0021243 -0.0081798 -0.0028189 0.0044129 0.0016983 -0.0102086 -0.0004257 -0.0001308 -0.0001066 -0.0000868 0.0001886 0.0000637 -0.0276798 0.0251007 0.0030892 -0.0014570
0.0002005 -0.0004283 0.0000896 -0.0005781 0.0016694 0.0046438 0.0036234 -0.0047380 0.0084724 -0.0174320 -0.0003989 -0.0002204 0.0000480 -0.0000898 0.0001712 0.0002085 -0.0128076 0.0179540 0.0025318 -0.0127138
0.0002061 -0.0003140 0.0000929 -0.0004536 0.0004015 0.0085243 0.0043173 -0.0114680 0.0031069 -0.0027481 -0.0006782 0.0002317 -0.0001102 0.0001089 0.0001795 0.0002820 0.0011129 -0.0057019 -0.0089025 -0.0001012
0.0002193 -0.0002526 0.0000880 -0.0003827 -0.0045159 0.0136025 0.0018514 -0.0076385 -0.0009066 0.0012309 -0.0009682 0.0003734 -0.0002490 0.0001377 0.0001983 0.0001603 0.0035513 -0.0144298 -0.0043030 -0.0025375
0.0002287 -0.0002965 0.0000944 -0.0004088 -0.0061354 0.0117084 -0.0006247 0.0096363 0.0073302 -0.0114997 -0.0003157 -0.0006399 -0.0001894 -0.0001157 0.0001876 0.0000254 0.0105753 -0.0240752 0.0058713 -0.0193046
0.0002247 -0.0003507 0.0001069 -0.0004364 -0.0065934 -0.0038828 -0.0017234 0.0139047 0.0036337 -0.0054235 0.0002790 -0.0011259 -0.0003479 -0.0000583 0.0001689 0.0000197 0.0089076 -0.0030639 0.0109157 -0.0357109
0.0002163 -0.0003466 0.0001157 -0.0003969 0.0055610 -0.0123503 -0.0008256 0.0008025 -0.0082181 0.0114934 0.0004674 -0.0010940 -0.0004043 -0.0000094 0.0001492 0.0000980 0.0069645 -0.0024428 0.0103801 -0.0364185
0.0002017 -0.0003188 0.0001093 -0.0003166 0.0149544 -0.0243004 -0.0017280 -0.0103392 -0.0072749 0.0105538 0.0004199 -0.0008467 -0.0000941 -0.0001490 0.0001272 0.0001837 0.0078261 -0.0281882 0.0128741 -0.0321523
0.0001709 -0.0003050 0.0000949 -0.0002310 0.0211682 -0.0555395 -0.0096365 0.0039506 -0.0038185 0.0054321 -0.0002479 -0.0000801 0.0001412 -0.0001632 0.0001160 0.0002494 -0.0062561 0.0033058 0.0051025 0.0064818
0.0001139 -0.0003249 0.0000942 -0.0001185 -0.0004742 -0.0085784 -0.0008805 0.0073313 -0.0069330 0.0056732 -0.0006621 0.0003076 0.0002236 -0.0001414 0.0001065 0.0002615 -0.0027573 0.0017198 0.0043587 0.0056903
0.0000583 -0.0004574 0.0000966 -0.0000731 0.0036509 -0.0100579 0.0070234 -0.0091301 -0.0043746 0.0095939 -0.0011384 0.0004482 0.0000939 -0.0001300 0.0000832 0.0001013 0.0114063 -0.0152748 0.0046888 -0.0193104
0.0000062 -0.0007093 0.0000931 -0.0001280 0.0161560 -0.0312427 -0.0026247 -0.0010859 -0.0048437 0.0123765 -0.0013919 0.0003089 -0.0002494 0.0000208 0.0000378 -0.0000185 0.0131067 -0.0168434 -0.0139309 0.0108735
-0.0000541 -0.0009174 0.0000945 -0.0001377 0.0142953 -0.0258338 -0.0089380 0.0076003 -0.0021256 0.0030693 -0.0008274 -0.0003077 -0.0002816 -0.0000973 0.0000109 0.0000058 0.0045016 -0.0073203 -0.0085895 0.0064433
-0.0001028 -0.0010167 0.0000919 -0.0001004 0.0135895 -0.0363888 0.0039197 -0.0176693 0.0082917 -0.0198393 -0.0003799 -0.0003992 -0.0003957 -0.0000111 -0.0000126 0.0000614 0.0069429 -0.0125890 0.0044287 0.0003923
-0.0001629 -0.0011236 0.0000808 -0.0000527 0.0037338 -0.0060668 0.0187993 -0.0420769 0.0050677 -0.0235264 -0.0000799 -0.0004092 -0.0006205 0.0002402 -0.0000660 0.0001913 -0.0005728 -0.0037238 0.0001167 0.0115641
-0.0002121 -0.0011985 0.0000593 0.0000512 0.0015750 0.0199847 0.0157796 -0.0294660 0.0085331 -0.0205256 0.0001794 -0.0008437 -0.0006324 0.0000120 -0.0002272 0.0000226 -0.0197411 0.0152232 -0.0036718 0.0103700
-0.0002423 -0.0012184 0.0001229 0.0004396 0.0064290 0.0071061 0.0127789 -0.0315201 0.0162896 -0.0274276 -0.0004473 -0.0006202 -0.0005849 -0.0000062 -0.0003258 -0.0002169 -0.0072146 -0.0090777 -0.0045245 0.0044857
-0.0002070 -0.0011883 0.0001973 0.0006796 0.0046985 -0.0048092 0.0045355 -0.0119581 0.0125108 -0.0151554 -0.0012532 -0.0000864 -0.0004627 0.0001957 -0.0003038 -0.0002762 -0.0053555 -0.0043658 -0.0078599 0.0011687
-0.0001379 -0.0011844 0.0002139 0.0005772 -0.0139530 0.0218316 0.0004986 0.0194358 0.0082356 -0.0010176 -0.0011037 -0.0004289 -0.0002693 0.0000917 -0.0003049 -0.0003731 -0.0053273 0.0045897 -0.0072608 -0.0035584
-0.0001149 -0.0012225 0.0002326 0.0005492 -0.0089963 0.0086640 0.0016020 0.0157947 0.0059833 -0.0019735 -0.0006454 -0.0007852 -0.0002823 0.0002791 -0.0002909 -0.0003412 0.0030099 -0.0024245 -0.0066082 -0.0015542
-0.0001024 -0.0011961 0.0002307 0.0005749 0.0088807 -0.0008941 0.0028322 -0.0055781 0.0024462 0.0007443 0.0000106 -0.0009308 -0.0003705 0.0007755 -0.0003052 -0.0002968 0.0035382 -0.0076158 -0.0061371 0.0057916
-0.0001068 -0.0011755 0.0002455 0.0006871 0.0076709 0.0003133 -0.0119082 0.0165492 -0.0014222 0.0189394 0.0004617 -0.0008862 -0.0001040 0.0009364 -0.0002739 -0.0001797 0.0018296 -0.0072476 0.0000266 -0.0084262
-0.0000725 -0.0010350 0.0002647 0.0008061 0.0061406 -0.0139827 -0.0194902 0.0251918 -0.0011284 0.0147625 -0.0000009 -0.0003355 0.0001107 0.0007361 -0.0001834 0.0000757 0.0029677 -0.0101838 0.0074890 -0.0132586
-0.0000080 -0.0008067 0.0002591 0.0008238 -0.0035587 0.0031543 -0.0035949 0.0147758 0.0006827 -0.0082386 -0.0004178 -0.0003763 0.0002812 0.0002892 -0.0001269 0.0001500 -0.0052645 -0.0076756 0.0058867 -0.0097239
0.0000271 -0.0007821 0.0002532 0.0007098 -0.0045830 -0.0035852 0.0026279 0.0049745 -0.0065915 0.0080132 -0.0011801 -0.0002125 0.0003851 -0.0002300 -0.0000906 -0.0000809 0.0035408 -0.0106392 0.0024199 -0.0103865
0.0000406 -0.0009284 0.0002622 0.0005339 0.0133182 -0.0448766 0.0046593 -0.0171156 -0.0081340 0.0134373 -0.0015003 -0.0003805 0.0001296 -0.0004797 -0.0000742 -0.0002507 0.0099843 -0.0142129 -0.0036233 0.0049628
0.0000645 -0.0009611 0.0002573 0.0004252 0.0059327 -0.0186065 -0.0023639 -0.0082345 0.0037961 0.0006346 -0.0008698 -0.0013598 0.0000686 -0.0007538 -0.0001507 -0.0003930 0.0046159 -0.0047206 -0.0089424 0.0040033
0.0000626 -0.0009588 0.0002541 0.0004417 -0.0016261 -0.0028707 -0.0025169 0.0017699 0.0099342 -0.0121104 -0.0002395 -0.0014277 -0.0001349 -0.0003931 -0.0002246 -0.0005009 0.0090056 -0.0194054 0.0008491 0.0003179
0.0000482 -0.0009515 0.0002576 0.0004789 0.0028522 -0.0059966 0.0091068 -0.0181352 0.0032406 -0.0056986 0.0004371 -0.0013253 -0.0002508 0.0001339 -0.0002149 -0.0004382 0.0075274 -0.0241326 0.0014245 0.0050489
0.0000663 -0.0008427 0.0002425 0.0004874 0.0074277 0.0047868 0.0234169 -0.0553034 -0.0045054 0.0019053 0.0008642 -0.0016641 0.0000968 -0.0000208 -0.0001889 -0.0003533 -0.0033495 -0.0071039 -0.0012889 0.0022645
0.0000806 -0.0007388 0.0002309 0.0005239 0.0073641 0.0004895 0.0138639 -0.0415825 -0.0014040 -0.0075915 0.0003679 -0.0012907 0.0002966 -0.0000617 -0.0001752 -0.0003695 -0.0002186 -0.0019182 0.0063115 -0.0151577
0.0001093 -0.0007271 0.0002361 0.0004592 0.0069455 -0.0115522 0.0095092 -0.0230757 0.0082716 -0.0185112 -0.0004115 -0.0008516 0.0004171 -0.0002456 -0.0001433 -0.0005820 0.0000304 0.0072229 -0.0008888 -0.0035347
0.0001486 -0.0008020 0.0002390 0.0003129 -0.0029390 0.0087228 0.0059624 0.0087789 0.0178213 -0.0370211 -0.0002393 -0.0014569 0.0006456 -0.0006572 -0.0001121 -0.0007302 -0.0038442 0.0090976 -0.0119817 0.0149069
0.0001813 -0.0007967 0.0002368 0.0002223 -0.0010641 -0.0039497 0.0067133 0.0039777 0.0115084 -0.0305566 -0.0000475 -0.0016229 0.0005224 -0.0005731 -0.0001104 -0.0006999 0.0003585 0.0002761 -0.0065749 0.0057938
0.0002138 -0.0006917 0.0002314 0.0001994 0.0122799 -0.0114121 0.0050958 -0.0124453 -0.0012541 0.0052260 0.0000071 -0.0012743 0.0003123 -0.0002326 -0.0001021 -0.0006595 -0.0040863 0.0098601 -0.0017650 -0.0021862
0.0002313 -0.0005888 0.0002189 0.0002056 0.0132800 -0.0112682 -0.0143451 0.0199289 -0.0001759 0.0239136 0.0003787 -0.0012459 0.0004644 -0.0001368 -0.0000909 -0.0006135 -0.0034657 0.0081170 0.0015924 -0.0090130
0.0002300 -0.0005122 0.0002064 0.0002215 0.0032677 -0.0043774 -0.0133584 0.0172332 0.0021497 0.0156826 0.0008911 -0.0014786 0.0005426 0.0000681 -0.0000984 -0.0005306 0.0059197 -0.0172161 0.0117875 -0.0230881
0.0002116 -0.0004675 0.0001946 0.0002418 -0.0038141 -0.0020579 0.0045181 0.0005798 -0.0046139 0.0054792 0.0009518 -0.0013500 0.0006487 0.0002736 -0.0001332 -0.0005055 -0.0029486 -0.0028630 0.0012819 -0.0044764
0.0001951 -0.0005408 0.0001781 0.0001817 -0.0011844 -0.0151410 0.0060913 -0.0007245 -0.0239528 0.0268388 -0.0002481 -0.0004639 0.0008238 0.0001775 -0.0001430 -0.0006728 0.0020638 -0.0026465 0.0015500 -0.0085116
0.0001794 -0.0007118 0.0001567 0.0000400 -0.0058057 0.0076531 -0.0013498 0.0066403 -0.0131477 0.0146765 -0.0011079 -0.0003162 0.0009300 -0.0000040 -0.0001394 -0.0007702 0.0162822 -0.0368177 0.0079310 -0.0266287
0.0001332 -0.0008610 0.0001462 0.0000266 -0.0016478 0.0025664 -0.0066942 0.0087280 0.0022760 0.0053617 -0.0005558 -0.0007425 0.0008987 0.0002537 -0.0001433 -0.0006351 0.0096941 -0.0227309 -0.0063130 -0.0010664
0.0000797 -0.0009321 0.0001410 0.0001343 -0.0012094 -0.0065350 -0.0031675 0.0033635 0.0026110 0.0028029 0.0000796 -0.0005483 0.0005223 0.0009952 -0.0001319 -0.0004466 0.0047160 -0.0057932 0.0026599 -0.0046650
0.0000530 -0.0009041 0.0001385 0.0002538 -0.0001578 -0.0087853 0.0052338 -0.0090420 0.0015673 -0.0081734 0.0008986 -0.0008750 0.0003290 0.0013992 -0.0001149 -0.0002575 0.0021342 -0.0098496 0.0065462 -0.0134906
0.0000425 -0.0008054 0.0001505 0.0004197 0.0069479 0.0021986 0.0020041 -0.0082165 -0.0038509 -0.0072605 0.0015699 -0.0013486 0.0005382 0.0014030 -0.0000984 -0.0001149 -0.0001223 -0.0118640 -0.0021776 0.0012633
0.0000801 -0.0006218 0.0001615 0.0005143 0.0047631 0.0083741 -0.0090119 0.0071405 -0.0164209 0.0147186 0.0013198 -0.0008870 0.0008250 0.0013395 -0.0000447 -0.0001040 -0.0054905 0.0166253 0.0008476 -0.0023513
0.0001952 -0.0003387 0.0001695 0.0004381 0.0026661 -0.0026166 0.0062899 -0.0135739 -0.0013983 0.0039819 0.0008567 -0.0011081 0.0010930 0.0008053 -0.0000418 -0.0003311 -0.0086916 0.0256838 0.0000542 -0.0075867
0.0002582 -0.0002343 0.0001980 0.0003816 0.0017183 -0.0050485 0.0133032 -0.0082375 0.0024222 -0.0078720 0.0005492 -0.0012672 0.0013182 0.0003931 -0.0000895 -0.0004923 -0.0059406 0.0112947 -0.0091149 0.0104554
0.0002731 -0.0002109 0.0002122 0.0003555 -0.0030996 0.0031803 0.0116970 -0.0036106 -0.0091080 0.0101442 0.0000805 -0.0002705 0.0012592 0.0006785 -0.0000870 -0.0004890 0.0035575 -0.0139894 -0.0071633 0.0173379
0.0003157 -0.0000462 0.0002078 0.0003163 0.0021461 0.0116307 0.0109697 -0.0119659 0.0009411 0.0007850 0.0003716 -0.0000668 0.0010345 0.0011065 -0.0000798 -0.0004414 -0.0005087 -0.0075552 -0.0064939 0.0155210
0.0003435 0.0001084 0.0001987 0.0002964 0.0040213 0.0105473 -0.0056527 0.0084474 0.0029903 0.0177962 0.0007583 -0.0001741 0.0010461 0.0011978 -0.0000725 -0.0003391 0.0007767 0.0044089 -0.0024821 0.0037011
0.0003595 0.0002444 0.0001838 0.0002730 -0.0019511 0.0110738 -0.0130977 0.0122417 0.0034511 0.0149248 0.0010100 -0.0001365 0.0009282 0.0013353 -0.0000687 -0.0003213 0.0072202 -0.0084019 -0.0007414 0.0005974
0.0003757 0.0003096 0.0001842 0.0002357 -0.0043013 0.0124827 0.0055859 0.0053352 -0.0000156 -0.0007570 0.0012710 -0.0005584 0.0009298 0.0013252 -0.0000636 -0.0004739 -0.0012114 -0.0012422 -0.0057179 0.0092204
0.0003882 0.0002648 0.0001912 0.0001056 -0.0050096 0.0095339 0.0056860 0.0083068 -0.0179947 0.0232369 0.0003215 -0.0001650 0.0011676 0.0009129 -0.0000602 -0.0006993 -0.0005381 -0.0026044 -0.0021722 0.0081970
0.0003807 0.0001737 0.0001857 -0.0000074 -0.0075122 0.0084939 -0.0037283 0.0114092 -0.0090694 0.0048848 -0.0002567 -0.0000054 0.0012749 0.0006765 -0.0000650 -0.0007684 0.0102678 -0.0322448 0.0032600 -0.0076539
0.0003795 0.0001574 0.0001797 -0.0000331 -0.0014334 -0.0017632 -0.0070656 0.0087308 0.0151393 -0.0242956 -0.0001400 -0.0002377 0.0012237 0.0007263 -0.0000489 -0.0007359 0.0022912 -0.0068338 0.0023456 -0.0160250
0.0003839 0.0002132 0.0001789 -0.0000195 -0.0063136 0.0082911 -0.0010453 -0.0064264 0.0080023 0.0021671 0.0000058 0.0000896 0.0008090 0.0012037 -0.0000421 -0.0006633 0.0080109 -0.0126919 0.0092275 -0.0190169
0.0003730 0.0002676 0.0001730 0.0000175 -0.0039092 0.0055575 0.0034498 -0.0097466 0.0018680 0.0068701 0.0007626 -0.0003113 0.0005257 0.0014187 -0.0000584 -0.0005694 0.0124840 -0.0317960 0.0140798 -0.0285581
0.0003540 0.0003232 0.0001704 0.0000886 0.0044036 -0.0006830 0.0064395 -0.0184764 -0.0071799 0.0065574 0.0016614 -0.0010723 0.0006352 0.0012601 -0.0000634 -0.0004992 0.0009709 -0.0014344 0.0036321 -0.0018743
0.0003312 0.0003213 0.0001798 0.0001856 -0.0001551 0.0052803 -0.0135250 0.0090481 -0.0170417 0.0169307 0.0015611 -0.0011876 0.0007797 0.0010737 -0.0000567 -0.0005519 -0.0039979 0.0238822 0.0081495 -0.0086102
0.0003174 0.0002440 0.0001974 0.0001929 0.0044610 -0.0103051 -0.0104764 0.0041180 -0.0042428 0.0014227 0.0011834 -0.0013918 0.0009677 0.0006629 -0.0000291 -0.0006816 -0.0021736 0.0155426 0.0212004 -0.0532948
0.0003161 0.0002104 0.0002015 0.0001923 0.0093496 -0.0235978 0.0076467 -0.0046139 -0.0007350 -0.0041068 0.0007545 -0.0014218 0.0012771 0.0002403 0.0000093 -0.0007077 0.0038718 -0.0120862 0.0012504 -0.0085056
0.0003292 0.0002875 0.0001967 0.0002663 0.0035519 -0.0208041 0.0066756 -0.0007223 -0.0063469 0.0029516 -0.0003609 -0.0002976 0.0012634 0.0003436 0.0000251 -0.0006369 -0.0137548 0.0239949 -0.0054175 0.0213576
0.0003440 0.0004049 0.0001959 0.0003536 0.0046337 -0.0035695 0.0034384 -0.0090754 -0.0024148 -0.0011176 -0.0002105 -0.0002633 0.0010392 0.0006825 0.0000272 -0.0005371 -0.0170607 0.0267905 -0.0062450 0.0208089
0.0003493 0.0005104 0.0001918 0.0004450 0.0044237 0.0006036 -0.0114621 0.0157549 0.0007551 0.0135520 0.0003904 -0.0004235 0.0008907 0.0008782 0.0000509 -0.0004719 0.0021939 0.0050115 -0.0074639 0.0115818
0.0003501 0.0006210 0.0001852 0.0005372 0.0048388 -0.0071885 -0.0149442 0.0134967 0.0014360 0.0127695 0.0007994 -0.0002147 0.0006682 0.0011694 0.0000662 -0.0004727 0.0071501 -0.0089961 -0.0108295 0.0123414
0.0003526 0.0006617 0.0001858 0.0005685 0.0056310 -0.0156299 0.0040500 -0.0031586 0.0041547 -0.0113086 0.0010715 -0.0006295 0.0006744 0.0010565 0.0000725 -0.0005996 0.0047725 -0.0251017 -0.0095593 0.0088292
0.0003585 0.0006050 0.0001852 0.0005337 -0.0041997 0.0018126 0.0065794 -0.0054531 -0.0053036 0.0021937 0.0005860 -0.0005168 0.0008447 0.0006617 0.0000847 -0.0007443 -0.0082599 0.0064613 -0.0004202 0.0092175
0.0003580 0.0005744 0.0001839 0.0005426 -0.0063990 0.0091054 0.0027447 -0.0071858 -0.0017649 -0.0023620 0.0000632 -0.0002127 0.0010447 0.0004828 0.0000804 -0.0007412 -0.0089558 0.0128688 0.0063345 -0.0071617
0.0003495 0.0005964 0.0001753 0.0005893 -0.0046596 0.0069559 -0.0038056 0.0041803 0.0115105 -0.0193004 0.0000655 -0.0001559 0.0011264 0.0005397 0.0000921 -0.0006923 0.0031943 -0.0031187 0.0088839 -0.0263233
0.0003406 0.0006506 0.0001731 0.0006497 -0.0083955 0.0171720 -0.0035138 0.0023564 0.0063792 -0.0063882 0.0000444 0.0002601 0.0008386 0.0010066 0.0001165 -0.0006331 0.0123260 -0.0181245 -0.0008101 -0.0058565
0.0003319 0.0007291 0.0001759 0.0007326 -0.0080591 0.0037282 -0.0010878 -0.0016220 0.0051368 -0.0138332 0.0004064 0.0000606 0.0005646 0.0012995 0.0001220 -0.0005355 0.0128808 -0.0311670 0.0011148 -0.0090216
0.0003352 0.0007796 0.0001701 0.0007768 0.0031143 -0.0098088 -0.0038370 -0.0001783 0.0056213 -0.0221207 0.0012195 -0.0008955 0.0006186 0.0010956 0.0001115 -0.0005975 0.0041210 -0.0188703 0.0089436 -0.0194787
0.0003320 0.0007020 0.0001670 0.0007250 0.0019658 -0.0026563 -0.0084880 0.0117627 -0.0054180 0.0040745 0.0014907 -0.0012985 0.0006782 0.0008554 0.0001157 -0.0008415 0.0025096 0.0129395 0.0102154 -0.0248749
0.0003001 0.0005340 0.0001878 0.0007007 0.0054498 -0.0116851 -0.0028920 0.0043220 -0.0054713 -0.0012967 0.0012289 -0.0014083 0.0008478 0.0004363 0.0002330 -0.0006308 0.0022869 0.0111515 0.0105991 -0.0345325
0.0003011 0.0005087 0.0001931 0.0006770 0.0035392 -0.0130630 0.0067085 -0.0054440 0.0024973 -0.0326862 0.0009735 -0.0015044 0.0010685 -0.0000573 0.0003303 -0.0002346 -0.0055860 -0.0000212 0.0019952 -0.0112761
0.0003054 0.0005461 0.0001756 0.0006581 -0.0021924 -0.0062362 0.0005467 0.0062381 -0.0143130 0.0019336 0.0000310 -0.0005079 0.0009860 -0.0001142 0.0003005 -0.0000823 -0.0272856 0.0338138 0.0022144 0.0085911
0.0002576 0.0004994 0.0001781 0.0007312 -0.0000959 0.0058541 0.0012759 -0.0032784 -0.0034028 -0.0010812 -0.0004509 -0.0000919 0.0008717 -0.0000728 0.0002639 0.0000711 -0.0220710 0.0267328 0.0043283 0.0055022
0.0002083 0.0004645 0.0001512 0.0007650 0.0055665 -0.0051067 0.0014198 -0.0084871 0.0076091 -0.0024885 -0.0002503 -0.0004332 0.0006330 0.0000567 0.0001783 -0.0000032 0.0048243 -0.0008660 -0.0014410 -0.0015252
0.0001677 0.0003385 0.0001427 0.0007481 0.0123823 -0.0236517 -0.0096585 0.0021335 0.0043331 0.0054394 0.0000953 -0.0008094 0.0002118 0.0003580 0.0000360 -0.0003906 0.0030391 0.0051692 -0.0126164 0.0165218
0.0001252 0.0000851 0.0001579 0.0006779 0.0078253 -0.0157653 0.0054174 -0.0057102 0.0019355 -0.0013500 0.0007711 -0.0015329 0.0002367 0.0003761 -0.0000384 -0.0006498 -0.0041730 0.0013868 -0.0086960 0.0116715
0.0001237 -0.0000274 0.0001471 0.0005804 -0.0023754 0.0017088 0.0094445 -0.0130149 -0.0134790 0.0178927 0.0005679 -0.0010724 0.0004768 0.0004619 -0.0000508 -0.0006588 -0.0076696 0.0000133 0.0010253 0.0012390
0.0001389 0.0000094 0.0001504 0.0006164 -0.0033257 0.0037952 0.0019041 -0.0067364 -0.0207818 0.0218149 0.0001641 -0.0004201 0.0007129 0.0006662 -0.0000755 -0.0005771 -0.0103764 0.0021804 0.0007433 0.0080566
0.0001154 0.0000303 0.0001561 0.0007401 0.0006301 -0.0009784 -0.0010911 0.0014867 -0.0002951 0.0072057 0.0002265 -0.0002466 0.0009756 0.0008175 -0.0001006 -0.0004732 0.0017513 -0.0167106 0.0011509 -0.0021432
0.0001044 0.0000994 0.0001710 0.0008762 -0.0030261 0.0113002 -0.0039643 0.0103883 0.0022720 0.0126832 0.0000980 0.0003067 0.0008258 0.0011776 -0.0001097 -0.0003911 0.0133344 -0.0368531 0.0009578 -0.0162721
0.0001269 0.0002205 0.0001929 0.0009822 -0.0009105 0.0118307 -0.0116967 0.0267704 -0.0020555 0.0163077 0.0000539 0.0002215 0.0006325 0.0013859 -0.0001265 -0.0003386 0.0106436 -0.0320551 -0.0042348 -0.0000395
0.0001471 0.0001920 0.0001966 0.0009413 0.0020368 0.0116290 -0.0069126 0.0154922 -0.0041442 0.0106012 0.0006416 -0.0008465 0.0006162 0.0012294 -0.0001394 -0.0004496 0.0042469 -0.0105144 0.0017672 -0.0003606
0.0001571 0.0000496 0.0002009 0.0008389 -0.0006929 0.0137402 0.0022741 -0.0043050 -0.0075593 0.0126576 0.0010338 -0.0012235 0.0005718 0.0011803 -0.0001351 -0.0005341 0.0062465 0.0078337 0.0098230 -0.0179798
0.0002093 0.0001114 0.0002166 0.0007718 -0.0054664 0.0117732 0.0009618 -0.0058241 -0.0129936 0.0162534 0.0011386 -0.0013236 0.0007212 0.0010022 -0.0001414 -0.0005125 0.0027744 0.0084883 0.0054280 -0.0168734
0.0003352 0.0004424 0.0002334 0.0006848 -0.0016493 -0.0064920 0.0096503 -0.0135233 -0.0112236 0.0065264 0.0008598 -0.0010259 0.0010794 0.0006043 -0.0001494 -0.0004710 -0.0068716 -0.0017623 0.0007217 -0.0022490
0.0004748 0.0008534 0.0002374 0.0005550 0.0021636 -0.0167834 0.0001258 0.0028328 -0.0103036 0.0173670 -0.0003396 0.0003922 0.0011991 0.0006033 -0.0001355 -0.0004477 -0.0121071 0.0119788 -0.0013613 0.0157382
0.0005482 0.0011208 0.0002298 0.0004810 0.0000712 0.0007448 -0.0047899 0.0047997 -0.0055226 0.0128240 -0.0006058 0.0006374 0.0010086 0.0008650 -0.0001510 -0.0003993 -0.0056961 0.0036139 -0.0052061 0.0184722
0.0005619 0.0012019 0.0002293 0.0004392 0.0023100 -0.0012077 0.0012126 -0.0054461 0.0039034 0.0032945 -0.0002681 0.0001620 0.0008289 0.0008671 -0.0001658 -0.0004432 0.0116971 -0.0190478 -0.0129814 0.0150621
0.0005662 0.0011410 0.0002275 0.0003351 0.0023630 -0.0051852 -0.0011648 -0.0100527 -0.0026956 0.0166016 0.0000882 -0.0003364 0.0005467 0.0007952 -0.0001410 -0.0006300 0.0084578 -0.0072439 -0.0265856 0.0262304
0.0005664 0.0010179 0.0002257 0.0002106 0.0038452 -0.0136315 0.0064726 -0.0147914 -0.0054456 0.0064997 0.0007711 -0.0011457 0.0004899 0.0006469 -0.0001331 -0.0006878 0.0072638 -0.0183025 -0.0192272 0.0109374
0.0005603 0.0009573 0.0002237 0.0001366 0.0014923 -0.0096105 0.0028748 -0.0044046 -0.0043477 -0.0055415 0.0006472 -0.0007978 0.0006028 0.0005697 -0.0001439 -0.0006130 0.0112024 -0.0441978 0.0092117 -0.0202991
0.0005503 0.0009611 0.0002110 0.0001326 -0.0045860 0.0095109 -0.0024883 0.0046125 -0.0095984 0.0082354 0.0001800 -0.0000986 0.0007830 0.0005700 -0.0001455 -0.0005247 -0.0050865 -0.0055381 0.0131317 -0.0337868
0.0005362 0.0010052 0.0002023 0.0001676 -0.0040270 0.0132053 0.0035789 -0.0105662 0.0097874 -0.0139386 0.0000611 -0.0000123 0.0009568 0.0005870 -0.0001418 -0.0004538 0.0004259 -0.0128603 -0.0032746 -0.0239690
0.0005212 0.0010670 0.0002073 0.0002095 -0.0023416 0.0050818 0.0031245 -0.0122050 0.0106250 -0.0124220 -0.0002443 0.0003070 0.0006683 0.0008873 -0.0001542 -0.0004558 0.0054042 -0.0183439 -0.0088403 -0.0093156
0.0005216 0.0010280 0.0002065 0.0001743 -0.0011674 -0.0050658 -0.0079650 0.0113125 -0.0004306 -0.0014770 -0.0002183 -0.0002319 0.0004672 0.0008313 -0.0001645 -0.0005946 -0.0018051 -0.0015814 -0.0149113 0.0041360
0.0005149 0.0008514 0.0002036 0.0000486 0.0010491 0.0003552 -0.0103746 0.0164447 0.0099982 -0.0241468 0.0006920 -0.0016235 0.0005288 0.0005495 -0.0001886 -0.0007478 0.0067653 -0.0194889 -0.0044941 -0.0022566
0.0004332 0.0006225 0.0001915 0.0000362 -0.0056004 0.0066218 -0.0108316 0.0160808 0.0079106 -0.0187043 0.0010085 -0.0016395 0.0004971 0.0006541 -0.0002106 -0.0007526 0.0051739 -0.0003852 0.0059599 -0.0231230
0.0003473 0.0004899 0.0001817 0.0001597 -0.0079354 0.0038958 -0.0049476 -0.0015966 -0.0075319 -0.0069907 0.0009683 -0.0013983 0.0005742 0.0006902 -0.0002136 -0.0006626 0.0002132 0.0059759 -0.0041394 -0.0001647
0.0003298 0.0005272 0.0001977 0.0002594 0.0004717 -0.0071357 0.0117264 -0.0224482 -0.0138068 0.0018902 0.0005456 -0.0007803 0.0008910 0.0005026 -0.0002298 -0.0005661 -0.0095801 0.0031265 -0.0065936 0.0108091
0.0003315 0.0006200 0.0002101 0.0003378 -0.0009271 -0.0060174 0.0057896 -0.0070774 -0.0206094 0.0260000 -0.0004115 0.0004395 0.0009275 0.0007171 -0.0002502 -0.0004548 -0.0194093 0.0169406 -0.0057763 0.0174383
0.0003424 0.0006834 0.0002258 0.0003881 -0.0017739 0.0052705 0.0029251 -0.0077773 -0.0053763 0.0070061 -0.0002643 -0.0000104 0.0007667 0.0007982 -0.0002496 -0.0005553 -0.0090113 0.0004553 -0.0048806 0.0152417
0.0003805 0.0006917 0.0002545 0.0003147 -0.0039503 0.0144529 -0.0048608 0.0097050 0.0089401 -0.0045314 0.0001898 -0.0007877 0.0006524 0.0006126 -0.0001744 -0.0006565 0.0042035 -0.0105279 -0.0017071 0.0034056
0.0004623 0.0007330 0.0002821 0.0001641 -0.0063714 0.0192762 -0.0123560 0.0179648 0.0055046 0.0045131 0.0004533 -0.0009792 0.0004301 0.0007487 -0.0001086 -0.0005615 0.0054654 -0.0035376 -0.0067769 0.0089711
0.0005051 0.0007736 0.0002946 0.0001121 -0.0007304 0.0067999 0.0009760 0.0030752 0.0045807 -0.0040145 0.0008844 -0.0011183 0.0005331 0.0008514 -0.0000772 -0.0004091 0.0035535 -0.0070543 -0.0044054 0.0014907
0.0004601 0.0007086 0.0002860 0.0001898 0.0025781 -0.0026229 0.0035437 0.0007042 -0.0053630 0.0108654 0.0002690 -0.0000877 0.0007666 0.0010542 0.0000074 -0.0000638 0.0025635 -0.0131575 0.0082940 -0.0086628
0.0004206 0.0006908 0.0002837 0.0003489 -0.0090465 0.0152107 -0.0033682 0.0137848 -0.0081254 0.0075605 -0.0002664 0.0007022 0.0009172 0.0012121 0.0000382 0.0001456 0.0067101 -0.0269950 0.0114003 -0.0132092
0.0004506 0.0008833 0.0003321 0.0005600 -0.0086709 0.0167919 -0.0023585 0.0091513 0.0053430 0.0005312 -0.0002802 0.0011425 0.0010020 0.0013554 -0.0000168 0.0001570 0.0142167 -0.0307849 0.0002852 0.0009530
0.0005171 0.0011073 0.0003664 0.0006405 -0.0035432 0.0130510 -0.0061680 0.0077302 0.0041862 0.0080663 -0.0003821 0.0012403 0.0006664 0.0015928 -0.0000624 -0.0000720 0.0239936 -0.0441513 0.0044466 -0.0041983
0.0005477 0.0011096 0.0003423 0.0004544 -0.0051004 0.0101455 -0.0110904 0.0147178 0.0029924 -0.0075388 0.0001739 -0.0000564 0.0003679 0.0014162 -0.0000932 -0.0004045 0.0203930 -0.0394061 0.0162835 -0.0348806
0.0005031 0.0009231 0.0003060 0.0002241 -0.0010219 0.0094081 0.0004745 -0.0186713 0.0001111 -0.0112420 0.0011708 -0.0012930 0.0004775 0.0010379 -0.0001531 -0.0005323 0.0038540 -0.0040534 0.0077460 -0.0206051
0.0004444 0.0007667 0.0002780 0.0001016 -0.0009398 0.0091343 0.0005719 -0.0113293 -0.0163289 0.0210977 0.0012165 -0.0008140 0.0005747 0.0010713 -0.0002347 -0.0005923 -0.0026675 0.0153198 0.0005416 -0.0015862
0.0004189 0.0007258 0.0002458 0.0000150 0.0057382 -0.0128864 0.0026154 -0.0045393 -0.0093471 0.0082263 0.0009721 -0.0005857 0.0008082 0.0008327 -0.0002824 -0.0005576 -0.0032872 0.0112853 -0.0023752 -0.0025579
0.0003963 0.0007418 0.0002246 0.0000266 0.0062821 -0.0126572 0.0071004 -0.0019337 0.0000490 -0.0046301 0.0004988 -0.0004714 0.0010226 0.0005144 -0.0002967 -0.0004859 -0.0060426 -0.0040830 0.0038415 -0.0182083
0.0003797 0.0007948 0.0002375 0.0001218 -0.0049601 0.0037039 0.0014127 0.0089098 -0.0030883 0.0085727 -0.0006341 0.0006816 0.0007879 0.0007852 -0.0003017 -0.0004678 -0.0175312 0.0133981 -0.0012839 0.0013491
0.0004165 0.0008748 0.0002610 0.0000922 -0.0009803 0.0056514 -0.0023526 0.0061198 0.0028024 -0.0001323 -0.0005664 0.0000324 0.0005568 0.0007345 -0.0003129 -0.0005779 -0.0127118 0.0023203 -0.0061883 0.0107747
0.0004775 0.0009000 0.0002788 -0.0000484 0.0044824 -0.0003831 -0.0063237 0.0074848 0.0018513 0.0143522 -0.0000811 -0.0009599 0.0005240 0.0003806 -0.0003204 -0.0006806 0.0122691 -0.0413911 -0.0088612 0.0007177
0.0004780 0.0008398 0.0002710 -0.0001140 0.0034223 -0.0064470 -0.0031797 -0.0045418 0.0009977 0.0123802 0.0005737 -0.0012541 0.0003591 0.0004482 -0.0003173 -0.0006808 0.0036330 -0.0122660 -0.0135145 0.0052886
0.0004223 0.0007731 0.0002432 -0.0000605 0.0052409 -0.0101513 0.0084635 -0.0097784 -0.0044447 0.0092347 0.0011518 -0.0013843 0.0004406 0.0005116 -0.0003473 -0.0006203 -0.0049175 -0.0086707 -0.0156681 0.0146681
0.0003670 0.0007682 0.0002271 0.0000343 -0.0002853 0.0011297 0.0055955 -0.0008394 -0.0143764 0.0213038 0.0001151 -0.0001915 0.0006117 0.0005135 -0.0003825 -0.0005326 -0.0115886 -0.0208064 -0.0017045 -0.0016275
0.0003438 0.0008385 0.0002277 0.0001246 -0.0100945 0.0143348 0.0046538 -0.0110367 -0.0060695 0.0017576 -0.0009517 0.0007212 0.0006641 0.0006526 -0.0003960 -0.0004053 -0.0131982 -0.0091525 0.0024822 -0.0111408
0.0003702 0.0009807 0.0002309 0.0001887 -0.0043960 0.0068960 -0.0000522 -0.0072620 0.0101692 -0.0113560 -0.0007931 0.0004854 0.0006929 0.0006736 -0.0003836 -0.0003854 -0.0058906 -0.0055272 -0.0174821 0.0136046
0.0004364 0.0010512 0.0002372 0.0001257 -0.0036531 0.0044261 -0.0108748 0.0084763 0.0069560 -0.0007347 -0.0006034 0.0001901 0.0002934 0.0008480 -0.0003651 -0.0005479 0.0030224 -0.0143545 -0.0090186 0.0061977
0.0004845 0.0010126 0.0002459 -0.0000067 0.0013251 -0.0059300 -0.0035265 -0.0020917 0.0019044 0.0006178 0.0000677 -0.0007216 0.0000054 0.0008136 -0.0003677 -0.0006216 0.0048157 -0.0175543 0.0005752 -0.0125369
0.0005029 0.0010144 0.0002477 -0.0000617 0.0105441 -0.0098398 0.0009632 -0.0096570 -0.0015583 0.0038360 0.0011248 -0.0017462 0.0001479 0.0005983 -0.0003708 -0.0005784 -0.0052303 -0.0029012 -0.0039236 -0.0030874
0.0005079 0.0010628 0.0002440 -0.0000547 0.0036139 0.0054752 -0.0032632 0.0031890 -0.0128097 0.0140900 0.0009790 -0.0012779 0.0003660 0.0006034 -0.0003854 -0.0004727 -0.0046667 0.0135691 0.0010014 -0.0091795
0.0005095 0.0011344 0.0002421 -0.0000230 0.0031361 -0.0004124 0.0041877 -0.0126440 -0.0089952 0.0058471 0.0006031 -0.0006788 0.0006201 0.0005945 -0.0004030 -0.0003560 -0.0065080 0.0187741 0.0004734 -0.0127073
0.0005114 0.0012245 0.0002412 0.0000293 0.0054828 -0.0172282 0.0044988 0.0041743 -0.0002876 -0.0064032 0.0002172 -0.0002736 0.0008499 0.0005360 -0.0004047 -0.0002975 -0.0113906 0.0048186 -0.0063515 -0.0004520
0.0005286 0.0012876 0.0002439 0.0000128 -0.0075207 -0.0024990 0.0027936 0.0054679 -0.0003802 0.0002516 -0.0007954 0.0003696 0.0008036 0.0005436 -0.0003960 -0.0003661 -0.0070305 -0.0047092 -0.0091298 0.0145015
0.0005500 0.0012564 0.0002515 -0.0001023 0.0045478 -0.0026056 0.0002909 -0.0096796 -0.0028466 0.0108470 -0.0008826 0.0000609 0.0005446 0.0005761 -0.0003945 -0.0004754 -0.0071731 0.0034711 -0.0117526 0.0204196
0.0005606 0.0012102 0.0002517 -0.0001872 0.0065039 -0.0034809 -0.0114109 0.0087993 0.0009929 0.0167251 -0.0002172 -0.0005560 0.0004120 0.0005289 -0.0004061 -0.0004658 0.0044232 -0.0159117 -0.0094577 0.0048698
0.0005706 0.0012387 0.0002467 -0.0002074 0.0002219 0.0020855 0.0010952 -0.0177885 0.0013260 0.0129480 0.0002715 -0.0008841 0.0003046 0.0006759 -0.0004144 -0.0003952 0.0111604 -0.0333428 -0.0039712 -0.0009764
0.0005699 0.0012907 0.0002397 -0.0001850 -0.0022950 0.0025161 0.0128431 -0.0180072 -0.0050588 0.0098386 0.0006893 -0.0010403 0.0004018 0.0008032 -0.0004064 -0.0003212 -0.0135810 0.0072494 -0.0087674 0.0072044
0.0005595 0.0013406 0.0002297 -0.0001308 -0.0043425 0.0012964 0.0063520 0.0044209 -0.0169953 0.0206500 -0.0002478 0.0002363 0.0005732 0.0008144 -0.0004059 -0.0002524 -0.0133580 0.0140451 0.0017569 -0.0132515
0.0005377 0.0013746 0.0002201 -0.0000684 0.0002705 -0.0022775 0.0000582 0.0094466 -0.0134287 0.0099980 -0.0013501 0.0011069 0.0005600 0.0007456 -0.0004085 -0.0002558 -0.0029457 -0.0060929 0.0122076 -0.0364481
0.0005335 0.0013184 0.0002297 -0.0001183 0.0036372 -0.0099764 -0.0009533 -0.0016043 0.0090717 -0.0081791 -0.0012061 0.0004103 0.0005551 0.0006172 -0.0003976 -0.0003867 0.0011676 -0.0156855 -0.0083514 -0.0063607
0.0005473 0.0011876 0.0002347 -0.0002579 -0.0044620 0.0029254 -0.0063387 0.0025332 0.0064121 0.0011975 -0.0008009 -0.0001301 0.0002619 0.0008195 -0.0003911 -0.0004810 0.0073739 -0.0223899 -0.0052724 -0.0015425
0.0005469 0.0011149 0.0002195 -0.0003226 -0.0020954 -0.0012255 -0.0028264 0.0024153 0.0032454 -0.0095398 0.0000659 -0.0009318 0.0000082 0.0008974 -0.0003876 -0.0004598 0.0045662 -0.0259378 0.0076598 -0.0322525
0.0005363 0.0011151 0.0002133 -0.0003251 0.0059986 0.0011293 0.0040282 -0.0189629 -0.0068507 -0.0025432 0.0012566 -0.0018934 0.0001681 0.0007300 -0.0003933 -0.0004088 -0.0037024 -0.0079159 0.0007939 -0.0140729
0.0005135 0.0011194 0.0002063 -0.0002818 0.0050187 0.0013781 -0.0110204 0.0031010 -0.0293250 0.0289326 0.0010551 -0.0014732 0.0003349 0.0008000 -0.0004108 -0.0003529 -0.0054829 0.0117440 -0.0030047 -0.0024122
0.0004767 0.0011096 0.0001953 -0.0001952 0.0096774 -0.0235254 -0.0045612 -0.0006285 -0.0081495 0.0093911 0.0002683 -0.0005704 0.0005087 0.0008525 -0.0004236 -0.0002999 -0.0083227 0.0207236 -0.0089938 0.0025849
0.0004307 0.0010317 0.0001825 -0.0001141 -0.0006333 -0.0028598 0.0073798 -0.0021293 0.0033926 -0.0061133 -0.0001467 -0.0005190 0.0008096 0.0004650 -0.0004003 -0.0003655 -0.0058650 0.0088155 -0.0126247 0.0154054
0.0004043 0.0008901 0.0001786 -0.0001229 -0.0045760 0.0001438 0.0065126 -0.0025908 -0.0015448 -0.0008598 -0.0007814 -0.0004537 0.0007520 0.0001363 -0.0003822 -0.0005186 0.0001834 -0.0029947 -0.0110373 0.0185310
0.0003784 0.0007529 0.0001834 -0.0001585 0.0064689 -0.0065429 0.0064315 -0.0241281 0.0038636 -0.0065221 -0.0005471 -0.0008416 0.0004313 0.0001368 -0.0003588 -0.0005641 -0.0078515 0.0166363 -0.0135654 0.0226245
0.0003564 0.0007051 0.0001805 -0.0001413 0.0033613 0.0029901 -0.0153360 0.0073976 0.0028377 0.0084634 0.0000928 -0.0013066 0.0002811 0.0001306 -0.0003277 -0.0004851 -0.0047229 0.0089710 -0.0092958 0.0070586
0.0003819 0.0007956 0.0001842 -0.0001214 0.0036227 -0.0049383 -0.0213185 0.0083262 0.0000905 0.0071702 0.0004820 -0.0013187 0.0001833 0.0002859 -0.0003307 -0.0003888 0.0097167 -0.0299746 0.0029520 -0.0175067
0.0004096 0.0009039 0.0001850 -0.0000901 0.0055785 -0.0173345 0.0044702 -0.0030925 -0.0038922 0.0008345 0.0005555 -0.0010338 0.0003345 0.0004051 -0.0003323 -0.0003239 -0.0036417 -0.0190549 -0.0095447 0.0126713
0.0004185 0.0009832 0.0001763 -0.0000405 -0.0032404 -0.0053302 0.0021474 0.0086125 -0.0173190 0.0194664 -0.0004313 0.0002277 0.0005747 0.0004051 -0.0003263 -0.0002736 -0.0044193 -0.0124675 -0.0037862 0.0051005
0.0004309 0.0010065 0.0001783 -0.0000462 -0.0038757 -0.0049677 -0.0043721 0.0098239 -0.0050712 0.0005259 -0.0012238 0.0004356 0.0006681 0.0002458 -0.0003109 -0.0003578 0.0112455 -0.0367301 0.0082778 -0.0323469
0.0004403 0.0009140 0.0001807 -0.0001391 -0.0069384 0.0016191 -0.0055718 0.0047775 0.0098876 -0.0063874 -0.0009096 -0.0005090 0.0006366 0.0000101 -0.0002848 -0.0005187 0.0099643 -0.0250569 -0.0038134 -0.0117809
0.0004395 0.0008118 0.0001858 -0.0002284 -0.0094109 0.0103136 -0.0110210 0.0114278 0.0038595 0.0067100 -0.0004125 -0.0008298 0.0003798 0.0001676 -0.0002796 -0.0005594 0.0041618 -0.0069579 0.0004072 -0.0128569
0.0004388 0.0007994 0.0001918 -0.0002373 -0.0020875 -0.0016196 -0.0095254 0.0115573 0.0006155 -0.0049873 0.0005009 -0.0015035 0.0001633 0.0003501 -0.0003006 -0.0004839 -0.0054688 0.0004723 0.0104606 -0.0388910
0.0004394 0.0008514 0.0001929 -0.0001828 0.0078881 -0.0046674 -0.0016853 -0.0052419 0.0051392 -0.0233660 0.0014336 -0.0022119 0.0002540 0.0002988 -0.0003047 -0.0003881 -0.0046870 -0.0033651 0.0083086 -0.0325306
0.0004403 0.0009358 0.0002022 -0.0001074 0.0035146 0.0060481 -0.0077111 0.0032090 -0.0128685 0.0123183 0.0012614 -0.0016705 0.0004746 0.0003517 -0.0003023 -0.0003294 0.0019318 0.0008699 0.0086318 -0.0247195
0.0004431 0.0010282 0.0002158 -0.0000292 0.0012198 -0.0043639 -0.0055308 0.0061844 -0.0025101 0.0026162 0.0005003 -0.0007791 0.0007493 0.0002447 -0.0003036 -0.0003056 -0.0052741 0.0108483 -0.0038153 0.0016137
0.0004500 0.0010529 0.0002262 -0.0000185 -0.0023784 -0.0078787 0.0072707 0.0017190 0.0122307 -0.0262438 -0.0000872 -0.0008127 0.0009955 -0.0001917 -0.0002957 -0.0003872 -0.0124935 0.0079661 -0.0150029 0.0146855
0.0004559 0.0009644 0.0002372 -0.0000991 -0.0082777 -0.0049917 0.0083913 -0.0046360 -0.0028720 0.0048044 -0.0008407 -0.0007148 0.0008436 -0.0003233 -0.0002648 -0.0005428 -0.0072349 0.0021011 -0.0093362 0.0137315
0.0004545 0.0008663 0.0002480 -0.0001627 0.0088526 -0.0107876 0.0028033 -0.0080193 -0.0003674 0.0022876 -0.0006561 -0.0009766 0.0005657 -0.0001722 -0.0002720 -0.0005677 -0.0035118 -0.0065143 -0.0123016 0.0205679
0.0004502 0.0008459 0.0002499 -0.0001531 0.0048638 0.0058653 -0.0132974 0.0181262 0.0084456 -0.0003870 0.0001900 -0.0016317 0.0004272 -0.0001158 -0.0003054 -0.0004863 0.0031983 -0.0107473 -0.0151494 0.0132295
0.0004500 0.0008902 0.0002497 -0.0000984 -0.0017197 0.0062906 -0.0142922 0.0184882 0.0054468 0.0046184 0.0008725 -0.0016955 0.0001925 0.0001306 -0.0003057 -0.0004214 -0.0003770 -0.0005033 -0.0109618 0.0031443
0.0004518 0.0009624 0.0002548 -0.0000259 -0.0014477 0.0007659 0.0097971 -0.0068379 -0.0047773 0.0048329 0.0009712 -0.0013136 0.0002838 0.0002360 -0.0003140 -0.0003430 -0.0190247 0.0165413 -0.0125845 0.0087923
0.0004534 0.0010353 0.0002572 0.0000566 0.0029146 -0.0064388 0.0084101 -0.0027564 -0.0237304 0.0263320 -0.0000914 -0.0001760 0.0004756 0.0002155 -0.0003261 -0.0002894 -0.0132311 0.0049564 -0.0010775 -0.0054699
0.0004603 0.0010416 0.0002626 0.0000766 -0.0001602 -0.0009882 -0.0032638 0.0070342 -0.0151026 0.0124103 -0.0008175 -0.0000252 0.0006584 -0.0000030 -0.0003150 -0.0004017 0.0045342 -0.0208627 0.0020340 -0.0204419
0.0004598 0.0009260 0.0002675 0.0000130 -0.0067576 0.0095459 -0.0050788 0.0068715 0.0126062 -0.0188172 -0.0006954 -0.0008213 0.0007873 -0.0003562 -0.0003058 -0.0005612 0.0020381 -0.0090831 -0.0063117 -0.0087877
0.0004528 0.0007948 0.0002710 -0.0000428 -0.0091373 0.0179744 -0.0096229 0.0137499 0.0055617 0.0044491 -0.0006340 -0.0008207 0.0003506 -0.0000616 -0.0003317 -0.0005637 0.0037784 -0.0116553 0.0079951 -0.0221548
0.0004524 0.0007622 0.0002801 -0.0000422 -0.0055412 0.0129720 -0.0147233 0.0156065 0.0021783 -0.0031500 0.0000756 -0.0014776 -0.0000018 0.0001189 -0.0003320 -0.0004976 0.0075551 -0.0328333 0.0094028 -0.0310696
0.0004572 0.0008160 0.0002849 0.0000234 0.0060696 -0.0038053 -0.0139290 0.0134907 -0.0025005 -0.0110840 0.0010435 -0.0023001 0.0000503 0.0000649 -0.0003157 -0.0004624 -0.0014241 -0.0066918 -0.0007333 -0.0157975
0.0004600 0.0008903 0.0002814 0.0001043 -0.0002067 0.0086961 -0.0098996 0.0099588 -0.0188866 0.0225893 0.0009085 -0.0016835 0.0001383 0.0002118 -0.0003407 -0.0003810 0.0001899 0.0090425 0.0082940 -0.0308233
0.0004645 0.0009756 0.0002766 0.0001967 -0.0033459 0.0104783 0.0055952 -0.0147353 -0.0090283 0.0063774 0.0006244 -0.0012271 0.0003727 0.0000411 -0.0003629 -0.0002894 -0.0011593 0.0070092 0.0136729 -0.0555631
0.0004769 0.0010307 0.0002840 0.0002438 0.0030067 -0.0050092 0.0115956 -0.0134634 -0.0059519 0.0005623 0.0002276 -0.0012936 0.0006865 -0.0003810 -0.0003457 -0.0004035 -0.0098476 0.0067141 -0.0034528 -0.0084109
0.0004777 0.0009498 0.0002952 0.0001903 -0.0008876 -0.0033082 0.0036671 0.0014456 -0.0132649 0.0197068 -0.0010275 -0.0006024 0.0006448 -0.0005612 -0.0003319 -0.0006053 -0.0212352 0.0206064 -0.0035419 0.0135541
0.0004738 0.0008261 0.0003012 0.0001288 0.0018408 -0.0025432 -0.0030170 0.0020824 0.0017332 -0.0055400 -0.0010214 -0.0008360 0.0004055 -0.0005545 -0.0003336 -0.0006758 -0.0159581 0.0139358 0.0001379 0.0071464
0.0004796 0.0007882 0.0003030 0.0001083 0.0024647 -0.0041534 0.0002769 -0.0102745 0.0112322 -0.0095111 -0.0005234 -0.0012078 0.0002455 -0.0004509 -0.0003169 -0.0006725 0.0045477 -0.0093888 -0.0023541 -0.0048823
0.0004835 0.0008095 0.0003005 0.0001213 -0.0033528 0.0075450 -0.0032180 -0.0042124 0.0040251 0.0080506 -0.0004328 -0.0008006 -0.0000170 -0.0001518 -0.0003366 -0.0006046 0.0031936 -0.0056569 -0.0170327 0.0101105
0.0004808 0.0008529 0.0002948 0.0001634 -0.0033029 0.0064034 -0.0019653 0.0113083 -0.0004478 0.0056240 0.0002244 -0.0010247 -0.0000306 -0.0000117 -0.0003526 -0.0005315 -0.0025682 -0.0093466 -0.0198062 0.0050434
0.0004765 0.0009110 0.0002915 0.0002247 -0.0054789 0.0068909 -0.0015184 0.0082701 -0.0105038 0.0180082 0.0001386 -0.0006541 0.0000483 0.0001629 -0.0003342 -0.0005048 -0.0083068 -0.0081228 0.0037321 -0.0152082
0.0004755 0.0009178 0.0002933 0.0002407 -0.0052752 0.0061968 -0.0023138 0.0091663 -0.0126869 0.0174827 -0.0003391 -0.0004851 0.0001550 0.0000689 -0.0003330 -0.0006104 -0.0173740 0.0117021 0.0010695 -0.0004762
0.0004718 0.0007721 0.0002964 0.0001556 -0.0037645 0.0144648 0.0007015 0.0044800 0.0100050 -0.0101045 -0.0003209 -0.0014149 0.0004222 -0.0005146 -0.0003315 -0.0008060 -0.0084845 -0.0024436 -0.0025392 -0.0054354
0.0004562 0.0005765 0.0002963 0.0000539 0.0003406 0.0086729 0.0033099 -0.0179987 0.0079667 -0.0061735 -0.0009000 -0.0012530 0.0003130 -0.0006814 -0.0003160 -0.0009004 0.0101937 -0.0432080 0.0000375 -0.0133869
0.0004350 0.0004654 0.0002903 0.0000264 -0.0027082 0.0027955 0.0027310 -0.0157852 0.0016116 -0.0012633 -0.0011760 -0.0009293 0.0000471 -0.0005080 -0.0003104 -0.0008918 -0.0078833 -0.0037376 -0.0067046 -0.0043575
0.0004050 0.0004207 0.0002779 0.0000853 -0.0037999 0.0071338 0.0008907 0.0048626 0.0066113 -0.0109152 -0.0002494 -0.0016013 0.0001079 -0.0004841 -0.0003218 -0.0007831 -0.0060548 -0.0047370 -0.0026065 -0.0108671
0.0003538 0.0004056 0.0002753 0.0002430 -0.0049281 0.0111581 -0.0041981 0.0145108 0.0010144 -0.0046854 0.0004874 -0.0017844 -0.0000001 -0.0002353 -0.0003263 -0.0006269 -0.0000465 0.0010169 0.0048802 -0.0262048
0.0003467 0.0005056 0.0002911 0.0003819 -0.0022359 0.0136276 -0.0065313 0.0109017 -0.0067799 0.0048621 0.0006151 -0.0016077 -0.0000406 -0.0001031 -0.0003357 -0.0005150 -0.0016697 0.0025725 -0.0090785 0.0022979
0.0003790 0.0005998 0.0003031 0.0004094 0.0034015 -0.0005156 -0.0002169 0.0038213 -0.0103916 0.0138534 0.0005706 -0.0018342 0.0003337 -0.0005656 -0.0003264 -0.0006060 -0.0025056 -0.0138483 -0.0077001 0.0103567
0.0003616 0.0004487 0.0003088 0.0003436 0.0002422 -0.0063833 0.0014360 -0.0031424 -0.0148752 0.0197904 -0.0003580 -0.0014935 0.0005116 -0.0010315 -0.0003010 -0.0008418 -0.0114579 -0.0031471 -0.0005872 0.0121659
0.0003346 0.0002319 0.0003221 0.0002370 -0.0006881 -0.0071278 0.0011081 0.0004757 -0.0088122 0.0073291 -0.0008642 -0.0018209 0.0004233 -0.0013411 -0.0002982 -0.0009825 -0.0107664 -0.0038069 -0.0054985 0.0164220
0.0003266 0.0001234 0.0003296 0.0001870 -0.0069992 -0.0015689 0.0043674 -0.0093738 0.0026021 -0.0048080 -0.0012464 -0.0016339 0.0002944 -0.0014075 -0.0002946 -0.0009948 0.0061720 -0.0203911 -0.0124913 0.0032647
0.0003529 0.0001680 0.0003393 0.0001674 -0.0036762 0.0021780 0.0029010 -0.0152567 -0.0010507 0.0011310 -0.0013850 -0.0009605 -0.0000047 -0.0010163 -0.0003078 -0.0009658 0.0162209 -0.0382779 -0.0237362 0.0214021
0.0004032 0.0003208 0.0003675 0.0001674 0.0039949 -0.0080534 0.0017321 -0.0081150 0.0035800 -0.0044327 -0.0004232 -0.0017663 -0.0001297 -0.0008545 -0.0003090 -0.0009229 0.0109524 -0.0297278 -0.0173319 0.0209373
0.0003590 0.0003117 0.0003557 0.0002243 0.0087811 -0.0333923 0.0069693 -0.0215372 0.0125399 -0.0255282 0.0004227 -0.0021295 -0.0001334 -0.0005268 -0.0002682 -0.0007679 0.0085483 -0.0257873 0.0080123 -0.0033159
0.0002292 0.0001229 0.0003157 0.0003904 0.0123114 -0.0317928 0.0062617 -0.0210229 0.0028286 -0.0196009 0.0005764 -0.0018132 0.0000106 -0.0002787 -0.0002278 -0.0006221 -0.0019490 0.0067139 0.0065526 0.0036758
0.0001422 -0.0000898 0.0003094 0.0005180 0.0017829 0.0121284 0.0111454 -0.0305051 -0.0030656 -0.0023471 0.0007147 -0.0024019 0.0001929 -0.0006665 -0.0002262 -0.0007209 -0.0088021 0.0159052 -0.0026567 0.0080273
0.0001115 -0.0002916 0.0003254 0.0005195 -0.0015820 0.0128033 0.0080231 -0.0277632 0.0003310 -0.0116622 0.0002104 -0.0028737 0.0002379 -0.0012058 -0.0002339 -0.0009184 -0.0061008 0.0012365 0.0020757 -0.0113252
0.0000972 -0.0003857 0.0003442 0.0005797 -0.0045335 -0.0090859 -0.0018618 0.0000974 -0.0049454 -0.0047063 -0.0006988 -0.0020532 0.0003554 -0.0014644 -0.0002328 -0.0009594 -0.0038004 -0.0000451 -0.0019239 -0.0050834
0.0000934 -0.0003478 0.0003681 0.0007009 -0.0173522 0.0156715 -0.0016106 0.0187032 0.0045780 -0.0094260 -0.0004435 -0.0019690 0.0004988 -0.0015090 -0.0002257 -0.0008936 -0.0037975 0.0041791 -0.0019924 -0.0024766
0.0001043 -0.0002301 0.0003829 0.0008156 -0.0181198 0.0131448 0.0006092 0.0131646 0.0145695 -0.0345899 -0.0002016 -0.0021555 0.0002642 -0.0012464 -0.0002243 -0.0008123 0.0001793 0.0020510 0.0023015 -0.0058187
0.0001154 -0.0000891 0.0003945 0.0009413 -0.0002499 0.0059723 -0.0011297 -0.0024070 -0.0010905 -0.0066796 -0.0000164 -0.0019418 -0.0000643 -0.0009117 -0.0002328 -0.0007236 -0.0062388 0.0093876 -0.0080973 0.0127695
0.0001249 0.0000490 0.0004090 0.0010651 0.0014309 0.0088692 -0.0101642 0.0121013 -0.0052465 0.0159518 0.0002909 -0.0019400 -0.0001468 -0.0009830 -0.0002122 -0.0006425 -0.0049274 0.0038718 -0.0070399 0.0125044
0.0001473 0.0001578 0.0004184 0.0011234 -0.0067493 0.0122504 -0.0079867 0.0034542 -0.0003775 0.0078039 0.0003028 -0.0020776 -0.0001146 -0.0012764 -0.0002051 -0.0006726 0.0041368 -0.0091601 0.0068600 -0.0088339
0.0001625 0.0001422 0.0004213 0.0010824 -0.0021921 0.0001543 0.0097132 -0.0160593 -0.0002700 -0.0054553 0.0003637 -0.0026291 0.0000120 -0.0016082 -0.0001905 -0.0008323 0.0042752 -0.0118984 0.0058337 -0.0124803
0.0001579 0.0000677 0.0004118 0.0010272 -0.0010019 -0.0071060 0.0044045 -0.0042794 -0.0161921 0.0200556 -0.0006279 -0.0019252 0.0001353 -0.0017319 -0.0001803 -0.0009210 0.0092642 -0.0137311 0.0026931 -0.0103267
0.0001419 0.0000376 0.0004115 0.0010819 -0.0063381 0.0092601 -0.0051535 -0.0016152 -0.0198233 0.0224100 -0.0015023 -0.0013370 0.0000665 -0.0015552 -0.0001577 -0.0008340 0.0079904 -0.0089294 0.0042283 -0.0113668
0.0001266 0.0000745 0.0004258 0.0012552 -0.0018035 -0.0020773 0.0016023 -0.0121688 0.0023641 -0.0000019 -0.0013150 -0.0015980 -0.0000373 -0.0013796 -0.0001160 -0.0006809 0.0024479 -0.0059937 -0.0049591 0.0044095
0.0001238 0.0002064 0.0004457 0.0015557 -0.0105310 0.0063840 -0.0002889 -0.0046441 0.0035835 0.0018537 -0.0007270 -0.0018630 -0.0003328 -0.0008354 -0.0000600 -0.0004405 0.0045807 -0.0085401 -0.0002032 -0.0000761
0.0001049 0.0003192 0.0004535 0.0019091 -0.0053601 0.0004192 -0.0056168 -0.0005613 0.0037016 -0.0100795 -0.0000069 -0.0025987 -0.0005338 -0.0003832 0.0000123 -0.0001430 0.0101382 -0.0229895 0.0075281 -0.0141200
0.0000995 0.0004540 0.0004639 0.0021772 0.0085129 -0.0091811 -0.0017291 -0.0096381 0.0023601 -0.0119581 0.0007218 -0.0035412 -0.0002950 -0.0004789 0.0000574 -0.0000158 0.0052927 -0.0130449 0.0085646 -0.0153126
0.0001362 0.0005535 0.0004862 0.0022421 0.0053106 0.0017478 -0.0029078 0.0008784 -0.0092939 0.0160914 0.0007149 -0.0035066 -0.0000951 -0.0005865 0.0001149 -0.0000411 -0.0002369 0.0129753 0.0089870 -0.0149403
0.0001769 0.0005530 0.0004990 0.0021830 -0.0009209 0.0050008 0.0038447 -0.0057569 -0.0087140 0.0111432 0.0003931 -0.0034892 0.0000774 -0.0009091 0.0001623 -0.0000825 0.0025405 0.0055337 0.0104515 -0.0262805
0.0002215 0.0006473 0.0005265 0.0021984 -0.0017094 0.0012393 0.0097173 -0.0087605 -0.0014912 -0.0064461 0.0000751 -0.0034472 0.0003316 -0.0013043 0.0001558 -0.0000708 0.0025526 -0.0120789 0.0137622 -0.0351660
0.0002430 0.0007638 0.0005533 0.0022905 -0.0004164 -0.0104379 0.0024036 0.0039005 -0.0056077 0.0063036 -0.0010850 -0.0017826 0.0002979 -0.0011038 0.0001416 -0.0000091 -0.0158177 0.0184860 0.0010951 0.0121931
0.0002525 0.0008861 0.0005690 0.0023930 0.0005017 0.0030573 0.0005228 -0.0042868 0.0056234 -0.0097748 -0.0010621 -0.0015555 0.0001991 -0.0008263 0.0001427 0.0001085 -0.0145175 0.0181002 -0.0005863 0.0186288
0.0002641 0.0010296 0.0005760 0.0024836 -0.0000046 0.0036970 0.0079909 -0.0230831 0.0114589 -0.0102961 -0.0006501 -0.0016794 0.0000861 -0.0006691 0.0001493 0.0002484 0.0040255 0.0042226 -0.0040495 0.0061734
0.0002580 0.0011281 0.0005695 0.0025749 0.0026399 -0.0075754 -0.0001205 0.0000810 0.0057520 -0.0007149 -0.0001682 -0.0011767 -0.0003463 -0.0001253 0.0001353 0.0003373 0.0015788 0.0086626 -0.0179663 0.0199119
0.0002524 0.0011649 0.0005751 0.0026205 0.0147202 -0.0249158 0.0010469 0.0131905 0.0102910 -0.0235140 0.0007542 -0.0020541 -0.0003794 -0.0002092 0.0001102 0.0002021 -0.0027520 0.0036155 -0.0151403 0.0120184
0.0002526 0.0010935 0.0005956 0.0025658 0.0068147 -0.0130539 0.0007023 0.0083923 0.0109131 -0.0300634 0.0006482 -0.0023456 -0.0002202 -0.0006572 0.0000759 -0.0001399 -0.0006717 -0.0069603 0.0027614 0.0010703
0.0002415 0.0009850 0.0006072 0.0024593 -0.0076843 0.0107562 -0.0088489 0.0154273 -0.0018143 -0.0078768 0.0000800 -0.0017216 -0.0001482 -0.0007585 0.0000476 -0.0002756 -0.0039677 -0.0018642 0.0017345 0.0113992
0.0002432 0.0009752 0.0005944 0.0023680 -0.0004651 0.0098482 -0.0001058 0.0030678 0.0036173 -0.0044677 -0.0000900 -0.0018329 0.0000557 -0.0010644 0.0000345 -0.0002667 -0.0012368 0.0003877 -0.0005763 0.0009229
0.0002590 0.0010490 0.0005884 0.0023411 0.0000863 0.0124439 0.0102427 -0.0255128 0.0054063 -0.0061783 -0.0008871 -0.0015818 0.0000482 -0.0012020 -0.0000283 -0.0003171 0.0003575 -0.0053783 -0.0024950 -0.0059766
0.0002387 0.0010551 0.0005949 0.0023748 -0.0053194 0.0073266 0.0048200 -0.0104481 0.0042068 -0.0070767 -0.0013452 -0.0013459 -0.0000988 -0.0011006 -0.0000699 -0.0003071 -0.0019464 -0.0122093 -0.0058589 0.0073006
0.0002108 0.0010496 0.0006001 0.0024221 -0.0102519 0.0060141 -0.0001001 0.0153215 0.0156501 -0.0265752 -0.0007378 -0.0019451 -0.0000894 -0.0011743 -0.0000942 -0.0002746 0.0073121 -0.0258067 -0.0003541 0.0013419
0.0001901 0.0010037 0.0006005 0.0023893 -0.0023202 -0.0018980 -0.0001274 0.0133065 0.0180123 -0.0400286 -0.0003571 -0.0024701 -0.0003552 -0.0011875 -0.0001575 -0.0004218 0.0071779 -0.0066129 0.0018044 -0.0120691
0.0001883 0.0009034 0.0006106 0.0022837 0.0047800 0.0028289 0.0052409 -0.0147041 0.0061321 -0.0165151 -0.0002085 -0.0029982 -0.0006908 -0.0012849 -0.0002050 -0.0006589 -0.0008516 0.0058701 -0.0111711 0.0039780
0.0002021 0.0008532 0.0006422 0.0022190 0.0020821 0.0087802 -0.0055695 0.0064133 -0.0004109 0.0093313 0.0000378 -0.0034956 -0.0005691 -0.0015666 -0.0002157 -0.0006767 -0.0097330 0.0094710 -0.0047459 -0.0018470
0.0002287 0.0008812 0.0006611 0.0021581 0.0030866 -0.0104722 -0.0165786 0.0241098 -0.0046212 0.0131693 -0.0003007 -0.0032471 -0.0003458 -0.0017101 -0.0002178 -0.0006058 -0.0104801 0.0069196 0.0051923 -0.0095449
0.0002791 0.0010097 0.0006605 0.0020959 -0.0044555 -0.0042344 0.0004788 0.0080802 -0.0094503 0.0096565 -0.0004298 -0.0030326 -0.0001511 -0.0017070 -0.0002263 -0.0005691 -0.0111878 0.0030094 0.0044329 -0.0090239
0.0003416 0.0011900 0.0006573 0.0020324 -0.0056546 0.0020716 0.0076962 -0.0046234 -0.0097138 0.0123987 -0.0014785 -0.0016941 -0.0000591 -0.0015888 -0.0002519 -0.0004923 -0.0028670 0.0019210 0.0132260 -0.0412860
0.0003941 0.0013514 0.0006572 0.0019722 -0.0035627 -0.0005078 -0.0032904 0.0037765 -0.0027563 0.0018788 -0.0021684 -0.0008629 -0.0002326 -0.0013751 -0.0002545 -0.0004575 0.0001296 -0.0081945 0.0036829 -0.0214366
0.0004540 0.0014846 0.0006708 0.0018793 -0.0048597 0.0035149 -0.0111944 0.0047702 0.0075794 -0.0067428 -0.0015956 -0.0016801 -0.0002591 -0.0015201 -0.0002419 -0.0005749 -0.0011197 -0.0077117 -0.0084559 0.0046709
0.0005361 0.0015316 0.0006704 0.0016007 0.0014261 -0.0103810 -0.0057696 -0.0038534 0.0052960 0.0019040 -0.0010960 -0.0023188 -0.0006138 -0.0014361 -0.0002592 -0.0007422 0.0010726 -0.0066186 0.0026303 -0.0085893
0.0005855 0.0014482 0.0006435 0.0012458 0.0112690 -0.0272879 0.0103680 -0.0276208 0.0009861 0.0038647 -0.0000955 -0.0030593 -0.0008249 -0.0013361 -0.0002600 -0.0007997 0.0002210 -0.0119336 0.0074459 -0.0205542
0.0006030 0.0013863 0.0006169 0.0010150 0.0100488 -0.0059803 0.0131437 -0.0319379 -0.0102938 0.0110865 0.0009687 -0.0036915 -0.0004562 -0.0014702 -0.0002543 -0.0007759 -0.0036166 -0.0053035 0.0022954 -0.0158624
0.0006028 0.0013810 0.0006004 0.0009111 0.0103825 -0.0132110 -0.0018197 -0.0007572 -0.0115290 0.0094416 0.0004803 -0.0029084 -0.0001337 -0.0013624 -0.0002539 -0.0006805 -0.0057995 0.0043825 0.0099743 -0.0333070
0.0005953 0.0013986 0.0005877 0.0008765 0.0235067 -0.0682643 -0.0009096 0.0048540 0.0040419 -0.0213361 -0.0003006 -0.0021023 0.0001038 -0.0012641 -0.0002502 -0.0005643 -0.0019203 -0.0025942 0.0101957 -0.0372632
0.0005827 0.0014315 0.0005753 0.0008868 -0.0007495 -0.0127569 0.0038513 0.0081884 0.0032982 -0.0209647 -0.0003984 -0.0020064 0.0002846 -0.0012040 -0.0002549 -0.0004761 -0.0027939 -0.0100438 -0.0079953 -0.0069615
0.0005745 0.0014546 0.0005675 0.0008937 -0.0061478 -0.0045086 0.0068313 -0.0030260 -0.0051796 -0.0042373 -0.0012714 -0.0012159 0.0001836 -0.0010661 -0.0002632 -0.0005032 -0.0110153 0.0062586 -0.0135276 0.0117213
0.0005654 0.0013363 0.0005604 0.0007913 0.0057207 -0.0058635 0.0085825 -0.0220298 0.0030958 -0.0100098 -0.0011369 -0.0015713 0.0000075 -0.0011242 -0.0002322 -0.0006977 -0.0118716 0.0059753 -0.0112927 0.0071900
0.0005503 0.0011238 0.0005535 0.0006244 0.0024684 0.0023034 -0.0056932 0.0058555 0.0037484 0.0095037 -0.0002881 -0.0025465 -0.0000666 -0.0012871 -0.0002213 -0.0007994 -0.0066227 0.0087309 -0.0016618 -0.0156461
0.0005400 0.0010224 0.0005523 0.0005209 -0.0035779 0.0062641 -0.0136585 0.0107373 0.0008347 0.0111946 0.0001550 -0.0025218 -0.0001964 -0.0010647 -0.0002510 -0.0007559 -0.0046739 0.0102151 0.0068424 -0.0319570
0.0005292 0.0010198 0.0005488 0.0004922 -0.0012607 0.0048274 0.0047688 -0.0024844 0.0001708 -0.0045530 0.0006725 -0.0025299 0.0000049 -0.0008789 -0.0002544 -0.0006931 -0.0027004 -0.0053687 -0.0000440 -0.0117980
0.0005004 0.0010129 0.0005335 0.0005272 0.0029947 -0.0061938 0.0068207 -0.0007017 -0.0105677 0.0049158 -0.0002069 -0.0012394 0.0002296 -0.0007777 -0.0002653 -0.0006296 -0.0012464 -0.0176137 0.0065127 -0.0125311
0.0004185 0.0009302 0.0005076 0.0006521 0.0020705 -0.0106641 -0.0015784 0.0079137 -0.0151496 0.0074492 -0.0011620 -0.0001787 0.0002797 -0.0005139 -0.0002874 -0.0006040 -0.0093158 -0.0010559 0.0044401 -0.0104773
0.0003177 0.0008500 0.0004871 0.0008322 -0.0086573 0.0057815 0.0009290 0.0048687 0.0037789 -0.0057287 -0.0008422 -0.0006677 0.0004167 -0.0004752 -0.0003051 -0.0007116 -0.0101640 0.0043272 -0.0037667 -0.0014893
0.0002641 0.0007607 0.0004878 0.0008816 -0.0104632 0.0125866 0.0008608 0.0001861 0.0047719 -0.0038745 -0.0009259 -0.0012488 0.0001009 -0.0006186 -0.0003274 -0.0009823 0.0012730 -0.0193045 -0.0063132 -0.0058581
0.0002754 0.0006481 0.0004931 0.0007481 -0.0051999 0.0059330 -0.0067932 0.0071144 -0.0004134 0.0045384 -0.0008242 -0.0025722 -0.0003743 -0.0011095 -0.0003522 -0.0012702 -0.0042541 -0.0165677 -0.0060478 -0.0104301
0.0003098 0.0006268 0.0004883 0.0006203 0.0063455 -0.0151384 -0.0063179 0.0075068 -0.0016780 0.0077397 0.0000425 -0.0039454 -0.0005493 -0.0016009 -0.0003843 -0.0014004 -0.0000068 -0.0213334 -0.0001917 -0.0182104
0.0003154 0.0006677 0.0004944 0.0006416 0.0135280 -0.0329439 -0.0084707 0.0105010 -0.0090262 0.0187977 0.0005559 -0.0040196 -0.0006287 -0.0015969 -0.0004108 -0.0013365 0.0027514 -0.0054989 -0.0000496 -0.0168677
0.0003301 0.0007668 0.0005046 0.0006971 0.0041725 -0.0091971 -0.0029084 -0.0029858 -0.0135824 0.0162591 0.0007354 -0.0038809 -0.0004351 -0.0017134 -0.0004044 -0.0012298 -0.0044177 0.0061433 0.0023289 -0.0284983
0.0003553 0.0008919 0.0005027 0.0007241 0.0014024 -0.0072840 0.0064286 -0.0150629 -0.0118510 0.0113964 0.0005712 -0.0035676 -0.0000624 -0.0020033 -0.0003814 -0.0011580 -0.0110023 0.0052188 0.0075839 -0.0358673
0.0003713 0.0010148 0.0004986 0.0007737 -0.0037250 -0.0053898 0.0001968 -0.0001202 -0.0144559 0.0249064 -0.0006678 -0.0020093 0.0000799 -0.0019825 -0.0003799 -0.0011318 -0.0197491 0.0189321 0.0002496 0.0022054
0.0004027 0.0010833 0.0005012 0.0007713 -0.0006789 0.0016680 0.0007609 0.0018575 -0.0042101 0.0090852 -0.0011345 -0.0019924 0.0000810 -0.0021044 -0.0003795 -0.0012653 -0.0149697 0.0130408 -0.0072397 0.0107863
0.0004320 0.0010334 0.0005092 0.0006766 0.0076508 -0.0135856 0.0041733 -0.0107653 0.0068570 -0.0050233 -0.0011561 -0.0025667 0.0001481 -0.0025437 -0.0003610 -0.0014480 0.0014691 -0.0044994 -0.0141252 0.0062678
0.0004401 0.0009725 0.0005099 0.0005760 0.0115437 -0.0214265 -0.0020935 -0.0069735 0.0054247 -0.0020614 -0.0011263 -0.0021565 -0.0001521 -0.0021183 -0.0003511 -0.0015056 -0.0032734 0.0009718 -0.0141846 0.0149360
0.0004414 0.0009817 0.0005079 0.0005415 0.0155197 -0.0275396 0.0016359 -0.0021634 0.0107473 -0.0209704 -0.0002729 -0.0025199 -0.0002384 -0.0017553 -0.0003594 -0.0014781 -0.0048482 -0.0011295 -0.0090480 0.0076912
0.0004255 0.0009865 0.0005038 0.0005653 0.0149329 -0.0401711 0.0043115 -0.0064375 0.0044248 -0.0095469 0.0002802 -0.0025770 -0.0001743 -0.0015498 -0.0003727 -0.0014181 0.0023683 -0.0127605 0.0111477 -0.0236106
0.0003614 0.0009177 0.0004932 0.0006573 0.0045627 -0.0139691 0.0077815 -0.0159491 -0.0047153 0.0025807 0.0003982 -0.0021152 -0.0001842 -0.0011430 -0.0003503 -0.0012948 -0.0077953 0.0056055 0.0145478 -0.0293327
0.0003155 0.0009071 0.0004825 0.0007364 0.0037505 0.0079024 0.0183435 -0.0377372 -0.0064800 0.0074770 0.0005687 -0.0021664 0.0000296 -0.0011820 -0.0003482 -0.0011231 -0.0143922 0.0035237 0.0115698 -0.0288247
0.0003237 0.0009654 0.0004778 0.0007717 0.0036198 0.0075285 0.0052918 -0.0134280 0.0019706 -0.0020776 -0.0001002 -0.0019608 0.0001544 -0.0012776 -0.0003692 -0.0011590 -0.0051497 -0.0158983 0.0097661 -0.0409989
0.0003086 0.0008472 0.0004777 0.0007525 -0.0072867 0.0145235 -0.0008725 -0.0005223 0.0019825 0.0008259 -0.0009378 -0.0015811 0.0002087 -0.0014057 -0.0003384 -0.0013967 -0.0051670 0.0042602 -0.0008059 -0.0305134
0.0003095 0.0007040 0.0004843 0.0006649 -0.0190389 0.0290860 -0.0006298 0.0128524 0.0007867 0.0039263 -0.0005280 -0.0021730 0.0003060 -0.0016749 -0.0003149 -0.0015070 -0.0022020 0.0035117 -0.0086787 -0.0016310
0.0003366 0.0006983 0.0004862 0.0005997 -0.0175459 0.0208208 -0.0030660 0.0170311 0.0078690 -0.0145851 0.0001759 -0.0028710 0.0000445 -0.0015157 -0.0003070 -0.0014790 0.0037510 -0.0074626 -0.0055611 -0.0044917
0.0003406 0.0007162 0.0004879 0.0006168 0.0009979 0.0062304 -0.0049468 0.0078708 0.0042261 -0.0058899 0.0008013 -0.0030224 -0.0001388 -0.0012875 -0.0002880 -0.0014303 -0.0062891 0.0018727 0.0058965 -0.0410811
0.0003379 0.0007717 0.0004930 0.0007124 0.0022815 0.0050304 -0.0075406 0.0111143 -0.0041525 0.0192919 0.0009784 -0.0028470 0.0000306 -0.0013580 -0.0002808 -0.0013556 -0.0067346 -0.0108284 0.0140322 -0.0507012
0.0003355 0.0008583 0.0005007 0.0008448 -0.0014288 0.0009258 -0.0094647 0.0099119 -0.0081333 0.0195677 0.0004484 -0.0022477 0.0001550 -0.0012894 -0.0002880 -0.0012525 0.0091287 -0.0321706 0.0107225 -0.0158123
0.0003366 0.0009539 0.0005091 0.0009678 -0.0025383 0.0018751 0.0034960 -0.0020698 -0.0078340 0.0022513 0.0002384 -0.0019869 0.0003730 -0.0013982 -0.0002802 -0.0012921 -0.0023829 -0.0133878 0.0048333 -0.0032313
0.0003410 0.0009352 0.0005247 0.0009941 -0.0069260 0.0068825 0.0054380 -0.0019637 -0.0104813 0.0149746 -0.0006561 -0.0014506 0.0005266 -0.0015882 -0.0002587 -0.0014763 0.0010041 -0.0036640 -0.0055907 0.0028781
0.0003413 0.0008199 0.0005435 0.0009521 -0.0042829 0.0028497 0.0036720 -0.0112009 -0.0092585 0.0162016 -0.0012697 -0.0012680 0.0003955 -0.0014594 -0.0002748 -0.0015545 0.0027084 0.0041680 -0.0085818 0.0053528
0.0003170 0.0007323 0.0005406 0.0009743 0.0061936 -0.0193155 0.0064270 -0.0221440 0.0049866 -0.0019580 -0.0006994 -0.0017223 0.0004006 -0.0012963 -0.0003031 -0.0015476 0.0060492 -0.0068469 -0.0130820 0.0091484
0.0002689 0.0006466 0.0005330 0.0010517 0.0056248 -0.0203692 -0.0042101 -0.0088811 0.0124630 -0.0170919 -0.0000223 -0.0017681 0.0001676 -0.0007851 -0.0002927 -0.0014724 0.0128625 -0.0238987 -0.0020286 0.0011646
0.0002754 0.0007034 0.0005375 0.0010975 0.0032870 -0.0097507 -0.0008193 -0.0082859 0.0025277 -0.0098229 0.0006688 -0.0017984 -0.0000784 -0.0002995 -0.0002697 -0.0013038 0.0077379 -0.0167219 0.0079363 -0.0153154
0.0003155 0.0008572 0.0005405 0.0011288 0.0029339 0.0092735 0.0049537 -0.0077627 -0.0141274 0.0052817 0.0012303 -0.0021611 0.0002060 -0.0003309 -0.0002691 -0.0011794 -0.0008544 -0.0048572 0.0065918 -0.0166345
0.0003234 0.0009459 0.0005386 0.0011939 0.0018442 0.0098477 -0.0021562 -0.0005193 -0.0237612 0.0090603 0.0006924 -0.0016928 0.0004839 -0.0004020 -0.0002738 -0.0012479 -0.0027448 0.0062216 0.0122357 -0.0276192
0.0003214 0.0008895 0.0005325 0.0011843 0.0005556 -0.0020748 0.0016292 -0.0119475 -0.0077982 -0.0006560 -0.0001150 -0.0013722 0.0006014 -0.0006459 -0.0002771 -0.0014470 -0.0052486 0.0197782 0.0035544 -0.0082208
0.0002990 0.0006635 0.0005295 0.0010849 -0.0065626 0.0132908 0.0021704 0.0065032 0.0024848 -0.0048333 -0.0002930 -0.0018870 0.0006612 -0.0011523 -0.0002887 -0.0015607 0.0000277 0.0067590 -0.0099993 0.0176552
0.0002818 0.0005230 0.0005341 0.0010217 -0.0011000 -0.0032106 -0.0005617 0.0116944 -0.0007113 0.0008940 -0.0006684 -0.0018671 0.0003680 -0.0013807 -0.0002782 -0.0015765 0.0027509 0.0059372 -0.0044804 0.0204383
0.0002797 0.0005259 0.0005270 0.0010245 0.0060339 -0.0078036 -0.0033871 -0.0001244 -0.0023980 0.0057519 -0.0003423 -0.0019015 0.0000441 -0.0011756 -0.0002565 -0.0015457 -0.0043371 0.0211567 -0.0013712 0.0196892
0.0002681 0.0005346 0.0005130 0.0010520 0.0059760 -0.0032129 -0.0123828 0.0048117 0.0002031 0.0127584 0.0004849 -0.0024002 0.0000436 -0.0010587 -0.0002695 -0.0014844 0.0006912 0.0132368 -0.0020124 0.0155879
0.0002611 0.0005600 0.0005068 0.0011094 0.0022452 -0.0016241 -0.0116905 -0.0078921 0.0002310 0.0078577 0.0007605 -0.0024859 0.0000276 -0.0009688 -0.0002919 -0.0014300 0.0055879 -0.0008134 0.0030557 0.0097347
0.0002175 0.0005136 0.0004931 0.0011993 -0.0021727 0.0015672 0.0056908 -0.0097096 -0.0058496 0.0018854 0.0006157 -0.0021414 0.0001057 -0.0009915 -0.0003024 -0.0014370 0.0036301 -0.0074273 0.0024014 0.0110207
0.0001799 0.0003655 0.0004791 0.0011645 0.0041164 -0.0199407 0.0045665 -0.0003116 -0.0214147 0.0229982 -0.0004923 -0.0014226 0.0002477 -0.0013341 -0.0002784 -0.0016053 -0.0001098 0.0059440 -0.0000711 0.0122817
0.0002016 0.0002394 0.0004855 0.0010250 0.0005565 -0.0122453 -0.0027371 0.0059471 -0.0148339 0.0124904 -0.0013629 -0.0013503 0.0002937 -0.0016021 -0.0002727 -0.0017342 0.0064319 -0.0121827 0.0088376 -0.0106618
0.0002299 0.0002198 0.0004895 0.0009598 -0.0042452 -0.0091324 -0.0060035 0.0045997 0.0112496 -0.0200986 -0.0010407 -0.0017752 0.0002920 -0.0016550 -0.0002672 -0.0017506 0.0113428 -0.0219278 0.0182751 -0.0418378
0.0002466 0.0002742 0.0004911 0.0009633 -0.0054690 -0.0057854 -0.0191406 0.0206865 0.0057660 -0.0013035 -0.0009289 -0.0012871 -0.0000316 -0.0012456 -0.0002492 -0.0017360 0.0069107 -0.0034952 0.0060934 -0.0024675
0.0002450 0.0003258 0.0004823 0.0010080 -0.0013874 -0.0019280 -0.0141746 0.0134991 0.0011570 -0.0017678 -0.0001228 -0.0018875 -0.0002898 -0.0009577 -0.0002664 -0.0016626 -0.0004345 0.0075293 0.0054956 -0.0005050
0.0002412 0.0003991 0.0004754 0.0010768 0.0048409 -0.0005962 0.0063832 -0.0244520 -0.0021794 -0.0093496 0.0009382 -0.0029430 -0.0001399 -0.0010544 -0.0002699 -0.0015768 -0.0022161 0.0098323 0.0104644 -0.0114091
0.0002394 0.0004953 0.0004799 0.0011586 0.0032105 0.0018685 -0.0052252 0.0038614 -0.0231930 0.0207671 0.0008246 -0.0025687 0.0000062 -0.0009842 -0.0002852 -0.0015390 0.0025958 0.0163149 0.0164729 -0.0214854
0.0002423 0.0005097 0.0004798 0.0011760 -0.0014174 0.0032178 -0.0015600 -0.0010805 -0.0128644 0.0067315 0.0003474 -0.0023177 0.0002416 -0.0012893 -0.0003025 -0.0016592 -0.0010414 0.0218287 0.0046598 -0.0055563
0.0002514 0.0004073 0.0004834 0.0010924 -0.0082522 0.0132752 0.0063193 0.0008803 0.0035567 -0.0182645 -0.0000180 -0.0026372 0.0005767 -0.0019051 -0.0002816 -0.0018312 -0.0008980 0.0064975 -0.0086763 0.0171265
0.0002574 0.0003485 0.0004845 0.0010293 -0.0146366 0.0134323 0.0034159 0.0067242 0.0004332 -0.0064946 -0.0007592 -0.0020368 0.0004643 -0.0018833 -0.0002750 -0.0018581 0.0019198 0.0045132 -0.0023739 0.0176931
0.0002628 0.0003846 0.0004874 0.0010257 0.0014489 -0.0032024 0.0071872 -0.0225480 0.0064007 -0.0183402 -0.0008502 -0.0017447 0.0001822 -0.0015952 -0.0002981 -0.0017866 -0.0045354 0.0124840 0.0006409 0.0130710
0.0002659 0.0004655 0.0004914 0.0010598 0.0061138 -0.0086214 -0.0058710 -0.0026462 0.0037812 0.0037008 -0.0003210 -0.0020533 0.0001505 -0.0015417 -0.0002989 -0.0017118 0.0031007 0.0054752 0.0000214 0.0084523
0.0002673 0.0005641 0.0004894 0.0011229 0.0061655 -0.0112742 -0.0123428 0.0084839 0.0029063 0.0079218 0.0004492 -0.0024513 0.0000444 -0.0013516 -0.0002828 -0.0016322 0.0041554 0.0099443 -0.0008612 0.0097197
0.0002672 0.0006625 0.0004877 0.0012093 0.0109154 -0.0251635 0.0011647 0.0003359 0.0015586 -0.0047611 0.0008963 -0.0024486 0.0000874 -0.0011506 -0.0002650 -0.0015960 0.0019084 -0.0030246 -0.0023028 0.0069532
0.0002672 0.0006778 0.0004809 0.0012354 -0.0043484 -0.0029243 0.0017010 0.0054654 -0.0182903 0.0148199 -0.0000556 -0.0017335 0.0002443 -0.0012440 -0.0002720 -0.0016677 0.0015105 -0.0110737 0.0042235 0.0019131
0.0002560 0.0005647 0.0004792 0.0011773 -0.0148093 0.0169124 0.0034170 -0.0024896 -0.0081366 -0.0012221 -0.0008367 -0.0017280 0.0003827 -0.0015793 -0.0002637 -0.0017705 0.0027744 -0.0122376 0.0061485 -0.0084969
0.0002806 0.0005811 0.0005004 0.0011929 -0.0042569 0.0047124 0.0037560 -0.0076157 0.0108306 -0.0143680 -0.0009096 -0.0018837 0.0006197 -0.0019843 -0.0000796 -0.0014814 0.0113119 -0.0236078 -0.0036959 -0.0136178
0.0003349 0.0007334 0.0004943 0.0011547 -0.0062365 0.0113472 -0.0059132 0.0054869 0.0054472 0.0016843 -0.0007005 -0.0015633 0.0003557 -0.0016527 0.0000891 -0.0011027 0.0079031 -0.0065901 -0.0003537 -0.0032044
0.0003414 0.0008085 0.0004637 0.0011104 -0.0087272 0.0135689 -0.0099801 0.0104588 0.0041560 -0.0069554 0.0000671 -0.0017149 0.0000620 -0.0010161 0.0000649 -0.0009729 0.0074309 -0.0187354 0.0023479 -0.0043670
0.0003109 0.0008331 0.0004462 0.0012168 -0.0027242 0.0086463 -0.0034186 -0.0064471 -0.0053443 0.0019989 0.0012685 -0.0024710 0.0002695 -0.0007472 0.0000174 -0.0009051 0.0003615 -0.0009280 0.0001829 -0.0004332
0.0002851 0.0008885 0.0004457 0.0013184 -0.0045082 0.0109718 -0.0041670 -0.0003994 -0.0202552 0.0212040 0.0014517 -0.0021331 0.0005339 -0.0004419 0.0000194 -0.0009981 -0.0009774 0.0242395 0.0064045 -0.0109607
0.0002634 0.0008472 0.0004547 0.0012930 0.0009705 -0.0031083 -0.0023672 0.0015565 -0.0112068 0.0046091 0.0010405 -0.0018853 0.0008554 -0.0006081 0.0000248 -0.0012293 0.0035671 0.0150202 0.0084384 -0.0283269
0.0002274 0.0006382 0.0004533 0.0011652 0.0034715 -0.0094810 0.0072273 -0.0075227 0.0013587 -0.0130628 0.0007895 -0.0022972 0.0012183 -0.0011751 -0.0000020 -0.0013568 0.0047678 -0.0023978 0.0042326 -0.0241053
0.0001982 0.0004872 0.0004481 0.0010998 -0.0065442 -0.0025708 0.0068287 -0.0031552 -0.0013946 -0.0043836 -0.0001142 -0.0015166 0.0011994 -0.0011005 -0.0000193 -0.0013391 -0.0079040 0.0114132 0.0051932 0.0040891
0.0001685 0.0004312 0.0004446 0.0011081 0.0028222 -0.0126724 0.0046320 -0.0120195 0.0063820 -0.0152458 -0.0002363 -0.0014984 0.0009463 -0.0008766 -0.0000107 -0.0013149 -0.0040512 0.0076373 0.0053327 0.0089428
0.0001476 0.0004548 0.0004446 0.0011631 0.0093329 -0.0265498 -0.0035254 -0.0043724 0.0103570 -0.0063002 -0.0000089 -0.0017903 0.0008834 -0.0009328 -0.0000228 -0.0012059 0.0041183 0.0097389 -0.0011144 0.0030323
0.0001484 0.0005517 0.0004455 0.0012358 0.0021460 -0.0103780 -0.0082593 -0.0007197 0.0078050 -0.0068475 0.0003261 -0.0015458 0.0007363 -0.0006079 -0.0000221 -0.0010964 0.0044978 0.0035116 -0.0091204 0.0202729
0.0001450 0.0006424 0.0004473 0.0013046 0.0043326 -0.0112214 0.0032588 -0.0074518 0.0076669 -0.0280026 0.0009963 -0.0016565 0.0007963 -0.0003622 -0.0000029 -0.0010406 -0.0003686 -0.0016151 -0.0065396 0.0170581
0.0001481 0.0006428 0.0004501 0.0013146 0.0013374 -0.0098901 0.0098224 -0.0137134 -0.0108346 0.0061022 0.0005310 -0.0015319 0.0009812 -0.0005306 0.0000455 -0.0010427 -0.0015115 0.0018468 0.0041879 0.0038111
0.0001616 0.0005605 0.0004539 0.0012500 -0.0036972 0.0035179 0.0076803 -0.0105959 -0.0161845 0.0169544 -0.0001475 -0.0016043 0.0010625 -0.0008237 0.0001005 -0.0010427 0.0022823 -0.0157440 0.0080085 -0.0052663
0.0001693 0.0005156 0.0004662 0.0011969 0.0002990 0.0048492 0.0025738 -0.0035434 0.0066485 -0.0022889 -0.0000799 -0.0017525 0.0010975 -0.0010138 0.0001396 -0.0009636 0.0080501 -0.0223813 -0.0014047 -0.0095807
0.0001723 0.0005347 0.0004743 0.0011941 -0.0013981 0.0081611 -0.0065547 0.0060749 0.0130187 -0.0133584 -0.0001317 -0.0013197 0.0007903 -0.0007436 0.0001787 -0.0008542 0.0112206 -0.0199264 -0.0076067 0.0050824
0.0001760 0.0005829 0.0004740 0.0012286 -0.0007202 0.0016663 -0.0083879 0.0139590 0.0152596 -0.0296802 0.0003526 -0.0016114 0.0006018 -0.0004408 0.0002029 -0.0007070 0.0120504 -0.0356258 -0.0001852 -0.0041451
0.0001882 0.0006790 0.0004958 0.0013043 0.0077631 -0.0032360 -0.0000686 -0.0006420 0.0173487 -0.0418020 0.0014666 -0.0024493 0.0006459 -0.0003138 0.0002152 -0.0005707 0.0087548 -0.0297421 0.0117383 -0.0311465
0.0002178 0.0008426 0.0005356 0.0013959 0.0068781 -0.0046762 -0.0046247 0.0029617 -0.0063259 0.0019239 0.0015553 -0.0019832 0.0006968 -0.0000328 0.0002203 -0.0004310 -0.0011386 0.0192324 0.0093898 -0.0129061
0.0002655 0.0009779 0.0005754 0.0014155 0.0017715 -0.0031314 -0.0024728 0.0047340 -0.0097741 0.0141541 0.0011266 -0.0016256 0.0009475 -0.0001796 0.0002412 -0.0004785 0.0026809 0.0130458 0.0017914 0.0041046
0.0003213 0.0009984 0.0006034 0.0012816 0.0023351 -0.0106185 0.0092675 -0.0018046 -0.0042937 0.0065220 0.0008699 -0.0019364 0.0013203 -0.0007356 0.0002642 -0.0007237 0.0031594 -0.0032864 -0.0034783 0.0042426
0.0003690 0.0009808 0.0006220 0.0010950 0.0041249 -0.0165058 0.0073025 0.0033932 -0.0100147 0.0165682 -0.0001210 -0.0011615 0.0014404 -0.0007322 0.0002884 -0.0008554 -0.0159050 0.0237277 -0.0036394 0.0196731
0.0004177 0.0010353 0.0006372 0.0009939 0.0106578 -0.0104410 0.0041264 -0.0043761 -0.0053492 0.0085073 -0.0003867 -0.0007617 0.0014322 -0.0004096 0.0002906 -0.0008237 -0.0018031 0.0023678 -0.0026890 0.0197967
0.0004464 0.0011063 0.0006349 0.0009412 0.0132478 -0.0198399 0.0032566 -0.0127692 0.0062167 0.0065226 0.0001735 -0.0008562 0.0012950 -0.0001607 0.0003075 -0.0007355 0.0108602 -0.0072556 -0.0000919 -0.0049606
0.0004511 0.0011463 0.0006285 0.0009197 0.0093998 -0.0088397 -0.0014732 -0.0008910 0.0046227 0.0122031 0.0005861 -0.0005124 0.0010497 0.0002060 0.0003257 -0.0006386 0.0038213 0.0043544 -0.0042471 0.0082550
0.0004538 0.0012012 0.0006235 0.0009329 0.0106580 -0.0137707 0.0065833 0.0019241 0.0034321 -0.0023800 0.0012218 -0.0006355 0.0011279 0.0002786 0.0003110 -0.0005946 -0.0060939 0.0075523 -0.0091728 0.0217930
0.0004589 0.0011926 0.0006165 0.0008721 0.0075310 -0.0174031 0.0086475 -0.0033839 -0.0032694 0.0013412 0.0010050 -0.0006296 0.0012190 0.0000711 0.0003226 -0.0007100 -0.0037940 -0.0044512 0.0021732 0.0093393
0.0004678 0.0010584 0.0006156 0.0007043 -0.0017748 0.0086487 -0.0035916 0.0120645 -0.0024694 -0.0053109 0.0004326 -0.0008080 0.0013349 -0.0002540 0.0003522 -0.0008690 -0.0052578 0.0047648 0.0073387 0.0003034
0.0004673 0.0009340 0.0006142 0.0005815 -0.0021523 0.0104258 -0.0044085 0.0114679 0.0120179 -0.0073438 0.0003914 -0.0010230 0.0014367 -0.0004164 0.0003559 -0.0009004 -0.0040339 0.0059895 -0.0052594 0.0152418
0.0004643 0.0009074 0.0006064 0.0005489 -0.0015235 0.0045730 0.0018109 -0.0087075 0.0062432 0.0062789 0.0003295 -0.0006411 0.0011985 -0.0001161 0.0003478 -0.0008326 0.0102735 -0.0254417 -0.0018457 0.0081321
0.0004604 0.0009376 0.0005990 0.0005526 0.0010298 -0.0036285 -0.0019405 -0.0052451 -0.0023393 0.0108326 0.0007320 -0.0006831 0.0010091 0.0001093 0.0003538 -0.0007337 0.0071983 -0.0146800 0.0096772 -0.0219637
0.0004526 0.0009919 0.0005911 0.0005800 0.0100306 -0.0076363 -0.0009296 -0.0068797 -0.0064381 0.0120758 0.0016327 -0.0012598 0.0010073 0.0003586 0.0003431 -0.0006280 0.0046133 -0.0063882 0.0090679 -0.0227647
0.0004458 0.0010593 0.0005812 0.0006199 0.0005632 0.0105632 -0.0109353 0.0202506 -0.0187050 0.0191366 0.0017249 -0.0008940 0.0010817 0.0005206 0.0003489 -0.0006384 0.0061370 0.0042201 0.0048482 -0.0050487
0.0004386 0.0010079 0.0005774 0.0005653 -0.0089238 0.0177410 -0.0121197 0.0252410 -0.0093782 0.0121929 0.0015760 -0.0010991 0.0013931 0.0000305 0.0003696 -0.0007811 0.0055238 0.0029064 0.0067891 -0.0102208
0.0004190 0.0007969 0.0005698 0.0004350 -0.0053651 0.0050725 0.0046215 0.0039607 -0.0023005 -0.0107523 0.0012682 -0.0015189 0.0017075 -0.0004288 0.0003676 -0.0008719 0.0022752 -0.0101301 0.0049542 -0.0075137
0.0003936 0.0006400 0.0005620 0.0003720 -0.0082014 0.0081475 -0.0047094 0.0239918 -0.0207855 0.0197502 0.0002186 -0.0004006 0.0016330 -0.0002704 0.0003547 -0.0008912 -0.0170197 0.0236953 0.0001588 0.0114880
0.0003589 0.0005820 0.0005548 0.0003754 -0.0080264 0.0210993 -0.0177339 0.0375459 -0.0143814 0.0269028 0.0001384 -0.0001720 0.0014128 -0.0000267 0.0003289 -0.0009137 -0.0156157 0.0253935 0.0020391 0.0038444
0.0003052 0.0005412 0.0005345 0.0004029 0.0007867 0.0055814 -0.0163947 0.0274449 0.0021194 0.0170379 0.0004126 -0.0002821 0.0012303 0.0001170 0.0003052 -0.0008252 0.0003088 0.0125018 -0.0005812 -0.0097423
0.0002701 0.0005602 0.0005193 0.0004606 0.0035566 -0.0014583 -0.0109580 0.0096099 0.0062449 0.0065488 0.0007865 -0.0003113 0.0009530 0.0003995 0.0002812 -0.0006867 0.0000386 0.0151409 -0.0041208 -0.0056273
0.0002287 0.0005864 0.0005097 0.0005580 0.0021180 -0.0000551 0.0029459 0.0019911 0.0090318 -0.0214599 0.0014619 -0.0008593 0.0010164 0.0002965 0.0002611 -0.0006727 -0.0042548 0.0049912 0.0009227 -0.0054998
0.0001783 0.0004855 0.0005072 0.0005759 0.0006100 -0.0092608 0.0051703 -0.0004809 -0.0065411 -0.0027177 0.0009532 -0.0007350 0.0012344 0.0000035 0.0002584 -0.0007788 -0.0043347 -0.0023326 0.0068858 -0.0051920
0.0001482 0.0002979 0.0005112 0.0005066 -0.0091033 0.0090853 0.0020299 -0.0053782 -0.0075050 -0.0039429 0.0001722 -0.0004764 0.0013559 -0.0001500 0.0003035 -0.0007380 0.0013972 -0.0160685 0.0091140 -0.0096299
0.0001118 0.0001766 0.0005019 0.0005060 -0.0020684 0.0021338 0.0001232 -0.0019106 0.0039463 -0.0028265 0.0001791 -0.0005599 0.0014313 -0.0002445 0.0003464 -0.0005689 0.0172733 -0.0473498 0.0070073 -0.0181870
0.0000737 0.0001541 0.0004902 0.0006033 -0.0016270 0.0065453 0.0022496 -0.0103970 0.0053497 -0.0018173 0.0002858 -0.0004523 0.0010689 0.0001767 0.0003124 -0.0004865 0.0138578 -0.0272711 0.0094006 -0.0262546
0.0000366 0.0001719 0.0004901 0.0007304 -0.0035253 0.0088016 -0.0041141 0.0011184 0.0021568 -0.0051577 0.0007794 -0.0008660 0.0006959 0.0005765 0.0002919 -0.0003974 0.0143719 -0.0294680 0.0083568 -0.0267417
0.0000092 0.0002242 0.0004969 0.0008915 0.0045610 0.0000884 -0.0084679 0.0089320 -0.0057783 0.0051278 0.0015062 -0.0013432 0.0007102 0.0006733 0.0002676 -0.0002738 0.0111688 -0.0218745 0.0070593 -0.0257195
-0.0000028 0.0003098 0.0005093 0.0010540 0.0049507 -0.0024706 -0.0100959 0.0183466 -0.0069643 0.0057202 0.0013587 -0.0008751 0.0009195 0.0007201 0.0002385 -0.0002481 0.0031916 0.0125804 0.0126930 -0.0359702
-0.0000037 0.0002955 0.0005149 0.0010889 -0.0009843 -0.0039579 -0.0001561 0.0036703 -0.0004858 -0.0114604 0.0009552 -0.0007999 0.0011439 0.0004589 0.0002673 -0.0003789 0.0001092 0.0137970 0.0057344 -0.0173984
-0.0000055 0.0001959 0.0005176 0.0010699 0.0012728 -0.0028540 0.0076185 -0.0028546 -0.0007592 -0.0080342 0.0006400 -0.0009099 0.0013015 0.0001531 0.0002707 -0.0004565 -0.0005118 -0.0065679 -0.0066096 0.0127619
-0.0000068 0.0001851 0.0005236 0.0010936 0.0005780 -0.0002375 0.0001172 0.0104968 -0.0041659 0.0021664 0.0000496 -0.0002231 0.0012618 0.0002747 0.0002600 -0.0004203 -0.0065798 0.0081739 -0.0052800 0.0197931
0.0000072 0.0002883 0.0005300 0.0011437 0.0039264 0.0010279 0.0027384 -0.0080894 0.0034769 -0.0042485 0.0000397 0.0000545 0.0011120 0.0005669 0.0002440 -0.0003504 0.0028970 -0.0088686 -0.0029594 0.0164967
0.0000192 0.0004194 0.0005351 0.0012083 0.0018884 0.0075242 -0.0058847 0.0057106 0.0033559 0.0121463 0.0005128 -0.0000662 0.0009821 0.0007994 0.0002116 -0.0002750 0.0113890 -0.0143795 -0.0022278 0.0048727
0.0000202 0.0005305 0.0005398 0.0012733 -0.0007310 0.0031657 -0.0128317 0.0198635 0.0003427 0.0089452 0.0011094 -0.0002528 0.0008962 0.0010737 0.0002103 -0.0002208 0.0081348 -0.0062291 -0.0005875 0.0022632
0.0000298 0.0005857 0.0005420 0.0012893 0.0047642 -0.0138134 0.0003819 0.0121358 -0.0061170 0.0001329 0.0014816 -0.0004370 0.0010553 0.0010039 0.0002364 -0.0003060 0.0082533 -0.0224048 -0.0071289 0.0099073
0.0000343 0.0005173 0.0005405 0.0012205 -0.0018521 -0.0027382 -0.0001973 0.0113384 -0.0155355 0.0163444 0.0005985 0.0000239 0.0012569 0.0006532 0.0002589 -0.0004684 0.0023099 -0.0095307 -0.0009514 0.0035043
0.0000279 0.0004339 0.0005411 0.0011583 -0.0095375 0.0046763 -0.0084793 0.0105478 -0.0071710 0.0000851 0.0000219 0.0000351 0.0013429 0.0004889 0.0002633 -0.0004834 0.0084432 -0.0238324 0.0057756 -0.0081856
0.0000294 0.0004401 0.0005379 0.0011560 -0.0105114 0.0013929 -0.0067264 -0.0018489 0.0083198 -0.0104635 0.0001776 -0.0001256 0.0013016 0.0006156 0.0002551 -0.0004036 0.0089420 -0.0185410 -0.0036175 -0.0060305
0.0000318 0.0004996 0.0005352 0.0011867 -0.0077611 0.0005573 0.0003477 -0.0146202 0.0047745 0.0059143 0.0000334 0.0005067 0.0010313 0.0010353 0.0002504 -0.0003169 0.0083706 -0.0108255 -0.0077251 0.0197129
0.0000274 0.0005815 0.0005271 0.0012474 0.0043186 -0.0136541 0.0077825 -0.0208206 -0.0001070 0.0038045 0.0008180 0.0000809 0.0008950 0.0012964 0.0002422 -0.0002215 0.0066193 -0.0065611 -0.0044795 0.0147567
0.0000237 0.0006666 0.0005259 0.0013138 0.0064447 0.0028608 0.0063291 -0.0234103 -0.0013914 -0.0092490 0.0015909 -0.0005344 0.0010425 0.0012732 0.0002349 -0.0001734 -0.0045431 0.0130402 -0.0083768 0.0120627
0.0000384 0.0007020 0.0005315 0.0013151 0.0025751 0.0094347 -0.0009969 -0.0020264 -0.0081637 0.0020287 0.0012916 -0.0004380 0.0011685 0.0011601 0.0002566 -0.0002847 -0.0043529 0.0171703 -0.0013753 0.0018089
0.0000536 0.0006496 0.0005345 0.0012353 0.0009017 -0.0050104 0.0031884 -0.0025948 0.0003915 -0.0029068 0.0006878 -0.0003742 0.0013529 0.0008039 0.0002592 -0.0004168 -0.0011536 0.0161221 -0.0008299 -0.0046442
0.0000572 0.0005872 0.0005443 0.0011579 -0.0122712 0.0111932 0.0065412 0.0024876 0.0095491 -0.0185687 0.0004017 -0.0004053 0.0014392 0.0005338 0.0002587 -0.0004332 0.0009488 0.0053510 -0.0142745 0.0179265
0.0000633 0.0005830 0.0005497 0.0011330 -0.0123650 0.0069743 0.0015988 0.0045530 0.0091403 -0.0191815 0.0003073 -0.0001817 0.0012685 0.0006348 0.0002769 -0.0004091 0.0093553 -0.0147078 -0.0129090 0.0180498
0.0000619 0.0006148 0.0005466 0.0011577 0.0042869 -0.0064345 -0.0022584 -0.0057202 0.0030422 -0.0021882 0.0006976 -0.0001075 0.0010312 0.0009578 0.0002681 -0.0003326 -0.0002863 -0.0017213 -0.0117970 0.0186884
0.0000516 0.0006623 0.0005390 0.0012053 0.0013158 0.0036865 -0.0143921 0.0143498 -0.0005063 0.0164993 0.0011306 -0.0002077 0.0010108 0.0011174 0.0002457 -0.0002231 0.0037279 -0.0114352 -0.0026639 0.0089815
0.0000436 0.0007176 0.0005292 0.0012575 -0.0079940 0.0102346 -0.0166767 0.0117004 0.0010529 0.0100784 0.0012840 -0.0002100 0.0012072 0.0010972 0.0002423 -0.0001568 0.0167867 -0.0388899 0.0032431 0.0114308
0.0000457 0.0007349 0.0005276 0.0012573 -0.0113247 0.0142058 0.0056783 -0.0102491 0.0016677 -0.0059835 0.0013562 -0.0005047 0.0014280 0.0009423 0.0002627 -0.0002609 -0.0002799 -0.0064731 0.0065988 -0.0009939
0.0000502 0.0006322 0.0005284 0.0011672 -0.0134810 0.0161121 0.0066900 -0.0017248 -0.0105791 0.0135163 0.0003898 -0.0000352 0.0015214 0.0006395 0.0002789 -0.0004600 0.0033140 0.0014191 0.0213606 -0.0479657
0.0000481 0.0004942 0.0005255 0.0010708 -0.0015195 -0.0019725 -0.0036986 0.0078101 -0.0102136 0.0165188 -0.0003133 0.0003275 0.0013781 0.0005606 0.0002702 -0.0005163 0.0086596 -0.0074649 0.0035300 -0.0096590
0.0000470 0.0004500 0.0005257 0.0010265 0.0055179 -0.0211537 -0.0179290 0.0119397 0.0040069 -0.0020949 0.0001522 -0.0002083 0.0012732 0.0006271 0.0002506 -0.0004573 0.0041570 -0.0029345 -0.0063679 0.0026786
0.0000422 0.0004654 0.0005248 0.0010279 -0.0034182 -0.0028357 -0.0115188 0.0044076 0.0091686 -0.0161440 0.0005689 -0.0003124 0.0010565 0.0009188 0.0002324 -0.0003814 0.0039205 -0.0004522 0.0023047 0.0019213
0.0000337 0.0004799 0.0005138 0.0010631 0.0026032 -0.0107614 -0.0017142 -0.0009155 -0.0024223 -0.0061070 0.0008922 -0.0000500 0.0008905 0.0012525 0.0002247 -0.0003127 -0.0037906 0.0082933 0.0025597 0.0053236
0.0000163 0.0004880 0.0004981 0.0011259 0.0033251 0.0052262 0.0076708 -0.0212692 -0.0001859 -0.0073110 0.0011102 -0.0001635 0.0011198 0.0011618 0.0002117 -0.0002252 -0.0134624 0.0177378 0.0047910 -0.0039467
0.0000097 0.0005274 0.0004943 0.0011735 -0.0010141 0.0122553 0.0046351 -0.0201179 0.0103860 -0.0269235 0.0006406 -0.0002032 0.0012417 0.0009965 0.0002286 -0.0002849 -0.0070236 0.0086107 0.0063208 -0.0101269
0.0000237 0.0004882 0.0005031 0.0011069 -0.0013040 0.0041357 -0.0030101 -0.0026304 0.0034039 -0.0054451 -0.0000649 -0.0000766 0.0012188 0.0008016 0.0002590 -0.0004947 -0.0048757 0.0096127 -0.0018153 -0.0021529
0.0000261 0.0003573 0.0005054 0.0009710 -0.0114761 0.0137655 -0.0031144 0.0174079 0.0045633 -0.0054331 0.0004527 -0.0008012 0.0012668 0.0004700 0.0002540 -0.0005876 0.0012727 -0.0028095 -0.0041039 0.0040573
0.0000224 0.0003019 0.0005035 0.0009044 -0.0244694 0.0085230 -0.0055334 0.0196390 0.0103467 -0.0257631 0.0009606 -0.0011208 0.0011185 0.0004885 0.0002544 -0.0005810 0.0071710 0.0014115 -0.0047247 0.0013232
0.0000176 0.0003231 0.0005029 0.0009071 -0.0014172 0.0054329 -0.0089529 0.0049468 -0.0026564 -0.0024921 0.0012583 -0.0010151 0.0010129 0.0005979 0.0002457 -0.0005432 0.0045363 0.0054582 -0.0014995 -0.0040100
0.0000002 0.0003500 0.0004894 0.0009432 0.0007304 0.0099430 -0.0077170 0.0080615 -0.0066479 0.0125243 0.0014840 -0.0010439 0.0011926 0.0004940 0.0002277 -0.0004548 0.0024514 -0.0090984 0.0062967 -0.0111985
-0.0000229 0.0003663 0.0004796 0.0010175 0.0060654 -0.0190407 -0.0062646 0.0030856 -0.0058455 0.0161343 0.0008305 -0.0003619 0.0012308 0.0006705 0.0002325 -0.0003604 -0.0034242 -0.0006069 0.0046909 0.0128718
-0.0000430 0.0003439 0.0004714 0.0010866 0.0044272 -0.0158670 0.0056125 -0.0143730 -0.0041878 0.0079601 0.0002786 -0.0002320 0.0012876 0.0006078 0.0002370 -0.0004176 -0.0098151 0.0035053 0.0049560 0.0119354
-0.0000722 0.0001840 0.0004598 0.0010921 0.0018590 -0.0101002 0.0139999 -0.0296109 0.0047641 -0.0030506 -0.0000810 -0.0005077 0.0012766 0.0003207 0.0002460 -0.0006001 0.0119254 -0.0176936 0.0090332 -0.0135800
-0.0000905 0.0000249 0.0004652 0.0010683 0.0210440 -0.0524689 0.0075347 -0.0267470 0.0045065 0.0001432 -0.0001539 -0.0003549 0.0010322 0.0004181 0.0002508 -0.0006719 0.0059088 0.0058305 -0.0115732 0.0183492
-0.0000912 0.0000096 0.0004695 0.0010682 0.0182920 -0.0421301 0.0038041 -0.0079543 0.0067169 -0.0111610 0.0004912 -0.0008192 0.0009051 0.0004493 0.0002375 -0.0006323 -0.0062290 0.0197751 -0.0071822 0.0115179
-0.0001005 0.0000450 0.0004691 0.0010997 -0.0037817 -0.0047642 0.0033763 -0.0029600 0.0050912 -0.0180735 0.0008075 -0.0009452 0.0009335 0.0004511 0.0002107 -0.0005486 -0.0057640 0.0065777 0.0104962 -0.0078056
-0.0001105 0.0000948 0.0004667 0.0011736 -0.0117558 0.0072713 0.0029842 -0.0065745 -0.0105076 0.0026690 0.0007876 -0.0006219 0.0009357 0.0007247 0.0001873 -0.0004578 -0.0047563 0.0008723 0.0021149 0.0096237
-0.0001199 0.0001606 0.0004579 0.0012716 -0.0038100 0.0150366 0.0067320 -0.0115133 -0.0003164 0.0056962 0.0006121 -0.0003261 0.0010867 0.0007798 0.0001813 -0.0003765 -0.0000743 0.0063237 -0.0078784 0.0131197
-0.0001248 0.0001843 0.0004519 0.0013066 -0.0067426 0.0206477 0.0068233 -0.0120579 0.0072358 -0.0026866 0.0001303 -0.0000928 0.0010209 0.0006911 0.0001834 -0.0004647 0.0022418 -0.0005442 -0.0040951 0.0036307
-0.0001283 0.0000743 0.0004567 0.0012260 -0.0101412 0.0166382 -0.0020175 0.0034943 0.0082272 -0.0113003 -0.0000175 -0.0006116 0.0008947 0.0004293 0.0001767 -0.0006625 0.0068105 -0.0237358 -0.0011060 0.0004158
-0.0001390 -0.0000653 0.0004608 0.0011142 0.0025233 -0.0032744 -0.0045493 0.0078296 -0.0023010 0.0053855 0.0009676 -0.0017246 0.0008526 0.0002835 0.0001854 -0.0007333 -0.0038224 -0.0037811 0.0111019 -0.0187606
-0.0001468 -0.0001090 0.0004499 0.0010691 0.0029822 -0.0035785 -0.0058700 0.0017979 -0.0147892 0.0224745 0.0012592 -0.0017978 0.0006994 0.0002902 0.0001821 -0.0007154 -0.0011528 0.0154629 0.0160240 -0.0303625
-0.0001443 -0.0000673 0.0004535 0.0010919 0.0014166 -0.0003505 -0.0019381 -0.0127036 -0.0146788 0.0165105 0.0013085 -0.0020128 0.0007798 0.0000117 0.0001591 -0.0006743 0.0045713 0.0051234 0.0060134 -0.0232917
-0.0001379 0.0000226 0.0004539 0.0011323 0.0071634 -0.0164127 0.0075459 -0.0090615 -0.0020287 -0.0097401 0.0007496 -0.0016754 0.0010462 -0.0003934 0.0001595 -0.0005844 0.0075283 -0.0247426 -0.0040842 0.0017337
-0.0001300 0.0001259 0.0004450 0.0011471 0.0032013 -0.0224534 -0.0003083 0.0119230 -0.0031274 -0.0025260 -0.0004637 -0.0002578 0.0009210 -0.0003135 0.0001577 -0.0004631 -0.0101833 0.0111996 -0.0023075 0.0187673
-0.0001128 0.0002047 0.0004439 0.0011336 0.0162878 -0.0413614 -0.0016943 0.0023514 -0.0015895 0.0037386 -0.0005508 -0.0004669 0.0006689 -0.0003349 0.0001701 -0.0005049 -0.0064273 0.0134924 0.0010902 0.0139793
-0.0001033 0.0001389 0.0004433 0.0010320 0.0079373 -0.0148296 0.0025205 -0.0186809 0.0042916 0.0109654 0.0001537 -0.0018077 0.0004952 -0.0008219 0.0001732 -0.0006957 0.0021461 0.0091683 -0.0007505 0.0018533
-0.0001007 0.0000077 0.0004469 0.0008870 -0.0035429 0.0041971 -0.0061874 -0.0021342 0.0057160 0.0044137 0.0006113 -0.0024601 0.0003114 -0.0011428 0.0001602 -0.0008176 0.0012420 0.0076795 0.0039070 -0.0121115
-0.0000986 -0.0000348 0.0004423 0.0008194 0.0002481 -0.0047564 0.0023216 0.0064843 0.0037848 -0.0113533 0.0005506 -0.0022773 0.0003862 -0.0013715 0.0001647 -0.0008142 -0.0077994 0.0077203 -0.0019765 0.0065003
-0.0000958 -0.0000035 0.0004411 0.0007975 0.0010592 -0.0103967 0.0007639 0.0143713 -0.0184500 0.0140137 -0.0002005 -0.0011685 0.0004923 -0.0014519 0.0001727 -0.0007642 0.0066479 -0.0112238 -0.0032966 0.0099725
-0.0000919 0.0000810 0.0004422 0.0008035 -0.0035613 0.0029560 -0.0069664 0.0086114 -0.0098253 0.0034735 -0.0008806 -0.0006127 0.0004936 -0.0014007 0.0001463 -0.0006514 0.0191954 -0.0354639 0.0058360 -0.0052963
-0.0000944 0.0001915 0.0004307 0.0008419 0.0005277 -0.0112670 -0.0040951 -0.0089271 0.0142754 -0.0215775 -0.0007532 -0.0009271 0.0004472 -0.0013034 0.0001325 -0.0005722 0.0151680 -0.0267744 -0.0010079 0.0029323
-0.0001046 0.0002793 0.0004273 0.0008751 -0.0042248 -0.0020735 -0.0018187 -0.0048904 0.0084018 -0.0075847 -0.0002963 -0.0012737 0.0001157 -0.0011858 0.0001402 -0.0006450 0.0147367 -0.0316282 0.0030384 -0.0000433
-0.0001135 0.0001948 0.0004317 0.0008307 -0.0055187 0.0054367 0.0073747 -0.0184214 -0.0019523 -0.0059397 0.0004964 -0.0023285 -0.0001307 -0.0013806 0.0001457 -0.0007916 0.0062805 -0.0143471 0.0057896 -0.0038620
-0.0001123 0.0000198 0.0004276 0.0007395 0.0022348 0.0093198 0.0105624 -0.0274857 -0.0044852 -0.0061667 0.0008937 -0.0032748 0.0000498 -0.0019142 0.0001442 -0.0008615 0.0006270 0.0016688 0.0015908 -0.0016600
-0.0001152 -0.0000535 0.0004205 0.0007033 0.0046526 0.0078241 0.0070944 -0.0197061 -0.0052854 -0.0070228 0.0002699 -0.0028927 0.0002340 -0.0021464 0.0001310 -0.0008295 -0.0034021 0.0080781 0.0104122 -0.0199169
-0.0001162 -0.0000342 0.0004172 0.0007198 0.0047395 -0.0125491 0.0098371 -0.0235370 0.0158208 -0.0510370 -0.0005065 -0.0021082 0.0002783 -0.0021238 0.0001366 -0.0007804 -0.0023706 0.0068072 0.0071761 -0.0168443
-0.0001207 0.0000275 0.0004156 0.0007685 -0.0118657 0.0038136 0.0047399 0.0056852 0.0166870 -0.0465598 -0.0005034 -0.0021437 0.0002425 -0.0021874 0.0001266 -0.0007125 -0.0023490 0.0055680 0.0032674 -0.0174339
-0.0001263 0.0001011 0.0004112 0.0008535 -0.0072670 0.0014987 0.0023296 0.0077224 0.0063413 -0.0188254 -0.0002387 -0.0021929 0.0000523 -0.0020621 0.0001192 -0.0006276 0.0025747 0.0070250 0.0029646 -0.0266032
-0.0001241 0.0001871 0.0004123 0.0009300 0.0044045 -0.0000301 0.0043989 -0.0214459 -0.0033842 0.0033760 0.0002835 -0.0023799 -0.0001636 -0.0018911 0.0001311 -0.0006565 0.0041625 0.0029110 -0.0056069 -0.0003847
-0.0001146 0.0001659 0.0004177 0.0008901 0.0085456 -0.0107039 -0.0046317 -0.0007536 -0.0059092 0.0155000 0.0005185 -0.0028119 0.0000039 -0.0022126 0.0001288 -0.0008104 -0.0016022 0.0026525 0.0007339 -0.0070140
-0.0000987 0.0000582 0.0004208 0.0007977 0.0048083 -0.0234223 -0.0090892 0.0025815 -0.0088578 0.0153416 -0.0000593 -0.0025730 0.0001834 -0.0024838 0.0001195 -0.0008808 -0.0127300 0.0182648 0.0050065 0.0071163
-0.0000896 0.0000327 0.0004203 0.0007667 -0.0024338 -0.0007328 -0.0015524 -0.0018958 -0.0069806 0.0028390 -0.0003956 -0.0024171 0.0003267 -0.0026101 0.0001178 -0.0008521 -0.0063948 0.0066039 0.0051690 0.0077448
-0.0000863 0.0000796 0.0004127 0.0007938 -0.0039203 0.0057155 0.0045604 -0.0068062 0.0056049 -0.0058759 -0.0005967 -0.0021226 0.0001779 -0.0024685 0.0001051 -0.0007807 0.0105010 -0.0108805 0.0089110 -0.0173928
-0.0000893 0.0001354 0.0004114 0.0008576 -0.0039003 0.0084432 0.0035530 -0.0203041 0.0037881 -0.0013798 -0.0005213 -0.0016284 -0.0002685 -0.0019995 0.0000896 -0.0007118 0.0042214 0.0053296 -0.0041131 -0.0038034
-0.0000956 0.0002016 0.0004088 0.0009199 0.0023726 -0.0012216 0.0057250 -0.0129952 0.0037290 -0.0090909 0.0003166 -0.0020891 -0.0003507 -0.0018916 0.0000820 -0.0006383 -0.0071232 0.0135295 -0.0082912 -0.0023106
-0.0000924 0.0002698 0.0004076 0.0009615 0.0054112 -0.0082470 0.0080626 -0.0139583 0.0035412 -0.0135479 0.0001398 -0.0020479 -0.0001308 -0.0020609 0.0000862 -0.0007078 -0.0106067 0.0086597 0.0037360 -0.0007092
-0.0000813 0.0002088 0.0004109 0.0009092 -0.0007778 0.0060548 0.0008637 -0.0022589 -0.0073503 0.0049367 -0.0004573 -0.0020855 0.0001133 -0.0024001 0.0000913 -0.0009442 -0.0045835 -0.0023682 0.0010587 0.0069471
-0.0000741 0.0000362 0.0004146 0.0007906 -0.0021681 0.0096091 0.0054079 -0.0081110 0.0053824 -0.0030202 -0.0005147 -0.0023957 0.0002549 -0.0027384 0.0000999 -0.0010780 0.0054161 -0.0107800 -0.0037561 -0.0071257
-0.0000688 -0.0000417 0.0004165 0.0007363 -0.0029697 0.0058706 0.0058715 -0.0105635 0.0110309 -0.0100953 -0.0009398 -0.0018659 -0.0001070 -0.0024416 0.0001124 -0.0010632 0.0043218 -0.0091093 -0.0040450 -0.0018479
-0.0000673 -0.0000221 0.0004131 0.0007521 0.0005929 -0.0104696 -0.0107990 0.0153039 0.0049878 -0.0073748 -0.0005128 -0.0022538 -0.0004199 -0.0022247 0.0000795 -0.0009737 0.0016417 -0.0060239 0.0010828 -0.0039445
-0.0000702 0.0000214 0.0004139 0.0008000 0.0075964 -0.0143301 -0.0075350 0.0052768 0.0021511 -0.0113197 0.0005215 -0.0029687 -0.0004133 -0.0021700 0.0000854 -0.0009064 -0.0039059 0.0044393 0.0074422 -0.0137625
-0.0000789 0.0000723 0.0004065 0.0008661 0.0064183 -0.0085648 -0.0029893 -0.0004649 -0.0120111 0.0072246 0.0003733 -0.0024146 -0.0002357 -0.0020406 0.0000880 -0.0008161 -0.0019599 0.0221023 0.0085427 -0.0148523
-0.0000842 0.0001345 0.0004047 0.0009224 0.0073197 -0.0204983 -0.0052528 0.0017316 -0.0055103 -0.0032793 -0.0000108 -0.0020307 0.0000527 -0.0022145 0.0000651 -0.0008453 0.0002387 0.0184840 0.0127489 -0.0280801
-0.0000687 0.0000918 0.0004137 0.0008627 0.0031497 -0.0165802 0.0038092 0.0036774 0.0076136 -0.0321826 -0.0001765 -0.0025329 0.0003651 -0.0026366 0.0000920 -0.0010697 0.0048535 -0.0087042 -0.0004773 -0.0026236
-0.0000529 -0.0000984 0.0004180 0.0007166 0.0036536 -0.0177475 0.0019515 0.0089608 0.0030954 -0.0179038 -0.0004436 -0.0026839 0.0003706 -0.0026706 0.0000969 -0.0011914 0.0046582 -0.0053289 -0.0103156 0.0197617
-0.0000503 -0.0002162 0.0004162 0.0006416 0.0037863 -0.0011559 -0.0080992 0.0062849 0.0065340 -0.0169233 -0.0001325 -0.0026653 0.0000871 -0.0022302 0.0000764 -0.0011537 -0.0005638 -0.0003885 -0.0119903 0.0262915
-0.0000568 -0.0002222 0.0004131 0.0006391 0.0019015 0.0086221 -0.0279393 0.0240383 -0.0009230 0.0134751 0.0005496 -0.0027930 0.0000667 -0.0021209 0.0000691 -0.0010617 -0.0054290 0.0048934 -0.0054932 0.0173678
-0.0000620 -0.0001947 0.0004140 0.0006733 -0.0036202 0.0108708 -0.0089481 0.0026799 -0.0026108 0.0179397 0.0005405 -0.0025259 0.0002172 -0.0020775 0.0000577 -0.0009511 -0.0082242 0.0169600 0.0061092 0.0075832
-0.0000704 -0.0001447 0.0004114 0.0007510 -0.0089522 0.0060521 0.0089425 -0.0073427 -0.0015688 0.0018691 0.0002788 -0.0021332 0.0004426 -0.0018817 0.0000774 -0.0008691 -0.0081597 0.0119540 0.0061588 -0.0000484
-0.0000741 -0.0000443 0.0004022 0.0008386 -0.0066100 -0.0023818 0.0044275 0.0051159 -0.0083006 0.0084158 -0.0006672 -0.0011892 0.0005642 -0.0018658 0.0000851 -0.0008497 0.0046876 -0.0039450 0.0030909 -0.0096607
-0.0000533 -0.0000229 0.0004024 0.0008138 -0.0022782 -0.0002084 -0.0000577 -0.0053603 -0.0042307 0.0047285 -0.0011516 -0.0009523 0.0003598 -0.0018127 0.0000663 -0.0009395 0.0083309 -0.0090415 -0.0048227 0.0107783
-0.0000431 -0.0001818 0.0004096 0.0006737 -0.0009218 -0.0028985 0.0014098 -0.0168902 0.0062244 -0.0111401 -0.0003102 -0.0021515 0.0001957 -0.0018778 0.0000691 -0.0010604 0.0009760 0.0005979 -0.0080848 0.0099142
-0.0000606 -0.0003326 0.0004135 0.0005810 -0.0021601 0.0002127 0.0012624 -0.0180481 0.0078863 -0.0144620 0.0003972 -0.0027236 0.0000782 -0.0017151 0.0000821 -0.0011056 0.0032858 -0.0042972 0.0135647 -0.0204049
-0.0000865 -0.0003960 0.0004088 0.0005762 -0.0015525 -0.0025189 0.0036631 -0.0075802 -0.0017746 -0.0083382 0.0007295 -0.0024255 0.0000746 -0.0013077 0.0001021 -0.0010333 0.0035166 -0.0156812 0.0134080 -0.0158705
-0.0001018 -0.0003926 0.0003941 0.0006081 0.0012998 0.0047315 0.0068220 -0.0096231 0.0019165 -0.0129700 0.0007864 -0.0025083 0.0004086 -0.0015444 0.0001158 -0.0008913 0.0009749 -0.0078049 -0.0033722 0.0081660
-0.0001071 -0.0003295 0.0003871 0.0006650 0.0007279 0.0070881 0.0007484 -0.0061590 0.0081932 -0.0191635 0.0000508 -0.0019939 0.0003319 -0.0014269 0.0001038 -0.0007613 0.0080357 -0.0256692 -0.0122455 0.0161086
-0.0001169 -0.0002550 0.0003861 0.0007393 -0.0055556 0.0076750 -0.0089239 0.0082094 0.0067690 -0.0145219 -0.0005710 -0.0012418 0.0001786 -0.0011144 0.0000888 -0.0007199 -0.0013272 -0.0107393 -0.0159358 0.0124194
-0.0001220 -0.0002478 0.0003915 0.0007476 -0.0028130 0.0032325 -0.0003115 -0.0016494 0.0015944 -0.0066641 0.0002218 -0.0019420 0.0002148 -0.0013082 0.0000901 -0.0008419 0.0037187 -0.0143810 -0.0023525 0.0027571
-0.0001190 -0.0003586 0.0003988 0.0006614 0.0033376 -0.0105216 -0.0010008 -0.0005827 -0.0142589 0.0124515 0.0008798 -0.0026434 0.0001404 -0.0014973 0.0000854 -0.0009797 0.0058885 0.0075451 0.0050187 -0.0114153
-0.0001194 -0.0004651 0.0004040 0.0005814 0.0055623 -0.0148537 -0.0005807 -0.0024974 -0.0136233 0.0086624 0.0011066 -0.0031779 0.0002649 -0.0016559 0.0000745 -0.0009817 0.0042610 0.0105265 0.0094143 -0.0281909
-0.0001258 -0.0004827 0.0004070 0.0005591 0.0040121 -0.0161490 0.0056887 -0.0018772 -0.0025569 -0.0073086 0.0005728 -0.0028292 0.0006116 -0.0018230 0.0000662 -0.0009252 0.0022179 -0.0018232 0.0012381 -0.0018479
-0.0001335 -0.0004448 0.0004067 0.0005887 -0.0077402 -0.0096104 0.0035044 0.0002033 -0.0126405 0.0169278 -0.0004301 -0.0015881 0.0006020 -0.0016605 0.0000687 -0.0008520 -0.0099337 0.0213495 0.0010546 0.0216862
-0.0001346 -0.0003629 0.0004029 0.0006456 0.0017779 -0.0099464 0.0050911 -0.0130412 -0.0067665 0.0074930 -0.0008134 -0.0010515 0.0004185 -0.0014441 0.0000679 -0.0007703 -0.0050355 0.0153072 0.0023402 0.0173470
-0.0001332 -0.0002667 0.0004016 0.0007152 0.0050434 -0.0090498 0.0102487 -0.0263801 0.0079757 -0.0071665 -0.0006158 -0.0011130 0.0002362 -0.0012550 0.0000557 -0.0007052 0.0073183 0.0014619 0.0041632 -0.0011651
-0.0001248 -0.0002258 0.0004060 0.0007342 -0.0013874 -0.0009597 -0.0018714 -0.0042097 0.0073584 -0.0078162 -0.0000029 -0.0016360 -0.0000027 -0.0011249 0.0000455 -0.0007741 0.0056189 0.0046826 0.0054442 -0.0053743
-0.0001218 -0.0003351 0.0004090 0.0006356 -0.0031213 0.0008770 -0.0013837 0.0098851 -0.0010494 -0.0147449 0.0005393 -0.0025744 0.0000248 -0.0014923 0.0000510 -0.0009460 -0.0031274 0.0102113 -0.0008381 0.0039346
-0.0001351 -0.0004829 0.0004116 0.0005264 -0.0029656 -0.0078723 0.0036834 0.0023343 -0.0288883 0.0251603 -0.0003827 -0.0020220 0.0002459 -0.0018944 0.0000655 -0.0010249 0.0022555 0.0039895 0.0002656 0.0046079
-0.0001371 -0.0005091 0.0004095 0.0004998 -0.0115850 0.0090386 0.0077336 -0.0231086 -0.0146498 0.0142277 -0.0012336 -0.0012437 0.0003751 -0.0019641 0.0000677 -0.0009889 0.0106596 -0.0155618 0.0112737 -0.0192121
-0.0001327 -0.0004539 0.0004100 0.0005280 -0.0066871 0.0034534 -0.0012356 -0.0204082 0.0080074 -0.0052792 -0.0009487 -0.0013235 0.0003538 -0.0018387 0.0000580 -0.0009102 0.0114533 -0.0170506 0.0021008 -0.0122537
-0.0001357 -0.0003673 0.0004137 0.0005827 -0.0055867 0.0022623 -0.0074054 -0.0015542 0.0062194 0.0007738 -0.0004699 -0.0012488 -0.0000363 -0.0014217 0.0000423 -0.0008524 0.0125394 -0.0151586 0.0012149 0.0039579
-0.0001350 -0.0002645 0.0004080 0.0006504 -0.0018290 -0.0052764 0.0017786 -0.0057463 0.0073956 -0.0183965 0.0002121 -0.0014697 -0.0002450 -0.0011310 0.0000182 -0.0007603 0.0048285 -0.0067070 0.0086228 -0.0043184
-0.0001321 -0.0001756 0.0004019 0.0007030 0.0056681 0.0006654 0.0108201 -0.0317157 0.0042667 -0.0187319 0.0007587 -0.0021480 0.0000056 -0.0014001 0.0000278 -0.0008004 -0.0031159 0.0091216 0.0046139 -0.0039417
-0.0001317 -0.0002344 0.0004070 0.0006506 0.0061676 0.0015153 0.0080590 -0.0331374 -0.0086441 0.0058691 0.0003317 -0.0025578 0.0002085 -0.0017971 0.0000499 -0.0010213 0.0003140 0.0079101 0.0058737 -0.0085507
-0.0001319 -0.0003915 0.0004137 0.0005309 0.0062500 -0.0161148 -0.0014569 -0.0033622 0.0009704 -0.0003050 -0.0002509 -0.0022717 0.0003444 -0.0020005 0.0000348 -0.0010908 -0.0024201 0.0098413 0.0016444 -0.0076672
-0.0001360 -0.0004492 0.0004157 0.0004724 -0.0144635 0.0111994 0.0043995 0.0039511 0.0099497 -0.0197645 -0.0003899 -0.0022927 0.0004022 -0.0022332 0.0000114 -0.0010552 -0.0014679 0.0009527 -0.0117583 0.0183909
-0.0001465 -0.0004157 0.0004165 0.0004950 -0.0043579 -0.0106877 0.0074648 -0.0065152 0.0185059 -0.0515578 -0.0004491 -0.0021155 0.0001521 -0.0021041 0.0000208 -0.0010315 0.0096667 -0.0113791 -0.0072448 0.0135367
-0.0001488 -0.0003326 0.0004152 0.0005547 0.0185352 -0.0297586 0.0054848 -0.0274868 0.0018943 -0.0105243 0.0000303 -0.0019718 -0.0001424 -0.0016674 0.0000119 -0.0009429 0.0013124 0.0080808 -0.0026041 0.0032642
-0.0001443 -0.0002262 0.0004117 0.0006223 0.0135404 -0.0212343 -0.0164905 0.0122353 -0.0059636 0.0202160 0.0003225 -0.0019167 0.0000330 -0.0016455 0.0000092 -0.0008277 -0.0039233 0.0107345 -0.0023665 -0.0026785
-0.0001516 -0.0001317 0.0004082 0.0007032 -0.0012647 -0.0209130 -0.0158592 0.0197543 -0.0101700 0.0197201 -0.0001607 -0.0015281 0.0002668 -0.0017772 0.0000105 -0.0007939 -0.0033129 0.0083772 -0.0008658 0.0112181
-0.0001564 -0.0001472 0.0004051 0.0007125 -0.0121892 0.0045188 -0.0000868 0.0064362 -0.0074908 -0.0070561 -0.0004739 -0.0016320 0.0003033 -0.0019384 0.0000029 -0.0009143 -0.0039995 0.0032212 -0.0008208 0.0116770
-0.0001733 -0.0003116 0.0004010 0.0006504 -0.0085903 0.0047258 0.0086946 -0.0095039 0.0038282 -0.0153306 -0.0011539 -0.0011562 0.0003065 -0.0019571 0.0000329 -0.0010031 0.0103295 -0.0112333 0.0053193 -0.0178394
-0.0002027 -0.0004344 0.0003950 0.0006458 0.0042564 -0.0152374 0.0027145 -0.0221702 -0.0005809 0.0021246 -0.0015348 -0.0006110 0.0001073 -0.0014443 0.0000754 -0.0008994 0.0024681 0.0138255 -0.0090932 0.0064923
-0.0002309 -0.0004543 0.0003999 0.0007218 0.0078636 -0.0237864 -0.0102573 0.0012226 0.0030480 -0.0027145 -0.0005596 -0.0012648 0.0000275 -0.0010812 0.0001324 -0.0006966 -0.0089858 0.0266358 -0.0186550 0.0194834
-0.0002859 -0.0004866 0.0004029 0.0008577 0.0108019 -0.0305268 0.0007323 -0.0128576 0.0142750 -0.0360396 -0.0000266 -0.0010478 0.0001046 -0.0007996 0.0001859 -0.0004966 -0.0059598 0.0078303 0.0012894 0.0065076
-0.0003443 -0.0005167 0.0003970 0.0010356 0.0028269 -0.0054091 0.0010605 -0.0050274 -0.0024357 -0.0119406 0.0001986 -0.0003262 0.0002156 -0.0004481 0.0001682 -0.0003725 0.0189304 -0.0574612 0.0065303 0.0000696
-0.0003665 -0.0004566 0.0004026 0.0011956 0.0036069 0.0071325 0.0020538 0.0017428 -0.0086217 0.0144284 0.0003940 -0.0003224 0.0004442 -0.0003691 0.0001163 -0.0003730 0.0176411 -0.0464349 -0.0054500 0.0120350
-0.0003545 -0.0004033 0.0004033 0.0012326 0.0014576 0.0090025 0.0067615 -0.0126774 -0.0022135 0.0063452 -0.0003040 -0.0002336 0.0003545 -0.0001767 0.0001175 -0.0005038 0.0035108 -0.0150532 -0.0054263 0.0055363
-0.0003382 -0.0004644 0.0003994 0.0011602 -0.0058608 0.0068441 -0.0009956 0.0009563 0.0016913 -0.0038781 -0.0010382 -0.0000676 0.0002808 -0.0002386 0.0001238 -0.0006738 -0.0022455 -0.0009683 -0.0025580 -0.0048409
-0.0003329 -0.0005143 0.0004030 0.0011167 -0.0039146 -0.0001221 -0.0060750 0.0151245 0.0010261 0.0018850 -0.0002352 -0.0008139 0.0003044 -0.0003788 0.0001332 -0.0007590 0.0065275 -0.0170756 -0.0044923 0.0086228
-0.0003340 -0.0004884 0.0004043 0.0011323 -0.0064046 0.0049811 -0.0061740 0.0156192 0.0053795 -0.0076084 0.0004245 -0.0012177 0.0001668 -0.0001627 0.0001461 -0.0007132 0.0058865 0.0051454 0.0025521 -0.0012217
-0.0003338 -0.0004184 0.0004028 0.0011791 -0.0044785 0.0099703 -0.0026960 0.0054940 0.0031278 -0.0071173 0.0004220 -0.0009046 0.0002014 -0.0000911 0.0001201 -0.0006217 -0.0004637 0.0153034 0.0021606 -0.0014045
-0.0003144 -0.0002946 0.0004258 0.0012653 -0.0060726 0.0131654 0.0036750 -0.0034195 -0.0066912 0.0072085 0.0003945 -0.0001681 0.0005910 -0.0005524 0.0003719 -0.0001277 -0.0048973 0.0041759 -0.0007911 -0.0004015
-0.0002432 -0.0000583 0.0004081 0.0011309 -0.0059062 0.0036893 -0.0055663 0.0123085 -0.0120876 0.0160680 0.0002001 0.0011952 0.0007407 -0.0008975 0.0007071 0.0004860 -0.0161060 0.0254469 -0.0009656 0.0108781
-0.0001849 0.0000376 0.0003442 0.0008370 0.0051783 -0.0084717 -0.0083395 0.0130177 -0.0011442 0.0003223 0.0000263 0.0011961 0.0006914 -0.0013575 0.0007702 0.0004615 -0.0143473 0.0218643 -0.0017373 0.0125115
-0.0001822 -0.0001363 0.0003109 0.0006244 0.0021227 -0.0051608 -0.0001350 -0.0001704 0.0071947 -0.0002918 0.0001624 0.0000934 0.0005398 -0.0018138 0.0007425 0.0002266 0.0050884 -0.0003454 -0.0064340 0.0084631
-0.0001974 -0.0003444 0.0002752 0.0004396 -0.0007228 -0.0003685 -0.0040906 0.0008289 -0.0000248 0.0133715 0.0003761 -0.0002759 0.0002191 -0.0014644 0.0006359 0.0001201 0.0019559 0.0073506 -0.0162995 0.0215793
-0.0002389 -0.0005343 0.0002454 0.0004119 0.0061831 -0.0147353 0.0018722 -0.0004492 -0.0108386 0.0116834 0.0005837 -0.0005263 0.0002082 -0.0009400 0.0004840 -0.0000009 -0.0058947 0.0114406 -0.0111956 0.0144854
-0.0002895 -0.0006479 0.0002495 0.0005455 0.0074253 -0.0206999 0.0083874 -0.0085926 -0.0159275 0.0132325 -0.0000578 0.0002072 0.0004175 -0.0004376 0.0004005 -0.0000717 -0.0045000 0.0054952 0.0002871 0.0053138
