-0.0000000 -0.0000000 -0.0000000 -0.0000000 -0.0000000 -0.0000000 -0.0000000 -0.0000000 -0.0000000 -0.0000000 -0.0000000 -0.0000000 -0.0000000 -0.0000000 -0.0000000 -0.0000000 -0.0000000 -0.0000000 -0.0000000 -0.0000000
-0.0000000 -0.0000000 -0.0000000 -0.0000000 -0.0000000 -0.0000000 -0.0000000 -0.0000000 -0.0000000 -0.0000000 -0.0000000 -0.0000000 -0.0000000 -0.0000000 -0.0000000 -0.0000000 -0.0000000 -0.0000000 -0.0000000 -0.0000000
0.0000454 -0.0002989 -0.0000251 -0.0001157 -0.0000226 -0.0002152 0.0000016 -0.0001329 0.0000065 -0.0000225 0.0000189 -0.0000378 -0.0000099 -0.0000897 -0.0000095 -0.0000430 0.0000082 -0.0000080 -0.0000017 0.0000188
0.0001876 -0.0004858 -0.0000381 -0.0001123 -0.0000279 -0.0001198 0.0000017 0.0000615 0.0000033 0.0000817 0.0000244 0.0000572 0.0000177 0.0000779 -0.0000021 0.0001158 0.0000071 0.0000977 -0.0000262 0.0001326
0.0003525 -0.0004050 -0.0000490 -0.0001396 -0.0000347 -0.0000765 -0.0000182 0.0001105 -0.0000029 0.0000903 0.0000185 0.0000332 -0.0000043 0.0000003 -0.0000139 0.0000295 -0.0000116 0.0000094 -0.0000699 -0.0001063
0.0002748 -0.0007334 -0.0000756 -0.0003960 -0.0000379 -0.0002287 -0.0000363 -0.0001027 -0.0000033 -0.0000261 -0.0000181 -0.0001145 -0.0000491 -0.0002662 -0.0000230 -0.0002194 -0.0000121 -0.0001879 -0.0000748 -0.0004117
-0.0000841 -0.0009492 -0.0000933 -0.0005778 -0.0000292 -0.0002997 -0.0000256 -0.0001178 -0.0000031 -0.0000074 -0.0000145 -0.0001748 -0.0000125 -0.0001682 0.0000019 -0.0001047 0.0000202 -0.0000711 -0.0000313 -0.0001474
-0.0000604 -0.0006621 -0.0000813 -0.0004581 -0.0000223 -0.0000993 0.0000046 0.0001373 -0.0000114 0.0001426 0.0000063 -0.0001490 0.0000002 -0.0000125 0.0000121 0.0000593 0.0000322 0.0000958 -0.0000287 0.0000208
-0.0002583 -0.0003730 -0.0001111 -0.0004424 -0.0000430 -0.0001208 -0.0000149 0.0000809 -0.0000295 0.0000736 -0.0000280 -0.0002101 -0.0000450 -0.0002188 -0.0000091 -0.0001111 0.0000259 0.0000047 -0.0000391 -0.0002325
-0.0003047 -0.0005844 -0.0001528 -0.0006645 -0.0000532 -0.0003837 -0.0000223 -0.0002449 -0.0000307 -0.0001239 -0.0000665 -0.0003599 -0.0000563 -0.0004758 -0.0000107 -0.0003398 0.0000366 -0.0001684 -0.0000188 -0.0003942
0.0002057 -0.0011440 -0.0001453 -0.0008288 -0.0000220 -0.0004021 0.0000037 -0.0002492 -0.0000260 -0.0001205 -0.0000211 -0.0004280 -0.0000049 -0.0003075 0.0000209 -0.0001877 0.0000575 -0.0000606 0.0000110 -0.0000829
0.0003649 -0.0009895 -0.0001368 -0.0007347 -0.0000032 -0.0001868 -0.0000028 0.0000327 -0.0000295 0.0000019 -0.0000144 -0.0003302 0.0000151 -0.0000664 0.0000229 0.0000371 0.0000550 0.0001344 -0.0000014 0.0003159
-0.0001633 -0.0004494 -0.0001311 -0.0005950 -0.0000123 0.0000391 -0.0000280 0.0002090 -0.0000432 0.0000202 -0.0000580 -0.0002045 -0.0000282 -0.0001005 -0.0000066 -0.0000112 0.0000270 0.0001052 -0.0000427 0.0002079
-0.0005109 -0.0003152 -0.0001213 -0.0006832 -0.0000404 -0.0001370 -0.0000487 -0.0000941 -0.0000580 -0.0001844 -0.0000828 -0.0002864 -0.0000792 -0.0003983 -0.0000306 -0.0003133 0.0000079 -0.0001432 -0.0000425 -0.0002409
-0.0005146 -0.0004480 -0.0001514 -0.0008682 -0.0000501 -0.0004515 -0.0000494 -0.0004185 -0.0000570 -0.0003110 -0.0000815 -0.0003435 -0.0000513 -0.0004015 -0.0000164 -0.0003158 0.0000227 -0.0001608 -0.0000113 -0.0001682
-0.0003512 -0.0005543 -0.0001908 -0.0008440 -0.0000368 -0.0003453 -0.0000296 -0.0002334 -0.0000506 -0.0002045 -0.0000283 -0.0002566 -0.0000001 -0.0001296 0.0000013 -0.0000702 0.0000333 0.0000341 -0.0000155 0.0002038
-0.0000241 -0.0006818 -0.0001994 -0.0006999 -0.0000397 -0.0001086 -0.0000442 0.0000733 -0.0000600 -0.0000482 -0.0000370 -0.0000977 -0.0000128 0.0000758 -0.0000246 0.0001501 0.0000107 0.0002513 -0.0000590 0.0005746
0.0002772 -0.0008057 -0.0001733 -0.0005828 -0.0000620 -0.0000225 -0.0000909 0.0001212 -0.0000790 -0.0000666 -0.0000857 -0.0000525 -0.0000794 -0.0000667 -0.0000666 0.0000108 -0.0000257 0.0001543 -0.0001013 0.0003214
0.0003142 -0.0007775 -0.0001660 -0.0006950 -0.0000828 -0.0002800 -0.0001331 -0.0002404 -0.0000851 -0.0002854 -0.0000794 -0.0002430 -0.0001318 -0.0003704 -0.0000869 -0.0003112 -0.0000394 -0.0001280 -0.0000924 -0.0001216
-0.0002683 -0.0003946 -0.0001680 -0.0008572 -0.0000592 -0.0004372 -0.0001256 -0.0004156 -0.0000758 -0.0003514 -0.0000487 -0.0003021 -0.0001065 -0.0002987 -0.0000637 -0.0002435 -0.0000188 -0.0001086 -0.0000509 0.0000529
-0.0006073 -0.0003231 -0.0001452 -0.0008212 -0.0000197 -0.0002592 -0.0000819 -0.0001950 -0.0000684 -0.0002155 -0.0000233 -0.0001616 -0.0000637 -0.0000277 -0.0000369 0.0000384 -0.0000018 0.0000808 -0.0000348 0.0004348
0.0000862 -0.0007112 -0.0001287 -0.0006303 -0.0000079 0.0000026 -0.0000689 0.0001048 -0.0000747 -0.0000267 -0.0000384 0.0000592 -0.0000693 0.0001781 -0.0000406 0.0002835 -0.0000191 0.0002460 -0.0000746 0.0005990
0.0003811 -0.0006624 -0.0001479 -0.0005013 -0.0000247 -0.0000247 -0.0000904 0.0000108 -0.0000839 -0.0001079 -0.0001027 0.0000961 -0.0001346 -0.0000467 -0.0000724 0.0000639 -0.0000445 0.0000718 -0.0001159 0.0002200
0.0002155 -0.0005702 -0.0001641 -0.0006224 -0.0000224 -0.0003550 -0.0001021 -0.0004074 -0.0000726 -0.0003699 -0.0001354 -0.0000764 -0.0001611 -0.0003372 -0.0000817 -0.0002510 -0.0000317 -0.0001745 -0.0000849 -0.0000514
0.0002278 -0.0006040 -0.0001155 -0.0007335 0.0000195 -0.0004206 -0.0000607 -0.0004675 -0.0000521 -0.0003879 -0.0001201 -0.0000779 -0.0001084 -0.0001747 -0.0000512 -0.0001289 0.0000015 -0.0000935 -0.0000349 0.0001852
-0.0000667 -0.0004392 -0.0000718 -0.0006563 0.0000513 -0.0002162 -0.0000213 -0.0002186 -0.0000441 -0.0002381 -0.0000685 0.0000498 -0.0000726 0.0000776 -0.0000425 0.0000935 0.0000128 0.0001010 -0.0000297 0.0005477
-0.0006082 -0.0000662 -0.0000648 -0.0004414 0.0000515 0.0000493 -0.0000321 0.0000933 -0.0000552 -0.0000463 -0.0000330 0.0002029 -0.0000960 0.0002533 -0.0000581 0.0002446 -0.0000046 0.0002361 -0.0000727 0.0006297
-0.0005909 0.0002188 -0.0000659 -0.0003248 0.0000181 -0.0000003 -0.0000519 -0.0000335 -0.0000661 -0.0001581 -0.0000717 0.0001511 -0.0001584 0.0000153 -0.0000875 -0.0000234 -0.0000248 0.0000309 -0.0000946 0.0001765
-0.0000451 -0.0002186 -0.0001002 -0.0004778 0.0000059 -0.0003621 -0.0000449 -0.0005292 -0.0000574 -0.0004467 -0.0001102 -0.0000358 -0.0001652 -0.0002816 -0.0000857 -0.0003241 -0.0000067 -0.0002177 -0.0000579 -0.0000924
0.0002040 -0.0005882 -0.0001200 -0.0005902 0.0000399 -0.0004289 -0.0000161 -0.0005858 -0.0000447 -0.0004557 -0.0000677 -0.0000489 -0.0000945 -0.0001043 -0.0000418 -0.0001803 0.0000312 -0.0001342 -0.0000260 0.0001706
0.0002161 -0.0003883 -0.0000825 -0.0004912 0.0000670 -0.0001903 0.0000060 -0.0003106 -0.0000441 -0.0003087 -0.0000503 0.0000998 -0.0000656 0.0001650 -0.0000279 0.0000661 0.0000410 0.0000771 -0.0000169 0.0005433
0.0001151 -0.0001646 -0.0000190 -0.0002920 0.0000783 0.0001246 -0.0000184 0.0000091 -0.0000589 -0.0001179 -0.0000598 0.0002763 -0.0000923 0.0003726 -0.0000405 0.0003099 0.0000166 0.0002867 -0.0000459 0.0007377
-0.0000791 0.0001097 0.0000097 -0.0001748 0.0000648 0.0001356 -0.0000661 -0.0000944 -0.0000824 -0.0002359 -0.0000732 0.0002313 -0.0001478 0.0001662 -0.0000726 0.0000896 -0.0000106 0.0001112 -0.0000798 0.0003340
-0.0003405 0.0002080 0.0000008 -0.0002947 0.0000553 -0.0002010 -0.0000669 -0.0006151 -0.0000867 -0.0005528 -0.0000774 0.0000404 -0.0001528 -0.0001242 -0.0000759 -0.0002649 0.0000037 -0.0001944 -0.0000448 -0.0000625
-0.0003344 0.0001566 -0.0000124 -0.0003936 0.0000779 -0.0002972 -0.0000156 -0.0007394 -0.0000680 -0.0005723 -0.0000440 0.0000367 -0.0000744 0.0000647 -0.0000245 -0.0001356 0.0000422 -0.0001351 -0.0000033 0.0001495
0.0003407 0.0000132 0.0000019 -0.0002899 0.0001020 -0.0000793 0.0000096 -0.0004514 -0.0000563 -0.0003940 -0.0000182 0.0001971 -0.0000184 0.0003538 0.0000013 0.0001223 0.0000544 0.0000754 -0.0000096 0.0005424
0.0006813 -0.0002340 0.0000391 -0.0000766 0.0001027 0.0002196 -0.0000064 -0.0000955 -0.0000583 -0.0001690 0.0000037 0.0004006 -0.0000312 0.0005805 -0.0000264 0.0003992 0.0000295 0.0003300 -0.0000628 0.0009007
0.0003797 0.0000814 0.0000834 0.0001188 0.0000776 0.0003275 -0.0000433 0.0000054 -0.0000565 -0.0001354 -0.0000128 0.0004579 -0.0000994 0.0004490 -0.0000720 0.0002383 -0.0000089 0.0002133 -0.0001151 0.0005984
0.0000941 0.0005205 0.0001104 0.0000517 0.0000648 0.0000570 -0.0000544 -0.0003337 -0.0000444 -0.0003128 -0.0000355 0.0003329 -0.0001406 0.0001382 -0.0000896 -0.0001394 -0.0000167 -0.0000988 -0.0000960 0.0001198
-0.0003099 0.0005101 0.0000996 -0.0000977 0.0000757 -0.0000935 -0.0000159 -0.0004802 -0.0000329 -0.0003305 -0.0000429 0.0003446 -0.0000923 0.0002332 -0.0000642 -0.0000587 0.0000081 -0.0000588 -0.0000630 0.0002943
-0.0004523 0.0003190 0.0000821 -0.0000535 0.0000815 0.0001035 0.0000145 -0.0002106 -0.0000314 -0.0001645 -0.0000461 0.0004802 -0.0000563 0.0004931 -0.0000527 0.0002057 0.0000147 0.0001547 -0.0000725 0.0006802
0.0000643 0.0001273 0.0000906 0.0001297 0.0000727 0.0003924 -0.0000083 0.0001473 -0.0000458 0.0000375 -0.0000413 0.0006150 -0.0000778 0.0006344 -0.0000626 0.0003415 -0.0000121 0.0002639 -0.0001232 0.0007133
0.0005101 0.0001286 0.0000793 0.0001905 0.0000421 0.0003255 -0.0000671 0.0000343 -0.0000616 -0.0000547 -0.0000647 0.0005752 -0.0001378 0.0004283 -0.0000881 0.0001265 -0.0000402 0.0000833 -0.0001510 0.0003284
0.0002681 0.0001745 0.0000679 0.0000300 0.0000348 0.0000356 -0.0000867 -0.0003630 -0.0000615 -0.0002745 -0.0000743 0.0004540 -0.0001585 0.0002521 -0.0001015 -0.0000293 -0.0000355 -0.0000480 -0.0001178 0.0002396
-0.0000714 0.0001679 0.0000948 -0.0000469 0.0000530 0.0000686 -0.0000568 -0.0003084 -0.0000556 -0.0002289 -0.0000134 0.0004762 -0.0001168 0.0004612 -0.0000823 0.0001722 -0.0000164 0.0000935 -0.0000948 0.0005463
-0.0003472 0.0005532 0.0001091 0.0000833 0.0000551 0.0003081 -0.0000544 -0.0000046 -0.0000598 -0.0000690 -0.0000073 0.0006033 -0.0001067 0.0006855 -0.0000843 0.0004362 -0.0000215 0.0003010 -0.0001241 0.0008167
-0.0003580 0.0007967 0.0000840 0.0001962 0.0000349 0.0003257 -0.0000697 -0.0000153 -0.0000673 -0.0001072 -0.0000437 0.0005508 -0.0001439 0.0005183 -0.0001096 0.0002583 -0.0000393 0.0001522 -0.0001523 0.0004676
0.0000174 0.0003580 0.0000556 0.0000549 0.0000154 0.0000141 -0.0000568 -0.0004343 -0.0000607 -0.0003412 -0.0000374 0.0003362 -0.0001676 0.0002220 -0.0001125 -0.0001042 -0.0000298 -0.0001561 -0.0001141 0.0000200
0.0003959 -0.0000742 0.0000458 -0.0001085 0.0000365 -0.0001089 -0.0000261 -0.0005651 -0.0000436 -0.0003829 -0.0000328 0.0002958 -0.0001157 0.0003410 -0.0000676 -0.0000230 0.0000065 -0.0001296 -0.0000611 0.0001667
0.0005408 0.0000036 0.0000624 -0.0000799 0.0000668 0.0000626 -0.0000276 -0.0002961 -0.0000360 -0.0002488 -0.0000543 0.0003979 -0.0000692 0.0005893 -0.0000353 0.0002185 0.0000273 0.0000542 -0.0000625 0.0004711
0.0000847 0.0004432 0.0000902 -0.0000206 0.0000616 0.0001379 -0.0000435 -0.0002522 -0.0000389 -0.0002843 -0.0000808 0.0002939 -0.0001017 0.0004477 -0.0000375 0.0000803 0.0000239 -0.0000592 -0.0000675 0.0001876
-0.0002824 0.0003763 0.0000978 -0.0001920 0.0000535 -0.0001126 -0.0000212 -0.0006550 -0.0000328 -0.0005284 -0.0000696 -0.0000066 -0.0001219 0.0001236 -0.0000237 -0.0002553 0.0000428 -0.0003623 -0.0000121 -0.0003018
0.0002110 -0.0002081 0.0000820 -0.0003897 0.0000824 -0.0002779 0.0000356 -0.0008682 -0.0000162 -0.0005971 -0.0000513 -0.0000934 -0.0000521 0.0001914 0.0000302 -0.0002093 0.0000912 -0.0003668 0.0000458 -0.0001861
0.0002830 -0.0001318 0.0000500 -0.0003352 0.0001083 -0.0001055 0.0000787 -0.0006643 -0.0000047 -0.0004707 -0.0000327 -0.0000625 0.0000185 0.0004278 0.0000744 0.0000185 0.0001212 -0.0001870 0.0000514 0.0001658
0.0001630 0.0000405 0.0000457 -0.0002019 0.0001049 0.0000984 0.0000753 -0.0005142 -0.0000013 -0.0004625 -0.0000376 -0.0001211 0.0000138 0.0003385 0.0000845 -0.0000854 0.0001190 -0.0002698 0.0000308 -0.0000532
0.0004139 -0.0002264 0.0000848 -0.0003390 0.0000992 -0.0001041 0.0000586 -0.0008364 0.0000007 -0.0006842 -0.0000561 -0.0003195 -0.0000079 0.0000042 0.0000992 -0.0004352 0.0001332 -0.0005845 0.0000526 -0.0005780
0.0002930 -0.0003309 0.0000900 -0.0006037 0.0001302 -0.0003783 0.0000823 -0.0011406 0.0000200 -0.0007972 -0.0000635 -0.0004352 0.0000668 0.0000328 0.0001611 -0.0004318 0.0001804 -0.0006293 0.0001133 -0.0005332
-0.0002596 -0.0000337 0.0000802 -0.0006041 0.0001691 -0.0002422 0.0001270 -0.0009347 0.0000393 -0.0006543 -0.0000545 -0.0003903 0.0001617 0.0003358 0.0002216 -0.0001564 0.0002128 -0.0004443 0.0001466 -0.0001839
-0.0003930 0.0002265 0.0000846 -0.0004395 0.0001766 0.0000394 0.0001514 -0.0005850 0.0000404 -0.0004433 -0.0000640 -0.0003477 0.0001718 0.0004451 0.0002389 -0.0000249 0.0002094 -0.0003536 0.0001183 -0.0001487
-0.0000037 -0.0000418 0.0000640 -0.0004409 0.0001593 -0.0000505 0.0001437 -0.0007388 0.0000360 -0.0005605 -0.0000875 -0.0005504 0.0001224 0.0001172 0.0002328 -0.0002912 0.0002035 -0.0005792 0.0001053 -0.0005967
0.0002827 -0.0004168 0.0000296 -0.0006275 0.0001680 -0.0003911 0.0001542 -0.0011738 0.0000461 -0.0008297 -0.0000857 -0.0007958 0.0001532 -0.0000821 0.0002632 -0.0004362 0.0002316 -0.0007483 0.0001569 -0.0007246
0.0003882 -0.0004209 0.0000436 -0.0006585 0.0002114 -0.0003525 0.0001913 -0.0011282 0.0000662 -0.0007892 -0.0000881 -0.0008055 0.0002152 0.0000987 0.0003142 -0.0002099 0.0002611 -0.0006086 0.0001881 -0.0003669
0.0003701 -0.0003585 0.0000973 -0.0005234 0.0002339 -0.0000544 0.0002032 -0.0008066 0.0000681 -0.0005875 -0.0001075 -0.0007105 0.0002095 0.0002685 0.0003225 0.0000689 0.0002580 -0.0003568 0.0001811 0.0000970
0.0001354 -0.0000988 0.0001270 -0.0002810 0.0002265 0.0003208 0.0001816 -0.0003661 0.0000573 -0.0004066 -0.0001240 -0.0006891 0.0001730 0.0002750 0.0003004 0.0001078 0.0002300 -0.0003176 0.0001363 0.0000130
-0.0002357 0.0001669 0.0001211 -0.0002521 0.0001939 0.0001848 0.0001471 -0.0005213 0.0000524 -0.0005491 -0.0001454 -0.0008814 0.0001046 -0.0000532 0.0002647 -0.0001854 0.0002100 -0.0005468 0.0001136 -0.0004369
-0.0003099 0.0001896 0.0000915 -0.0004027 0.0001790 -0.0001707 0.0001641 -0.0009059 0.0000585 -0.0007033 -0.0001565 -0.0010358 0.0001279 -0.0001025 0.0002778 -0.0002078 0.0002266 -0.0005775 0.0001295 -0.0003763
0.0003864 -0.0000650 0.0000738 -0.0003798 0.0001826 -0.0000799 0.0001897 -0.0007179 0.0000625 -0.0005538 -0.0001141 -0.0009231 0.0002092 0.0002429 0.0003184 0.0000924 0.0002407 -0.0003535 0.0001205 0.0000129
0.0007674 -0.0004259 0.0000845 -0.0002372 0.0001671 0.0001807 0.0001656 -0.0003495 0.0000532 -0.0003280 -0.0000820 -0.0005674 0.0002101 0.0005002 0.0003231 0.0003640 0.0002180 -0.0001426 0.0000709 0.0001982
0.0004662 -0.0002224 0.0001010 -0.0001600 0.0001346 0.0001543 0.0001152 -0.0003657 0.0000409 -0.0003765 -0.0001398 -0.0004102 0.0001185 0.0002830 0.0002811 0.0001870 0.0001867 -0.0002763 0.0000334 -0.0001240
0.0001552 0.0001998 0.0001129 -0.0002864 0.0001165 -0.0001420 0.0000957 -0.0007171 0.0000390 -0.0005779 -0.0001834 -0.0005275 0.0000791 0.0000269 0.0002580 -0.0000546 0.0001872 -0.0004671 0.0000588 -0.0003394
-0.0002766 0.0002160 0.0000992 -0.0003816 0.0001233 -0.0001726 0.0001417 -0.0007485 0.0000440 -0.0005400 -0.0001293 -0.0004988 0.0001595 0.0002848 0.0002866 0.0001559 0.0002050 -0.0003430 0.0000842 -0.0000873
-0.0004486 0.0000880 0.0000807 -0.0002739 0.0001260 0.0000371 0.0001578 -0.0004646 0.0000448 -0.0003636 -0.0001076 -0.0002460 0.0001992 0.0005895 0.0002984 0.0004551 0.0002004 -0.0001256 0.0000691 0.0001650
0.0000717 -0.0000726 0.0000855 -0.0001884 0.0001008 0.0000404 0.0001249 -0.0004587 0.0000377 -0.0004039 -0.0001057 -0.0002498 0.0001306 0.0003828 0.0002686 0.0002679 0.0001804 -0.0002568 0.0000494 -0.0001777
0.0005649 -0.0002760 0.0000546 -0.0003234 0.0000802 -0.0002800 0.0001036 -0.0008774 0.0000410 -0.0006442 -0.0001136 -0.0005069 0.0001059 0.0000705 0.0002650 -0.0000859 0.0001876 -0.0005444 0.0000746 -0.0006211
0.0003792 -0.0003506 0.0000409 -0.0004789 0.0001017 -0.0004148 0.0001212 -0.0010174 0.0000605 -0.0006537 -0.0000998 -0.0005910 0.0001667 0.0001803 0.0003023 -0.0000061 0.0002184 -0.0005014 0.0001142 -0.0004833
0.0000472 -0.0002165 0.0000995 -0.0004443 0.0001336 -0.0002305 0.0001561 -0.0008192 0.0000672 -0.0004900 -0.0000556 -0.0005161 0.0001775 0.0003476 0.0003165 0.0001853 0.0002323 -0.0003005 0.0001200 -0.0001989
-0.0002938 0.0003465 0.0001601 -0.0003462 0.0001670 -0.0001444 0.0001467 -0.0008624 0.0000868 -0.0004841 -0.0000725 -0.0005330 0.0001349 0.0001670 0.0003028 -0.0000249 0.0002428 -0.0003687 0.0001271 -0.0004756
-0.0003492 0.0005716 0.0001735 -0.0003834 0.0002444 -0.0002693 0.0001392 -0.0012808 0.0001296 -0.0006412 -0.0000628 -0.0005585 0.0001240 -0.0001610 0.0003032 -0.0004124 0.0002858 -0.0005695 0.0002119 -0.0008026
-0.0000044 0.0003408 0.0002241 -0.0003691 0.0003717 -0.0001833 0.0001669 -0.0015355 0.0001643 -0.0006503 -0.0000283 -0.0004432 0.0001502 -0.0001855 0.0003247 -0.0004334 0.0003539 -0.0004197 0.0003192 -0.0004428
0.0003534 0.0004340 0.0003297 -0.0000897 0.0004743 0.0002067 0.0001836 -0.0013681 0.0001769 -0.0004752 -0.0000044 -0.0001990 0.0001743 -0.0000238 0.0003467 -0.0002649 0.0003942 -0.0001268 0.0003688 0.0000110
0.0005713 0.0009082 0.0004388 0.0002494 0.0005115 0.0004442 0.0001317 -0.0014004 0.0001315 -0.0006466 0.0000661 -0.0000854 0.0001498 -0.0001368 0.0005137 0.0002263 0.0004162 -0.0001229 0.0005140 0.0002554
0.0002863 0.0012050 0.0005003 0.0002686 0.0005240 0.0002122 0.0001010 -0.0018764 0.0000843 -0.0010514 0.0000945 -0.0001106 0.0001389 -0.0004477 0.0006231 0.0002950 0.0004507 -0.0003252 0.0006670 0.0000979
0.0000193 0.0010588 0.0005336 0.0001942 0.0005443 -0.0000327 0.0001510 -0.0020996 0.0001018 -0.0010563 0.0000969 -0.0000181 0.0001683 -0.0005142 0.0005890 0.0000437 0.0004920 -0.0002756 0.0007169 0.0000773
0.0003919 0.0008708 0.0005713 0.0004118 0.0005164 0.0000081 0.0001990 -0.0018538 0.0001027 -0.0008777 0.0001427 0.0000674 0.0002001 -0.0003394 0.0006115 0.0002539 0.0005129 -0.0000498 0.0007390 0.0004181
0.0003962 0.0012783 0.0005755 0.0006589 0.0005175 0.0003223 0.0001919 -0.0016327 0.0000674 -0.0008860 0.0001664 0.0001349 0.0002309 -0.0002477 0.0006242 0.0002461 0.0004960 -0.0000913 0.0007128 0.0001959
0.0003227 0.0013194 0.0005672 0.0005461 0.0005488 0.0002702 0.0001639 -0.0019984 0.0000563 -0.0011238 0.0001554 -0.0000036 0.0002096 -0.0005305 0.0006033 -0.0001597 0.0004996 -0.0003587 0.0007179 -0.0003707
0.0005837 0.0008404 0.0006137 0.0003445 0.0005793 -0.0000546 0.0001772 -0.0024569 0.0000776 -0.0012292 0.0001520 -0.0001516 0.0001931 -0.0007483 0.0005876 -0.0003802 0.0005340 -0.0004217 0.0007920 -0.0003664
0.0005165 0.0009902 0.0006490 0.0004172 0.0005682 -0.0000312 0.0001878 -0.0022882 0.0000836 -0.0010813 0.0001541 -0.0000617 0.0002167 -0.0006017 0.0005827 -0.0002525 0.0005656 -0.0001949 0.0008935 0.0001358
-0.0000907 0.0015255 0.0006117 0.0005306 0.0004678 0.0000920 0.0001849 -0.0017989 0.0000645 -0.0008362 0.0001717 0.0002340 0.0002549 -0.0002809 0.0005583 -0.0000969 0.0005466 0.0000310 0.0008811 0.0004019
-0.0002286 0.0018627 0.0006036 0.0005953 0.0005482 0.0004915 0.0002206 -0.0016018 0.0000899 -0.0007189 0.0001967 0.0003467 0.0002967 -0.0002617 0.0005008 -0.0004647 0.0005030 -0.0001759 0.0008279 -0.0000283
0.0002254 0.0015393 0.0006137 0.0005655 0.0006988 0.0007052 0.0002515 -0.0018243 0.0001433 -0.0007371 0.0002202 0.0002447 0.0003202 -0.0004596 0.0004552 -0.0009316 0.0005016 -0.0004271 0.0008737 -0.0002866
0.0005587 0.0013103 0.0006167 0.0006385 0.0006850 0.0006041 0.0002615 -0.0018389 0.0001444 -0.0007041 0.0002127 0.0002693 0.0003491 -0.0003477 0.0004622 -0.0008400 0.0005171 -0.0002734 0.0009194 0.0001488
0.0007505 0.0016071 0.0006341 0.0008916 0.0005497 0.0004865 0.0002640 -0.0015693 0.0000997 -0.0006368 0.0002333 0.0004419 0.0003880 0.0000202 0.0004744 -0.0004925 0.0005231 0.0000395 0.0009141 0.0007255
0.0008077 0.0016835 0.0006554 0.0010992 0.0004271 0.0005606 0.0002398 -0.0012472 0.0000763 -0.0005463 0.0002599 0.0006355 0.0003900 0.0001666 0.0004666 -0.0004099 0.0005105 0.0001021 0.0008750 0.0006378
0.0006609 0.0016731 0.0006608 0.0010727 0.0003838 0.0003978 0.0002008 -0.0013933 0.0000719 -0.0006244 0.0002277 0.0006880 0.0003736 0.0000416 0.0004551 -0.0005692 0.0005007 -0.0000535 0.0008534 0.0002387
0.0002685 0.0018950 0.0006476 0.0009883 0.0003591 0.0001019 0.0001960 -0.0016662 0.0000645 -0.0006772 0.0002223 0.0007329 0.0003888 0.0000905 0.0004596 -0.0004787 0.0005051 -0.0000288 0.0008509 0.0003394
0.0001574 0.0019978 0.0006348 0.0010746 0.0003504 0.0002222 0.0002174 -0.0014524 0.0000599 -0.0005033 0.0002400 0.0008737 0.0004120 0.0003296 0.0004663 -0.0001952 0.0004928 0.0001547 0.0008327 0.0007148
0.0007519 0.0017844 0.0006243 0.0012251 0.0003207 0.0004520 0.0002034 -0.0011566 0.0000520 -0.0003917 0.0002637 0.0008884 0.0003958 0.0003567 0.0004581 -0.0001841 0.0004618 0.0001120 0.0007909 0.0005766
0.0010678 0.0013685 0.0006043 0.0011363 0.0002649 0.0002004 0.0001692 -0.0013797 0.0000442 -0.0005454 0.0002641 0.0007435 0.0003667 0.0001204 0.0004569 -0.0004119 0.0004472 -0.0001431 0.0007708 0.0000807
0.0008592 0.0012542 0.0005808 0.0009121 0.0002373 -0.0002183 0.0001564 -0.0016834 0.0000513 -0.0006389 0.0002458 0.0007011 0.0003601 0.0000530 0.0004634 -0.0004094 0.0004629 -0.0001773 0.0008053 0.0000963
0.0005992 0.0016075 0.0006092 0.0009148 0.0002446 -0.0001572 0.0001767 -0.0014977 0.0000670 -0.0004548 0.0000743 0.0001532 0.0003364 0.0001314 0.0006145 0.0002514 0.0004785 0.0001268 0.0008751 0.0006912
0.0001531 0.0016312 0.0006441 0.0010003 0.0002997 0.0000661 0.0001844 -0.0013137 0.0000605 -0.0004529 -0.0001594 -0.0008616 0.0003393 -0.0000094 0.0011345 0.0017985 0.0005112 0.0003431 0.0009233 0.0007163
-0.0001453 0.0011904 0.0006438 0.0008833 0.0004092 -0.0000316 0.0002004 -0.0016180 0.0000700 -0.0006989 -0.0003969 -0.0021553 0.0003977 -0.0002502 0.0018802 0.0038091 0.0005434 0.0002444 0.0009581 0.0001880
0.0002193 0.0007363 0.0006431 0.0006640 0.0005698 -0.0000748 0.0002297 -0.0019464 0.0001479 -0.0006709 -0.0006500 -0.0033947 0.0004231 -0.0005138 0.0023142 0.0051650 0.0005477 0.0001765 0.0009598 0.0001377
0.0007186 0.0003258 0.0006135 0.0007018 0.0006136 0.0000645 0.0002573 -0.0016878 0.0001755 -0.0004770 -0.0006109 -0.0034342 0.0006625 0.0001209 0.0027447 0.0065416 0.0005806 0.0004668 0.0009678 0.0005571
0.0006919 0.0003794 0.0005764 0.0008800 0.0004406 0.0000278 0.0002419 -0.0013754 0.0001309 -0.0004375 -0.0003723 -0.0022654 0.0007254 0.0001901 0.0028112 0.0066311 0.0006925 0.0007686 0.0010016 0.0005243
0.0004519 0.0009047 0.0005788 0.0007824 0.0002711 -0.0002874 0.0001893 -0.0016789 0.0000892 -0.0006232 -0.0003326 -0.0019187 0.0005573 -0.0006625 0.0024279 0.0054805 0.0007639 0.0006498 0.0010386 0.0000302
0.0001094 0.0014496 0.0005595 0.0005611 0.0002234 -0.0005836 0.0001561 -0.0020262 0.0000593 -0.0007816 -0.0001946 -0.0018591 0.0007199 -0.0003552 0.0022762 0.0045674 0.0006665 0.0002035 0.0009626 -0.0004011
0.0000186 0.0019134 0.0004906 0.0005307 0.0002054 -0.0003466 0.0001293 -0.0018431 0.0000117 -0.0007310 0.0000670 -0.0008987 0.0008868 0.0002198 0.0021616 0.0037727 0.0005967 0.0001200 0.0008889 -0.0002947
0.0003072 0.0018719 0.0004401 0.0006039 0.0001391 -0.0000707 0.0001097 -0.0016063 -0.0000467 -0.0007418 0.0001139 -0.0005401 0.0008969 0.0003035 0.0020767 0.0034760 0.0006025 0.0001889 0.0009134 -0.0002065
0.0005637 0.0015112 0.0003987 0.0004558 0.0000785 -0.0003279 0.0000891 -0.0018055 -0.0000601 -0.0008930 0.0000954 -0.0006548 0.0008614 0.0000668 0.0019944 0.0030133 0.0005905 -0.0000346 0.0009158 -0.0005592
0.0008145 0.0012592 0.0003901 0.0003144 0.0000584 -0.0006693 0.0000617 -0.0020331 -0.0000720 -0.0009632 0.0000899 -0.0007316 0.0008482 0.0000311 0.0019321 0.0028909 0.0006177 0.0000810 0.0009804 -0.0000972
0.0007946 0.0012018 0.0004225 0.0004741 0.0000583 -0.0004445 0.0000863 -0.0015643 -0.0000304 -0.0005772 0.0001667 -0.0007633 0.0009631 0.0004943 0.0019571 0.0032629 0.0006583 0.0005094 0.0009995 0.0006576
0.0005710 0.0013591 0.0003586 0.0005948 0.0000231 0.0002116 0.0000407 -0.0009998 -0.0000501 -0.0001013 0.0001157 -0.0008560 0.0009706 0.0007831 0.0018823 0.0034219 0.0006360 0.0007536 0.0009627 0.0008283
0.0005945 0.0016090 0.0003039 0.0006442 -0.0000024 0.0004702 -0.0000310 -0.0009459 -0.0001373 -0.0002131 -0.0000392 -0.0010246 0.0009236 0.0008652 0.0018839 0.0034427 0.0005354 0.0005435 0.0008875 0.0006032
0.0004380 0.0021447 0.0003685 0.0008296 0.0001884 0.0006760 -0.0000051 -0.0007492 0.0001376 0.0009391 0.0000815 -0.0012294 0.0012434 0.0016941 0.0022049 0.0042941 0.0004348 0.0002501 0.0007335 0.0005238
0.0004442 0.0024842 0.0004208 0.0010385 0.0002581 0.0010188 -0.0000966 -0.0006894 0.0003000 0.0022045 0.0000910 -0.0012108 0.0012493 0.0020154 0.0021746 0.0047425 0.0003696 0.0002539 0.0006080 0.0006642
0.0008465 0.0023450 0.0004205 0.0010678 0.0001155 0.0010323 -0.0002334 -0.0008881 0.0001663 0.0020871 -0.0000528 -0.0009795 0.0009026 0.0014289 0.0018601 0.0041600 0.0003093 0.0001558 0.0005287 0.0003824
0.0009329 0.0021392 0.0003675 0.0009438 0.0000285 0.0006376 -0.0002891 -0.0011977 0.0001268 0.0018187 -0.0000101 -0.0007773 0.0007552 0.0009978 0.0017650 0.0037725 0.0002823 -0.0000756 0.0004999 -0.0000979
0.0005054 0.0019684 0.0003132 0.0008193 -0.0000374 0.0001528 -0.0003062 -0.0015131 0.0001256 0.0016735 -0.0000005 -0.0007135 0.0006728 0.0008193 0.0016960 0.0036678 0.0003052 -0.0000303 0.0005168 -0.0001060
0.0002077 0.0018614 0.0003032 0.0009100 -0.0000454 0.0002684 -0.0002551 -0.0011868 0.0001386 0.0018310 -0.0000045 -0.0007421 0.0006653 0.0009526 0.0016068 0.0036459 0.0003259 0.0001798 0.0005254 0.0001903
0.0001064 0.0018947 0.0002781 0.0010522 -0.0000599 0.0004488 -0.0002057 -0.0008222 0.0001434 0.0018691 -0.0000413 -0.0008077 0.0006609 0.0009589 0.0015571 0.0035078 0.0003157 0.0000773 0.0005130 -0.0000155
0.0002140 0.0017270 0.0002055 0.0009805 -0.0000842 0.0002383 -0.0001863 -0.0010074 0.0001486 0.0016728 -0.0000946 -0.0009871 0.0006496 0.0007792 0.0015538 0.0032896 0.0003294 -0.0001877 0.0005263 -0.0004986
0.0006067 0.0013366 0.0001819 0.0008607 -0.0000670 0.0000288 -0.0001605 -0.0012553 0.0001541 0.0015526 -0.0000698 -0.0010848 0.0006514 0.0007131 0.0015654 0.0032619 0.0003668 -0.0001921 0.0005770 -0.0003727
0.0009333 0.0008844 0.0001822 0.0008630 -0.0000527 0.0001928 -0.0001403 -0.0010779 0.0001489 0.0016197 -0.0000388 -0.0010807 0.0006672 0.0007988 0.0015519 0.0032501 0.0003825 -0.0000713 0.0006109 -0.0000930
0.0008809 0.0007079 0.0001392 0.0008138 -0.0000811 0.0002459 -0.0001658 -0.0011095 0.0001148 0.0014533 -0.0000666 -0.0012081 0.0006626 0.0006793 0.0015369 0.0029706 0.0003921 -0.0002166 0.0006314 -0.0003632
0.0001461 0.0010439 0.0000899 0.0005239 -0.0000742 0.0000236 -0.0001669 -0.0014827 0.0001232 0.0011787 -0.0000970 -0.0014180 0.0006474 0.0003368 0.0015206 0.0025295 0.0003926 -0.0006090 0.0006433 -0.0009744
-0.0002310 0.0010383 0.0000917 0.0002283 0.0000114 -0.0000542 -0.0001122 -0.0016848 0.0001676 0.0011626 -0.0001056 -0.0015525 0.0006505 0.0001749 0.0014868 0.0023194 0.0003858 -0.0007917 0.0006475 -0.0010912
0.0005318 0.0005700 0.0001279 0.0002553 0.0001061 0.0002121 -0.0000720 -0.0014909 0.0001980 0.0013283 -0.0001243 -0.0015732 0.0006578 0.0002322 0.0014525 0.0023116 0.0003577 -0.0008249 0.0005980 -0.0010828
0.0008278 0.0005650 0.0001244 0.0003233 0.0001626 0.0003124 -0.0000798 -0.0015218 0.0002135 0.0012696 -0.0001862 -0.0017103 0.0006345 -0.0000001 0.0014161 0.0020195 0.0003062 -0.0011910 0.0005188 -0.0016269
0.0006943 0.0005026 0.0001076 0.0001166 0.0002129 0.0001093 -0.0000986 -0.0018965 0.0002374 0.0010324 -0.0002411 -0.0019701 0.0005966 -0.0004332 0.0013880 0.0015887 0.0002885 -0.0016088 0.0005065 -0.0020827
0.0007931 0.0002289 0.0001463 -0.0000917 0.0002441 0.0000617 -0.0000895 -0.0019568 0.0002548 0.0010318 -0.0001908 -0.0020911 0.0006070 -0.0004672 0.0013903 0.0015977 0.0003037 -0.0015733 0.0005115 -0.0018408
0.0005563 0.0003335 0.0001887 -0.0000411 0.0002533 0.0003326 -0.0000749 -0.0015413 0.0002600 0.0012544 -0.0001612 -0.0020656 0.0006421 -0.0002582 0.0014004 0.0017842 0.0002829 -0.0014917 0.0004345 -0.0018459
-0.0001006 0.0007124 0.0001907 -0.0000504 0.0002615 0.0003801 -0.0000705 -0.0014802 0.0002584 0.0012006 -0.0001999 -0.0021523 0.0006267 -0.0004141 0.0013828 0.0015710 0.0002467 -0.0017466 0.0003590 -0.0024310
-0.0001865 0.0008172 0.0001831 -0.0002654 0.0002999 0.0001348 -0.0000778 -0.0019585 0.0002544 0.0008792 -0.0002067 -0.0023179 0.0005940 -0.0007610 0.0013352 0.0011733 0.0001892 -0.0022159 0.0002644 -0.0030672
0.0002628 0.0000938 0.0001651 -0.0006095 0.0004903 0.0003515 -0.0000652 -0.0021598 0.0002798 0.0008519 -0.0002087 -0.0023229 0.0006050 -0.0007027 0.0012926 0.0012131 0.0001436 -0.0022369 0.0001771 -0.0029479
0.0004872 -0.0003395 0.0001736 -0.0006013 0.0006205 0.0008681 -0.0000554 -0.0017676 0.0002858 0.0010510 -0.0002347 -0.0022100 0.0006323 -0.0004418 0.0012936 0.0014037 0.0001538 -0.0019082 0.0001781 -0.0026061
0.0006427 -0.0000181 0.0002331 -0.0002858 0.0004755 0.0006593 -0.0000848 -0.0016328 0.0002572 0.0009653 -0.0002372 -0.0022872 0.0006198 -0.0005443 0.0012813 0.0012356 0.0001765 -0.0018458 0.0002186 -0.0026543
0.0007504 -0.0001381 0.0002740 -0.0002473 0.0003046 0.0001357 -0.0001138 -0.0018633 0.0002427 0.0007775 -0.0002378 -0.0024492 0.0005958 -0.0007596 0.0012544 0.0010362 0.0002068 -0.0018289 0.0002761 -0.0025347
0.0005742 -0.0001531 0.0002842 -0.0002191 0.0002153 0.0000580 -0.0001091 -0.0016864 0.0002301 0.0009009 -0.0002437 -0.0023572 0.0006199 -0.0005854 0.0012568 0.0012622 0.0002650 -0.0014169 0.0003406 -0.0019140
-0.0000473 0.0003972 0.0002727 -0.0000068 0.0001123 0.0002509 -0.0001034 -0.0012142 0.0001923 0.0010610 -0.0001908 -0.0022487 0.0006496 -0.0004122 0.0012655 0.0013689 0.0003053 -0.0011385 0.0003537 -0.0018204
-0.0002734 0.0004395 0.0002355 0.0000331 -0.0000013 0.0000566 -0.0000992 -0.0012351 0.0001635 0.0009491 -0.0001631 -0.0021620 0.0006458 -0.0005209 0.0012540 0.0011823 0.0003140 -0.0012092 0.0003608 -0.0020866
0.0006827 -0.0003437 0.0001919 -0.0000567 -0.0000761 -0.0002298 -0.0000739 -0.0014018 0.0001616 0.0008507 -0.0001509 -0.0020014 0.0006470 -0.0005745 0.0012346 0.0011565 0.0003442 -0.0011120 0.0004030 -0.0018364
0.0012177 -0.0009245 0.0001771 -0.0000047 -0.0000870 -0.0000325 -0.0000776 -0.0011039 0.0001651 0.0010144 -0.0001072 -0.0017886 0.0006660 -0.0003452 0.0012324 0.0013814 0.0003637 -0.0008379 0.0003781 -0.0014619
0.0009285 -0.0006556 0.0001986 0.0001178 -0.0000607 0.0002894 -0.0001034 -0.0006838 0.0001737 0.0012513 -0.0000895 -0.0015430 0.0006704 -0.0001242 0.0012357 0.0015013 0.0003496 -0.0007498 0.0003114 -0.0016021
0.0005321 -0.0005942 0.0001644 -0.0001538 -0.0000456 0.0002070 -0.0001326 -0.0007879 0.0001787 0.0011380 -0.0000822 -0.0015630 0.0006382 -0.0003099 0.0012231 0.0012256 0.0003252 -0.0010364 0.0002665 -0.0022398
-0.0001585 -0.0013305 0.0000243 -0.0007766 -0.0000081 -0.0000746 -0.0001424 -0.0012911 0.0001878 0.0008600 -0.0000431 -0.0016782 0.0006147 -0.0005825 0.0012030 0.0009632 0.0003058 -0.0013279 0.0002358 -0.0026112
-0.0010667 -0.0020040 -0.0002032 -0.0012804 0.0001433 0.0002291 -0.0001396 -0.0013445 0.0002171 0.0009530 0.0000177 -0.0016145 0.0006234 -0.0004647 0.0011818 0.0010675 0.0002727 -0.0013404 0.0001786 -0.0025156
-0.0010960 -0.0016844 -0.0002767 -0.0010722 0.0001992 0.0006685 -0.0001321 -0.0009284 0.0002190 0.0011943 -0.0000048 -0.0013846 0.0006404 -0.0001475 0.0011796 0.0014134 0.0002712 -0.0010111 0.0001678 -0.0021363
-0.0000523 -0.0011628 -0.0001050 -0.0004455 0.0000551 0.0005767 -0.0001256 -0.0006865 0.0001831 0.0011724 -0.0000375 -0.0013414 0.0006460 -0.0001717 0.0011966 0.0013891 0.0003351 -0.0008079 0.0002665 -0.0020431
0.0005004 -0.0011407 0.0000130 -0.0002609 -0.0001101 0.0001308 -0.0001376 -0.0008302 0.0001591 0.0009803 -0.0000182 -0.0015027 0.0006449 -0.0003925 0.0012111 0.0011229 0.0004357 -0.0007264 0.0004140 -0.0019151
0.0005065 -0.0010850 0.0000512 -0.0002490 -0.0001806 -0.0000029 -0.0001219 -0.0007839 0.0001561 0.0010082 0.0000287 -0.0014539 0.0006596 -0.0003046 0.0012262 0.0012124 0.0005068 -0.0004474 0.0005028 -0.0014577
0.0003575 -0.0008986 0.0000939 -0.0001263 -0.0001786 0.0002474 -0.0001188 -0.0004318 0.0001545 0.0012012 0.0000443 -0.0012674 0.0006778 -0.0000528 0.0012358 0.0014830 0.0005206 -0.0001707 0.0005113 -0.0011175
0.0001811 -0.0006914 0.0000935 -0.0000527 -0.0001878 0.0003456 -0.0001202 -0.0002838 0.0001501 0.0012089 0.0000379 -0.0012538 0.0006730 -0.0000890 0.0012334 0.0014166 0.0005158 -0.0002215 0.0005065 -0.0013346
-0.0000062 -0.0007345 0.0000538 -0.0001928 -0.0001913 0.0001823 -0.0001051 -0.0004323 0.0001551 0.0010956 0.0000739 -0.0013985 0.0006598 -0.0002940 0.0012248 0.0011919 0.0005221 -0.0003920 0.0005184 -0.0015858
-0.0000048 -0.0007827 0.0000204 -0.0002623 -0.0001815 0.0001923 -0.0000986 -0.0003518 0.0001599 0.0011928 0.0000755 -0.0013195 0.0006777 -0.0001949 0.0012240 0.0013278 0.0005372 -0.0002352 0.0005264 -0.0012493
0.0003953 -0.0007663 0.0000276 -0.0001138 -0.0001708 0.0004718 -0.0001096 0.0000256 0.0001587 0.0014024 0.0000593 -0.0011345 0.0007017 0.0000663 0.0012135 0.0016166 0.0005337 0.0000507 0.0004902 -0.0007396
0.0006090 -0.0008053 0.0000408 0.0000464 -0.0001676 0.0007398 -0.0001255 0.0003256 0.0001509 0.0014551 0.0000609 -0.0011342 0.0006845 0.0000626 0.0011968 0.0015662 0.0005082 0.0000074 0.0004252 -0.0009736
0.0004487 -0.0008200 0.0000226 -0.0000663 -0.0001792 0.0005449 -0.0001422 0.0001489 0.0001547 0.0012997 0.0000469 -0.0012786 0.0006455 -0.0001843 0.0011894 0.0012806 0.0004988 -0.0002405 0.0004289 -0.0014834
0.0003221 -0.0008380 0.0000098 -0.0002700 -0.0001672 0.0003030 -0.0001310 -0.0000457 0.0001693 0.0012714 0.0000706 -0.0013236 0.0006467 -0.0001919 0.0011884 0.0013168 0.0005073 -0.0001953 0.0004587 -0.0012859
0.0001487 -0.0007401 0.0000274 -0.0002226 -0.0001358 0.0004877 -0.0001195 0.0002048 0.0001760 0.0014411 0.0000920 -0.0012009 0.0006724 0.0000398 0.0011781 0.0015766 0.0005017 0.0000407 0.0004411 -0.0008302
-0.0000074 -0.0005364 0.0000447 -0.0000085 -0.0001256 0.0008318 -0.0001211 0.0006350 0.0001798 0.0015852 0.0000741 -0.0010987 0.0006642 0.0001410 0.0011646 0.0016349 0.0004797 0.0000817 0.0003889 -0.0009106
0.0001349 -0.0005633 0.0000302 -0.0000022 -0.0001367 0.0007428 -0.0001253 0.0005738 0.0001843 0.0014906 0.0000678 -0.0011848 0.0006385 -0.0000195 0.0011526 0.0014657 0.0004669 -0.0000627 0.0003730 -0.0012416
0.0003879 -0.0008308 -0.0000031 -0.0001244 -0.0001424 0.0005103 -0.0001430 0.0003823 0.0001922 0.0014215 0.0000790 -0.0012190 0.0006498 0.0000011 0.0011480 0.0015324 0.0004732 0.0000128 0.0003932 -0.0010058
0.0004336 -0.0008531 0.0000000 -0.0000193 -0.0001287 0.0007278 -0.0001460 0.0006631 0.0001917 0.0015880 0.0000929 -0.0010628 0.0006556 0.0002733 0.0011377 0.0018124 0.0004654 0.0002714 0.0003618 -0.0004966
0.0003620 -0.0005900 0.0000273 0.0002058 -0.0001222 0.0011072 -0.0001816 0.0011021 0.0001727 0.0017989 0.0000506 -0.0008471 0.0006169 0.0004339 0.0011151 0.0019799 0.0004255 0.0003931 0.0002984 -0.0003878
0.0002220 -0.0002224 0.0000464 0.0002400 -0.0001297 0.0011078 -0.0002725 0.0010203 0.0001370 0.0016549 0.0000010 -0.0008585 0.0005343 0.0002305 0.0010800 0.0019016 0.0003856 0.0003005 0.0002976 -0.0005171
-0.0000105 0.0000185 0.0000497 0.0001351 -0.0001207 0.0009190 -0.0003218 0.0007111 0.0001057 0.0014248 0.0000336 -0.0009950 0.0005114 0.0001823 0.0010688 0.0019869 0.0003664 0.0003303 0.0003061 -0.0003025
-0.0001335 0.0001326 0.0000640 0.0002458 -0.0000953 0.0010975 -0.0003288 0.0008965 0.0000888 0.0015244 0.0000778 -0.0008953 0.0005598 0.0005307 0.0010821 0.0023737 0.0003468 0.0005680 0.0002654 0.0001607
-0.0000549 0.0005090 0.0000697 0.0005150 -0.0000930 0.0014540 -0.0003666 0.0012983 0.0000712 0.0016926 0.0000556 -0.0007594 0.0005322 0.0006583 0.0010632 0.0024852 0.0003087 0.0006272 0.0002043 0.0001783
0.0005834 0.0005540 0.0000598 0.0005673 -0.0001104 0.0014413 -0.0004502 0.0011990 0.0000452 0.0015777 -0.0000025 -0.0007831 0.0004409 0.0004180 0.0010298 0.0023186 0.0002707 0.0004616 0.0001807 -0.0000697
0.0009386 0.0000721 0.0000647 0.0004376 -0.0001119 0.0012281 -0.0005157 0.0008956 0.0000281 0.0014065 -0.0000254 -0.0008525 0.0004084 0.0003601 0.0010309 0.0024313 0.0002599 0.0004514 0.0001975 0.0001772
0.0005971 0.0002890 0.0000898 0.0005353 -0.0000878 0.0013925 -0.0005317 0.0011342 0.0000256 0.0015478 -0.0000112 -0.0007816 0.0003890 0.0006299 0.0010398 0.0028497 0.0002451 0.0006619 0.0002053 0.0007233
0.0002513 0.0010600 0.0001424 0.0008058 -0.0000594 0.0017230 -0.0005227 0.0014639 0.0000201 0.0016496 -0.0000209 -0.0007582 0.0003286 0.0006182 0.0009924 0.0027984 0.0002144 0.0006335 0.0001840 0.0006089
-0.0001336 0.0011646 0.0001398 0.0008108 -0.0000726 0.0016155 -0.0005267 0.0013536 0.0000248 0.0015601 -0.0000141 -0.0008661 0.0002921 0.0003489 0.0009256 0.0023321 0.0001998 0.0003883 0.0001751 0.0001374
-0.0001980 0.0009605 0.0001145 0.0007511 -0.0000326 0.0014731 -0.0005000 0.0012477 0.0000611 0.0016119 0.0000211 -0.0008753 0.0003033 0.0003791 0.0009199 0.0023345 0.0002098 0.0004001 0.0002242 0.0004266
0.0002231 0.0010818 0.0001424 0.0010085 0.0000978 0.0019313 -0.0003878 0.0017425 0.0001165 0.0019840 0.0000369 -0.0007488 0.0003351 0.0006883 0.0009348 0.0026706 0.0002091 0.0006028 0.0002390 0.0009004
0.0006019 0.0013034 0.0001699 0.0012515 0.0001950 0.0022567 -0.0003256 0.0020243 0.0001551 0.0021525 0.0000173 -0.0007177 0.0003077 0.0005989 0.0009277 0.0025970 0.0001865 0.0004867 0.0002163 0.0007131
0.0006144 0.0014332 0.0002052 0.0011932 0.0002325 0.0020410 -0.0003551 0.0017171 0.0001735 0.0020096 -0.0000060 -0.0007956 0.0002903 0.0003445 0.0009020 0.0021972 0.0001828 0.0002080 0.0002240 0.0003501
0.0004729 0.0013456 0.0002336 0.0009665 0.0002610 0.0018077 -0.0003463 0.0015667 0.0001761 0.0019318 0.0000042 -0.0007879 0.0003408 0.0004609 0.0008394 0.0019541 0.0001779 0.0002053 0.0002413 0.0005353
0.0002177 0.0013890 0.0002087 0.0009168 0.0002433 0.0018568 -0.0003135 0.0017965 0.0001481 0.0019485 0.0000571 -0.0007183 0.0004121 0.0007526 0.0007984 0.0019053 0.0001628 0.0003253 0.0002129 0.0005805
0.0000283 0.0014724 0.0001406 0.0007959 0.0001729 0.0016330 -0.0003351 0.0016768 0.0001307 0.0018010 0.0001019 -0.0008305 0.0004465 0.0006903 0.0007882 0.0016486 0.0001757 0.0002261 0.0001576 0.0000674
-0.0000006 0.0010805 0.0000841 0.0003811 0.0001221 0.0011485 -0.0003537 0.0012287 0.0001339 0.0015448 0.0000697 -0.0010274 0.0004265 0.0003666 0.0007816 0.0013052 0.0002064 0.0000616 0.0001702 -0.0002005
0.0000553 0.0006849 0.0000511 0.0001721 0.0000966 0.0009660 -0.0003189 0.0011047 0.0001264 0.0014723 0.0000616 -0.0011127 0.0004283 0.0003541 0.0007864 0.0013357 0.0002230 0.0001573 0.0002090 0.0001905
0.0002860 0.0007150 0.0000367 0.0002827 0.0000817 0.0011608 -0.0002955 0.0013643 0.0001174 0.0015600 0.0000519 -0.0011387 0.0004344 0.0004956 0.0007984 0.0015549 0.0001790 0.0002150 0.0002359 0.0005805
0.0003902 0.0009798 0.0000358 0.0003718 0.0000774 0.0013040 -0.0002928 0.0013675 0.0001284 0.0014918 -0.0000501 -0.0013309 0.0003580 0.0002210 0.0008411 0.0017055 0.0000677 -0.0001702 0.0003222 0.0006520
0.0004212 0.0014198 0.0001046 0.0005310 0.0001029 0.0012413 -0.0002356 0.0011522 0.0001587 0.0013606 -0.0000445 -0.0016426 0.0003330 -0.0000023 0.0008761 0.0016944 -0.0000173 -0.0006012 0.0003806 0.0005906
0.0003520 0.0018506 0.0002164 0.0007526 0.0001502 0.0012681 -0.0001482 0.0012414 0.0001842 0.0014159 -0.0000031 -0.0016074 0.0004122 0.0002815 0.0008765 0.0017471 -0.0000334 -0.0005408 0.0003521 0.0007850
-0.0000627 0.0020459 0.0002674 0.0008566 0.0001923 0.0014405 -0.0001062 0.0014360 0.0001766 0.0014977 -0.0000404 -0.0013813 0.0004504 0.0005200 0.0008457 0.0018780 -0.0000352 -0.0002583 0.0002915 0.0010901
-0.0002578 0.0017278 0.0002753 0.0007343 0.0001525 0.0012513 -0.0001294 0.0013151 0.0001576 0.0013695 -0.0000198 -0.0014336 0.0004021 0.0002961 0.0007803 0.0015523 -0.0000322 -0.0002776 0.0001791 0.0007450
0.0001421 0.0010807 0.0002691 0.0004208 0.0000826 0.0007663 -0.0001535 0.0009666 0.0001552 0.0011040 0.0000067 -0.0015871 0.0003684 0.0000044 0.0007498 0.0011403 -0.0000225 -0.0004535 0.0000595 0.0001232
0.0004277 0.0008875 0.0002793 0.0002761 0.0000904 0.0006308 -0.0001674 0.0008072 0.0001392 0.0009813 0.0000217 -0.0015037 0.0004337 0.0002295 0.0007524 0.0011971 -0.0000551 -0.0004636 -0.0000546 -0.0000588
0.0001770 0.0011471 0.0003384 0.0003535 0.0001430 0.0008465 -0.0001952 0.0008552 0.0001252 0.0010478 0.0000438 -0.0014080 0.0004767 0.0005680 0.0007218 0.0013640 -0.0001275 -0.0004034 -0.0001625 0.0001628
-0.0000289 0.0014930 0.0004229 0.0006021 0.0001326 0.0009704 -0.0002290 0.0008662 0.0001158 0.0010440 0.0000133 -0.0014937 0.0004006 0.0004427 0.0006660 0.0011892 -0.0002016 -0.0005673 -0.0002210 0.0000496
-0.0000847 0.0018555 0.0004859 0.0007711 0.0000756 0.0007618 -0.0002709 0.0006853 0.0001087 0.0009194 -0.0000231 -0.0016092 0.0003173 0.0001450 0.0006316 0.0009214 -0.0002228 -0.0007319 -0.0002494 -0.0001710
-0.0000768 0.0020366 0.0005156 0.0007774 0.0000675 0.0006749 -0.0002761 0.0006832 0.0001084 0.0009709 -0.0000581 -0.0016557 0.0002789 0.0001500 0.0007001 0.0014085 -0.0001696 -0.0004086 -0.0001560 0.0005638
0.0000620 0.0019374 0.0004887 0.0007881 0.0000472 0.0009071 -0.0002512 0.0010860 0.0000982 0.0011894 -0.0000876 -0.0015523 0.0002144 0.0002712 0.0007606 0.0020712 -0.0001082 0.0001047 -0.0000661 0.0015869
0.0002113 0.0018326 0.0004198 0.0008755 0.0000101 0.0013046 -0.0002619 0.0014944 0.0000814 0.0013197 -0.0000731 -0.0013569 0.0001458 0.0002427 0.0006792 0.0018943 -0.0000952 0.0002988 -0.0001412 0.0016457
0.0004003 0.0018637 0.0004001 0.0009510 -0.0000228 0.0013288 -0.0003213 0.0013985 0.0000594 0.0012454 -0.0000827 -0.0012302 0.0000811 0.0000588 0.0005515 0.0013332 -0.0001101 0.0002199 -0.0002429 0.0012523
0.0003834 0.0018813 0.0004194 0.0009557 -0.0000441 0.0011515 -0.0003548 0.0013257 0.0000453 0.0012810 -0.0000951 -0.0010696 0.0000503 0.0000937 0.0004701 0.0011939 -0.0001141 0.0003265 -0.0003039 0.0013701
0.0002394 0.0019192 0.0004278 0.0010719 -0.0000475 0.0013531 -0.0003362 0.0016900 0.0000416 0.0015261 -0.0000662 -0.0008450 0.0000380 0.0003391 0.0004208 0.0013724 -0.0001367 0.0005563 -0.0003756 0.0016870
0.0002684 0.0020564 0.0004342 0.0012090 -0.0000687 0.0015221 -0.0003631 0.0018180 0.0000066 0.0015197 -0.0000701 -0.0007989 -0.0000386 0.0002478 0.0004352 0.0015818 -0.0001814 0.0004978 -0.0003789 0.0017083
0.0001199 0.0020783 0.0003737 0.0010993 -0.0000645 0.0013676 -0.0003779 0.0015851 0.0000128 0.0013749 -0.0001152 -0.0008859 -0.0001660 -0.0000734 0.0005529 0.0021596 -0.0002160 0.0002673 -0.0002625 0.0018988
0.0000902 0.0018167 0.0002793 0.0008908 0.0000493 0.0015289 -0.0002714 0.0016528 0.0000455 0.0015646 -0.0000421 0.0000717 -0.0004015 -0.0002599 0.0004789 0.0027079 -0.0001972 0.0004007 0.0000294 0.0031871
0.0006760 0.0012801 0.0002679 0.0009615 0.0002377 0.0021634 -0.0001033 0.0023871 0.0000955 0.0020725 0.0000996 0.0012581 -0.0005159 -0.0000226 0.0002872 0.0028540 -0.0001770 0.0007050 0.0001563 0.0040290
0.0009135 0.0012611 0.0002604 0.0010788 0.0003251 0.0023928 -0.0000631 0.0026170 0.0001148 0.0021392 0.0001255 0.0013747 -0.0005592 -0.0001055 0.0002200 0.0026351 -0.0001949 0.0005821 0.0000908 0.0036479
0.0003297 0.0014496 0.0002475 0.0009083 0.0003231 0.0020907 -0.0000653 0.0021681 0.0001031 0.0018357 0.0001162 0.0012210 -0.0006457 -0.0004510 0.0001690 0.0022170 -0.0001809 0.0003642 0.0001176 0.0032539
-0.0001062 0.0012172 0.0002712 0.0007271 0.0003358 0.0019011 0.0000280 0.0021339 0.0001367 0.0018273 0.0000812 0.0011488 -0.0006012 -0.0002727 0.0000487 0.0018100 -0.0001655 0.0004295 0.0000609 0.0030654
-0.0002817 0.0014556 0.0002673 0.0008611 0.0003435 0.0021298 0.0000872 0.0024494 0.0001552 0.0019353 -0.0000127 0.0009789 -0.0005546 -0.0000210 -0.0001590 0.0011745 -0.0001939 0.0004522 -0.0000403 0.0026859
-0.0001595 0.0015676 0.0002235 0.0009410 0.0003232 0.0020963 0.0000828 0.0023769 0.0001610 0.0018247 -0.0000866 0.0006495 -0.0005557 -0.0001194 -0.0003195 0.0004164 -0.0001922 0.0002929 -0.0000788 0.0021659
0.0002818 0.0008690 0.0001578 0.0006567 0.0003016 0.0017220 0.0000602 0.0019212 0.0001616 0.0015825 -0.0001385 0.0004169 -0.0005729 -0.0003756 -0.0003766 -0.0000881 -0.0001563 0.0001717 -0.0000498 0.0020099
0.0006252 0.0002460 0.0001469 0.0004621 0.0003062 0.0016028 0.0000540 0.0017425 0.0001572 0.0015402 -0.0001707 0.0004466 -0.0005191 -0.0001741 -0.0003697 -0.0000624 -0.0001280 0.0003537 -0.0000290 0.0022414
0.0007904 0.0004645 0.0001999 0.0005648 0.0003060 0.0018041 0.0000197 0.0019134 0.0001397 0.0016867 -0.0001253 0.0005996 -0.0004615 0.0001607 -0.0003398 0.0001273 -0.0001179 0.0005887 -0.0000757 0.0023022
0.0002848 0.0009742 0.0002166 0.0004743 0.0002704 0.0017299 -0.0000443 0.0018068 0.0001256 0.0016604 -0.0000898 0.0006072 -0.0004668 0.0000953 -0.0003326 0.0000170 -0.0001118 0.0005520 -0.0001093 0.0020016
-0.0001241 0.0008913 0.0002031 0.0001451 0.0002413 0.0013935 -0.0000622 0.0014370 0.0001215 0.0014961 -0.0001050 0.0005253 -0.0004538 -0.0000374 -0.0003069 -0.0001099 -0.0000520 0.0005486 -0.0000667 0.0018694
0.0002171 0.0005046 0.0001683 -0.0000867 0.0002460 0.0013300 -0.0000551 0.0013575 0.0001133 0.0015037 -0.0001068 0.0006070 -0.0004176 0.0001113 -0.0002815 0.0000569 0.0000094 0.0007973 -0.0000259 0.0021796
0.0002115 0.0006212 0.0001126 -0.0001023 0.0002411 0.0015231 -0.0000627 0.0015519 0.0000887 0.0015906 -0.0000849 0.0006888 -0.0003869 0.0002893 -0.0002550 0.0001986 0.0000285 0.0009314 -0.0000429 0.0021634
0.0001473 0.0006220 0.0000853 -0.0001796 0.0002212 0.0014360 -0.0000697 0.0013580 0.0000713 0.0014727 -0.0001144 0.0006584 -0.0003954 0.0001492 -0.0002352 0.0000605 0.0000562 0.0008326 -0.0000231 0.0018235
0.0003496 0.0003503 0.0000917 -0.0004162 0.0002228 0.0011371 -0.0000869 0.0009561 0.0000642 0.0012576 -0.0001206 0.0006260 -0.0004032 -0.0000059 -0.0002036 -0.0000230 0.0001037 0.0007755 0.0000387 0.0017237
0.0003501 0.0006848 0.0001457 -0.0004317 0.0002331 0.0010611 -0.0001184 0.0008397 0.0000570 0.0012124 -0.0000870 0.0007392 -0.0004447 0.0000951 -0.0000378 0.0009132 0.0001789 0.0011021 0.0002476 0.0026285
0.0000616 0.0010171 0.0001285 -0.0003851 0.0002538 0.0012351 -0.0000991 0.0010008 0.0000480 0.0012014 -0.0000795 0.0008483 -0.0004854 0.0001436 0.0000661 0.0014699 0.0002274 0.0012678 0.0003722 0.0029157
-0.0000861 0.0009363 0.0001144 -0.0004386 0.0002643 0.0010632 -0.0000346 0.0008174 0.0000557 0.0010830 -0.0000605 0.0007598 -0.0004342 0.0001029 0.0000634 0.0011146 0.0002757 0.0011290 0.0003548 0.0023591
-0.0000625 0.0007804 0.0001361 -0.0005281 0.0002397 0.0006418 0.0000636 0.0005772 0.0001016 0.0010954 -0.0001082 0.0005005 -0.0003834 0.0000572 0.0000352 0.0008415 0.0004942 0.0016538 0.0005117 0.0027786
0.0000159 0.0004352 0.0000443 -0.0005147 0.0002656 0.0008319 0.0001802 0.0009598 0.0001637 0.0013710 -0.0001442 0.0003924 -0.0003401 0.0001263 -0.0000431 0.0005045 0.0006563 0.0022110 0.0005838 0.0030171
0.0004238 0.0002341 -0.0000012 -0.0004188 0.0003044 0.0011270 0.0002214 0.0011174 0.0001902 0.0014093 -0.0001376 0.0003060 -0.0003746 -0.0001024 -0.0000999 0.0000344 0.0005847 0.0017961 0.0004861 0.0022774
0.0008748 -0.0005030 -0.0000821 -0.0008124 0.0002522 0.0008480 0.0002304 0.0008252 0.0001988 0.0012027 -0.0001530 -0.0000405 -0.0004340 -0.0005611 -0.0001024 -0.0004352 0.0005687 0.0013097 0.0004799 0.0015648
0.0006797 -0.0010012 -0.0002346 -0.0013858 0.0002179 0.0004988 0.0002878 0.0006244 0.0002380 0.0011298 -0.0001733 -0.0002446 -0.0003760 -0.0006171 -0.0000442 -0.0004658 0.0006586 0.0013597 0.0005852 0.0016787
-0.0000785 -0.0006904 -0.0003563 -0.0015783 0.0002361 0.0006823 0.0003920 0.0009276 0.0002825 0.0013271 -0.0002179 -0.0002153 -0.0002903 -0.0003787 0.0000044 -0.0002169 0.0007465 0.0016981 0.0006696 0.0021526
-0.0003922 -0.0008156 -0.0004848 -0.0016536 0.0002472 0.0011154 0.0004807 0.0013510 0.0002939 0.0015593 -0.0002364 -0.0002517 -0.0002384 -0.0002387 0.0000383 -0.0001308 0.0008124 0.0019405 0.0007253 0.0023307
-0.0000129 -0.0014242 -0.0006429 -0.0019544 0.0002350 0.0011344 0.0004876 0.0011575 0.0002871 0.0013876 -0.0002639 -0.0005567 -0.0002524 -0.0005287 0.0002610 0.0004288 0.0008666 0.0018845 0.0010577 0.0030750
0.0002521 -0.0012902 -0.0008416 -0.0022410 0.0005007 0.0017624 0.0008016 0.0016321 0.0003732 0.0023641 0.0001558 0.0011021 -0.0002898 -0.0004747 0.0004187 0.0012945 0.0009422 0.0019127 0.0018368 0.0056341
0.0007298 0.0002173 -0.0005972 -0.0012987 0.0009757 0.0030864 0.0010708 0.0023476 0.0002664 0.0028036 0.0009488 0.0042084 -0.0000782 0.0005223 0.0004367 0.0016221 0.0007527 0.0012861 0.0020960 0.0067195
0.0012093 0.0015716 -0.0001023 -0.0001549 0.0011402 0.0033191 0.0008879 0.0019151 0.0000236 0.0016413 0.0010800 0.0048522 -0.0000200 0.0008521 0.0002086 0.0010029 0.0005156 0.0007286 0.0016876 0.0057258
0.0010466 0.0020459 0.0000903 0.0001233 0.0010544 0.0029299 0.0006974 0.0015471 -0.0000153 0.0009406 0.0006693 0.0035026 -0.0002451 0.0002642 -0.0002165 -0.0002252 0.0004994 0.0007273 0.0012868 0.0044646
0.0006261 0.0018241 0.0000789 0.0000210 0.0009682 0.0024578 0.0006843 0.0012938 0.0000371 0.0005453 0.0003750 0.0021544 -0.0003614 -0.0003295 -0.0003721 -0.0011472 0.0004502 0.0002996 0.0009290 0.0028840
0.0005060 0.0015578 0.0000706 -0.0001001 0.0009175 0.0020616 0.0006870 0.0010090 0.0001032 0.0005049 0.0002272 0.0014061 -0.0004006 -0.0006280 -0.0003980 -0.0015030 0.0004063 0.0000849 0.0007250 0.0022065
0.0007224 0.0014095 0.0000966 0.0000103 0.0009053 0.0021598 0.0006355 0.0011129 0.0001203 0.0007022 0.0001549 0.0012545 -0.0004010 -0.0005105 -0.0004120 -0.0013520 0.0003865 0.0002503 0.0006277 0.0023806
0.0009490 0.0013510 0.0000808 0.0001543 0.0009189 0.0024931 0.0005851 0.0015126 0.0001225 0.0010181 0.0001443 0.0012619 -0.0004082 -0.0002205 -0.0004359 -0.0010062 0.0003511 0.0005390 0.0004956 0.0027261
0.0010566 0.0015958 0.0001045 0.0002556 0.0008969 0.0027087 0.0005117 0.0017925 0.0001164 0.0011567 0.0001052 0.0012612 -0.0004462 -0.0001887 -0.0004539 -0.0009692 0.0003187 0.0005310 0.0004090 0.0025149
0.0010703 0.0014034 0.0001287 0.0000564 0.0008554 0.0024861 0.0004301 0.0015425 0.0001111 0.0010047 0.0000663 0.0011379 -0.0004885 -0.0003812 -0.0004691 -0.0011837 0.0003148 0.0003433 0.0004069 0.0021140
0.0008527 0.0013005 0.0001034 -0.0002173 0.0008364 0.0022965 0.0003782 0.0013052 0.0001058 0.0009558 0.0000502 0.0011292 -0.0005003 -0.0003443 -0.0004786 -0.0011262 0.0003250 0.0004088 0.0004068 0.0022953
0.0003275 0.0017000 0.0000784 -0.0002526 0.0008300 0.0024653 0.0003648 0.0014648 0.0000898 0.0010862 0.0000525 0.0012272 -0.0004952 -0.0001181 -0.0004940 -0.0008920 0.0003234 0.0006461 0.0003738 0.0026439
0.0001093 0.0020136 0.0000741 -0.0001398 0.0008188 0.0026960 0.0003116 0.0016741 0.0000613 0.0011817 0.0000567 0.0012867 -0.0005082 -0.0000087 -0.0005130 -0.0008197 0.0003102 0.0007492 0.0003364 0.0026035
0.0009068 0.0017165 0.0000588 -0.0002248 0.0007872 0.0024875 0.0002131 0.0012987 0.0000267 0.0009266 0.0000059 0.0011958 -0.0005416 -0.0001743 -0.0005220 -0.0010253 0.0003143 0.0006087 0.0003455 0.0022299
0.0013788 0.0011800 0.0000435 -0.0004184 0.0007716 0.0020641 0.0001804 0.0007537 0.0000171 0.0006557 0.0000021 0.0010826 -0.0005386 -0.0001991 -0.0005128 -0.0010699 0.0003455 0.0005850 0.0003897 0.0022355
0.0010702 0.0013969 0.0000638 -0.0003498 0.0007756 0.0020463 0.0001843 0.0008418 0.0000245 0.0007470 0.0000425 0.0011364 -0.0005159 0.0000458 -0.0005030 -0.0008606 0.0003671 0.0007618 0.0004160 0.0025545
0.0007496 0.0020085 0.0001345 -0.0001600 0.0007624 0.0022625 0.0001549 0.0011377 0.0000176 0.0009374 0.0000459 0.0012998 -0.0005275 0.0002551 -0.0005054 -0.0006706 0.0003531 0.0009020 0.0003909 0.0026181
0.0002816 0.0022216 0.0001905 -0.0001261 0.0007508 0.0022086 0.0001106 0.0009710 0.0000065 0.0008519 0.0000145 0.0013134 -0.0005698 0.0000484 -0.0005202 -0.0008810 0.0003404 0.0007221 0.0003755 0.0022154
-0.0002102 0.0022903 0.0001743 -0.0002687 0.0007520 0.0018905 0.0001063 0.0005116 0.0000136 0.0006196 0.0000182 0.0011840 -0.0005713 -0.0002007 -0.0005090 -0.0011391 0.0003630 0.0005084 0.0004131 0.0020089
0.0000488 0.0023266 0.0001456 -0.0002827 0.0007710 0.0018717 0.0001527 0.0004791 0.0000224 0.0006536 0.0000418 0.0011909 -0.0005150 -0.0000356 -0.0004680 -0.0010000 0.0003876 0.0005955 0.0004484 0.0022298
0.0007504 0.0020359 0.0001304 -0.0001480 0.0007778 0.0020995 0.0001600 0.0007366 0.0000147 0.0008188 0.0000618 0.0012497 -0.0004875 0.0001838 -0.0004640 -0.0007633 0.0003834 0.0008153 0.0004515 0.0026584
0.0009346 0.0019523 0.0001346 0.0000105 0.0007621 0.0022924 0.0001286 0.0008894 -0.0000004 0.0008387 0.0000599 0.0012130 -0.0005198 0.0001099 -0.0004820 -0.0008478 0.0003594 0.0007490 0.0004163 0.0025178
0.0008164 0.0021332 0.0001740 -0.0000288 0.0007429 0.0021026 0.0000672 0.0005505 -0.0000145 0.0006217 0.0000169 0.0010714 -0.0005715 -0.0002135 -0.0004953 -0.0011779 0.0003471 0.0004793 0.0004162 0.0020971
0.0005664 0.0024318 0.0002350 -0.0001117 0.0007638 0.0019204 0.0000226 0.0002538 -0.0000200 0.0005289 0.0000307 0.0010129 -0.0005363 -0.0001738 -0.0004662 -0.0011128 0.0003593 0.0005390 0.0004591 0.0023062
0.0003287 0.0027811 0.0002697 0.0000214 0.0007904 0.0021372 0.0000330 0.0004631 -0.0000283 0.0006726 0.0000849 0.0010743 -0.0004600 0.0001769 -0.0004245 -0.0007415 0.0003671 0.0008328 0.0004689 0.0027909
0.0001354 0.0029460 0.0002741 0.0002280 0.0007778 0.0024353 0.0000160 0.0008116 -0.0000566 0.0008781 0.0000981 0.0011711 -0.0004597 0.0003789 -0.0004198 -0.0004902 0.0003432 0.0010276 0.0004340 0.0030103
0.0001948 0.0031037 0.0002620 0.0002967 0.0007474 0.0023836 -0.0000469 0.0006680 -0.0000868 0.0007708 0.0000581 0.0011144 -0.0005169 0.0001386 -0.0004464 -0.0006671 0.0003127 0.0008627 0.0004127 0.0027635
0.0007998 0.0029708 0.0002684 0.0002318 0.0007423 0.0020868 -0.0000902 0.0001923 -0.0000985 0.0005135 0.0000314 0.0009936 -0.0005235 -0.0000754 -0.0004452 -0.0008293 0.0003191 0.0007228 0.0004398 0.0027141
0.0011138 0.0025691 0.0003157 0.0002448 0.0007918 0.0021052 -0.0001153 0.0000914 -0.0000812 0.0005380 0.0000641 0.0009633 -0.0004930 0.0000828 -0.0004266 -0.0006654 0.0003268 0.0008365 0.0004295 0.0029660
0.0008914 0.0028923 0.0003886 0.0004093 0.0008487 0.0023805 -0.0001745 0.0002496 -0.0000302 0.0007766 0.0000791 0.0010780 -0.0004771 0.0003480 -0.0004170 -0.0004285 0.0003030 0.0009932 0.0003709 0.0030940
0.0005943 0.0035336 0.0004424 0.0005321 0.0008177 0.0023234 -0.0002095 0.0002028 -0.0000072 0.0008084 0.0000782 0.0010189 -0.0004929 0.0002383 -0.0004210 -0.0006043 0.0002884 0.0008403 0.0003626 0.0027805
0.0000868 0.0035118 0.0004203 0.0003381 0.0007673 0.0019038 -0.0001881 -0.0001695 -0.0000241 0.0005585 0.0000651 0.0007531 -0.0004914 -0.0000559 -0.0004272 -0.0009210 0.0003053 0.0005667 0.0004081 0.0025226
-0.0001771 0.0031774 0.0003743 0.0001559 0.0007852 0.0017967 -0.0001504 -0.0003244 -0.0000555 0.0004555 0.0000595 0.0006565 -0.0004526 0.0000433 -0.0004030 -0.0008076 0.0003231 0.0006011 0.0004678 0.0028131
0.0003536 0.0028740 0.0003574 0.0001980 0.0007908 0.0019884 -0.0001409 -0.0000853 -0.0000921 0.0005296 0.0000641 0.0007016 -0.0004120 0.0003396 -0.0003798 -0.0004815 0.0003118 0.0007547 0.0004812 0.0032923
0.0008076 0.0027213 0.0003284 0.0003622 0.0007233 0.0020177 -0.0001710 0.0000912 -0.0001058 0.0005063 0.0000647 0.0006449 -0.0004096 0.0003231 -0.0003362 -0.0003574 0.0002803 0.0005770 0.0005172 0.0033008
0.0006244 0.0025786 0.0002931 0.0001585 0.0006693 0.0016779 -0.0002164 -0.0003359 -0.0001221 0.0002055 0.0000612 0.0004254 -0.0004404 -0.0000187 -0.0002990 -0.0005688 0.0002736 0.0002177 0.0006056 0.0030814
0.0003960 0.0023960 0.0003180 -0.0001780 0.0007565 0.0016180 -0.0002314 -0.0007078 -0.0001521 -0.0000059 0.0000547 0.0003270 -0.0004055 -0.0000336 -0.0002520 -0.0004720 0.0003079 0.0002789 0.0007278 0.0035186
0.0001774 0.0025385 0.0003180 -0.0001374 0.0008303 0.0019640 -0.0002024 -0.0004559 -0.0001776 0.0000778 0.0000433 0.0003708 -0.0003330 0.0002615 -0.0001967 -0.0001616 0.0003222 0.0004688 0.0007547 0.0039246
0.0000597 0.0027079 0.0002678 0.0000522 0.0008085 0.0022540 -0.0001813 -0.0000247 -0.0001948 0.0002773 0.0000647 0.0004516 -0.0002731 0.0004825 -0.0001932 -0.0002232 0.0003098 0.0004601 0.0006523 0.0036283
0.0002032 0.0027855 0.0002430 0.0000657 0.0007451 0.0020807 -0.0001933 -0.0001626 -0.0002063 0.0001834 0.0000425 0.0003239 -0.0003087 0.0002085 -0.0002397 -0.0006626 0.0003060 0.0002528 0.0006143 0.0031274
0.0004052 0.0023633 0.0002005 -0.0003512 0.0007751 0.0018254 -0.0002081 -0.0005601 -0.0001950 0.0000217 -0.0000055 0.0000878 -0.0003441 -0.0000655 -0.0002576 -0.0008666 0.0003140 0.0001839 0.0006434 0.0031447
0.0006167 0.0019120 0.0001945 -0.0004957 0.0008280 0.0019644 -0.0001923 -0.0003785 -0.0001646 0.0001871 -0.0000387 0.0000787 -0.0003024 0.0001163 -0.0002269 -0.0005958 0.0003322 0.0004587 0.0006952 0.0037328
0.0005686 0.0021124 0.0002328 -0.0001852 0.0007905 0.0022244 -0.0002099 0.0000374 -0.0001848 0.0003805 -0.0000603 0.0001332 -0.0002844 0.0003821 -0.0001833 -0.0001589 0.0003220 0.0007805 0.0007127 0.0042088
0.0003757 0.0024166 0.0002542 -0.0000525 0.0007398 0.0022527 -0.0002691 0.0000891 -0.0002184 0.0003382 -0.0000600 -0.0000120 -0.0002978 0.0003171 -0.0001725 -0.0002435 0.0003052 0.0006991 0.0006878 0.0039694
0.0003725 0.0024496 0.0002392 -0.0001907 0.0006867 0.0019590 -0.0002805 -0.0001383 -0.0002166 0.0002378 -0.0000508 -0.0002184 -0.0002998 0.0001261 -0.0001941 -0.0005773 0.0003190 0.0005344 0.0006711 0.0036838
0.0001512 0.0024565 0.0002016 -0.0003059 0.0006845 0.0019713 -0.0002710 -0.0000460 -0.0002093 0.0003507 -0.0000476 -0.0002481 -0.0002957 0.0001872 -0.0002131 -0.0005292 0.0003301 0.0007212 0.0006446 0.0039316
0.0001422 0.0031406 0.0002191 -0.0000647 0.0006846 0.0023045 -0.0002587 0.0004032 -0.0001984 0.0006306 -0.0000705 -0.0002432 -0.0003051 0.0003422 -0.0002501 -0.0003816 0.0003151 0.0010148 0.0005736 0.0042956
0.0005613 0.0033921 0.0003064 0.0002099 0.0006497 0.0024692 -0.0002793 0.0007508 -0.0001866 0.0007701 -0.0001162 -0.0003220 -0.0003383 0.0002860 -0.0002883 -0.0005168 0.0002843 0.0009825 0.0005066 0.0041128
0.0007138 0.0029854 0.0003462 0.0001865 0.0006196 0.0022484 -0.0003583 0.0006356 -0.0001914 0.0006485 -0.0001466 -0.0004056 -0.0003625 0.0001097 -0.0002952 -0.0007514 0.0002778 0.0008244 0.0004911 0.0037947
0.0004028 0.0029611 0.0003272 0.0002193 0.0005837 0.0021016 -0.0003855 0.0005668 -0.0002067 0.0006120 -0.0001084 -0.0004292 -0.0003524 0.0002281 -0.0002141 -0.0003045 0.0003068 0.0010310 0.0005903 0.0043591
0.0000956 0.0030947 0.0003149 0.0003439 0.0005511 0.0023105 -0.0003659 0.0009027 -0.0002186 0.0007735 -0.0001087 -0.0002765 -0.0003676 0.0004587 -0.0001941 0.0001476 0.0002975 0.0013205 0.0006077 0.0049493
0.0000071 0.0039072 0.0003462 0.0005937 0.0005488 0.0025975 -0.0004150 0.0011353 -0.0002437 0.0007873 -0.0001465 -0.0001955 -0.0004007 0.0004369 -0.0002798 -0.0001646 0.0002547 0.0012313 0.0004724 0.0045597
0.0001228 0.0038042 0.0003240 0.0004560 0.0005660 0.0025310 -0.0005217 0.0008423 -0.0002543 0.0005952 -0.0001732 -0.0003074 -0.0004240 0.0002483 -0.0003174 -0.0005162 0.0002309 0.0009997 0.0004406 0.0042647
0.0004489 0.0029111 0.0003031 0.0002893 0.0006110 0.0025051 -0.0005653 0.0007114 -0.0002517 0.0005693 -0.0001928 -0.0003729 -0.0004370 0.0002968 -0.0002987 -0.0003252 0.0002198 0.0010946 0.0004756 0.0047365
0.0006953 0.0029635 0.0003434 0.0006554 0.0006138 0.0028412 -0.0005471 0.0012402 -0.0002532 0.0008597 -0.0002127 -0.0001807 -0.0004244 0.0006048 -0.0002994 -0.0000065 0.0002041 0.0013691 0.0004262 0.0051499
0.0007383 0.0032518 0.0003663 0.0008893 0.0005405 0.0029193 -0.0005722 0.0016434 -0.0002495 0.0010519 -0.0001916 -0.0000715 -0.0004594 0.0005865 -0.0003496 -0.0002018 0.0001821 0.0013226 0.0003283 0.0048744
0.0004309 0.0035508 0.0004003 0.0008672 0.0004911 0.0026742 -0.0006263 0.0015265 -0.0002573 0.0009643 -0.0001591 -0.0002132 -0.0005094 0.0003689 -0.0003825 -0.0005329 0.0001711 0.0011081 0.0002969 0.0044841
0.0001932 0.0034534 0.0004005 0.0007858 0.0004787 0.0025830 -0.0006675 0.0014786 -0.0002700 0.0009663 -0.0001673 -0.0002221 -0.0005033 0.0004505 -0.0004018 -0.0004995 0.0001725 0.0012075 0.0003019 0.0047242
0.0004806 0.0037629 0.0003844 0.0010516 0.0004208 0.0028196 -0.0006737 0.0019342 -0.0002807 0.0011960 -0.0001960 -0.0000961 -0.0004978 0.0006957 -0.0004233 -0.0003034 0.0001591 0.0014239 0.0002324 0.0048988
0.0004725 0.0042646 0.0003658 0.0011986 0.0003486 0.0027739 -0.0006932 0.0021203 -0.0002973 0.0012430 -0.0001970 -0.0001486 -0.0005135 0.0006441 -0.0004362 -0.0004647 0.0001249 0.0012746 0.0000972 0.0044427
0.0003427 0.0037095 0.0003182 0.0009783 0.0003046 0.0025049 -0.0007177 0.0020726 -0.0002969 0.0012151 -0.0001733 -0.0003229 -0.0005327 0.0004469 -0.0004394 -0.0007527 0.0001153 0.0010381 0.0000123 0.0040481
0.0004734 0.0029252 0.0002889 0.0008854 0.0002538 0.0025013 -0.0007120 0.0024150 -0.0002851 0.0014610 -0.0001622 -0.0002136 -0.0005361 0.0005813 -0.0004481 -0.0006186 0.0001120 0.0011686 -0.0000454 0.0042391
0.0003419 0.0028170 0.0002629 0.0009817 0.0001870 0.0027391 -0.0007360 0.0029679 -0.0002768 0.0018419 -0.0001481 0.0000770 -0.0005795 0.0006855 -0.0004732 -0.0005258 0.0000646 0.0012024 -0.0001433 0.0041487
-0.0001310 0.0029698 0.0002314 0.0009726 0.0001207 0.0027208 -0.0007912 0.0030836 -0.0002681 0.0019614 -0.0001431 0.0001696 -0.0006649 0.0004663 -0.0005073 -0.0007364 0.0000103 0.0009634 -0.0002133 0.0037536
-0.0003140 0.0029347 0.0002173 0.0009183 0.0000812 0.0025323 -0.0008178 0.0029624 -0.0002574 0.0019044 -0.0001564 0.0001988 -0.0007135 0.0002817 -0.0005415 -0.0008639 -0.0000111 0.0008416 -0.0002255 0.0037532
-0.0001290 0.0026593 0.0001821 0.0010301 0.0000546 0.0026653 -0.0008059 0.0031964 -0.0002552 0.0020599 -0.0001661 0.0004259 -0.0007197 0.0004321 -0.0005623 -0.0006711 -0.0000251 0.0010087 -0.0002534 0.0041092
0.0001566 0.0024259 0.0001038 0.0011737 0.0000005 0.0028862 -0.0008199 0.0035040 -0.0002639 0.0021344 -0.0001493 0.0005445 -0.0007410 0.0004497 -0.0005735 -0.0006810 -0.0000399 0.0009956 -0.0002980 0.0040011
0.0004120 0.0022716 0.0000748 0.0011609 -0.0000507 0.0027590 -0.0008586 0.0034642 -0.0002660 0.0020375 -0.0001204 0.0005537 -0.0007624 0.0003457 -0.0005719 -0.0008217 -0.0000391 0.0008602 -0.0003071 0.0036954
0.0006122 0.0018734 0.0001163 0.0010755 -0.0000616 0.0025858 -0.0008970 0.0033824 -0.0002593 0.0020354 -0.0001196 0.0006837 -0.0007462 0.0004501 -0.0005610 -0.0006966 -0.0000256 0.0009475 -0.0003019 0.0038451
0.0004728 0.0019587 0.0001457 0.0011641 -0.0000528 0.0028010 -0.0009246 0.0036736 -0.0002576 0.0022197 -0.0000815 0.0008470 -0.0007316 0.0007177 -0.0005423 -0.0003927 -0.0000286 0.0011425 -0.0003393 0.0039352
-0.0002764 0.0025656 0.0001341 0.0011928 -0.0000849 0.0027748 -0.0009480 0.0036444 -0.0002597 0.0021704 -0.0000625 0.0008371 -0.0007789 0.0005890 -0.0005512 -0.0005082 -0.0000393 0.0009968 -0.0003616 0.0035678
-0.0005496 0.0025464 0.0001146 0.0010558 -0.0000980 0.0024802 -0.0009668 0.0033159 -0.0002529 0.0019646 -0.0000948 0.0006966 -0.0008199 0.0002798 -0.0005672 -0.0007911 -0.0000249 0.0007645 -0.0003288 0.0033083
0.0003536 0.0019571 0.0001141 0.0010261 -0.0000677 0.0024642 -0.0009663 0.0033091 -0.0002458 0.0019855 -0.0000890 0.0007058 -0.0008071 0.0003772 -0.0005625 -0.0006628 0.0000011 0.0009146 -0.0003063 0.0035714
0.0007522 0.0017524 0.0001072 0.0011752 -0.0000622 0.0027239 -0.0009545 0.0036334 -0.0002399 0.0021632 -0.0000857 0.0008438 -0.0008123 0.0004871 -0.0005615 -0.0005942 0.0000104 0.0010052 -0.0003195 0.0035343
0.0004882 0.0018281 0.0000981 0.0011450 -0.0000915 0.0026184 -0.0009645 0.0035651 -0.0002303 0.0020942 -0.0001094 0.0007900 -0.0008530 0.0003033 -0.0005702 -0.0008056 0.0000180 0.0008467 -0.0003157 0.0031586
0.0003298 0.0019024 0.0001317 0.0009388 -0.0000892 0.0023153 -0.0009852 0.0032280 -0.0002268 0.0018889 -0.0001116 0.0007171 -0.0008643 0.0001859 -0.0005672 -0.0009057 0.0000332 0.0007423 -0.0002790 0.0030344
0.0000036 0.0020280 0.0001839 0.0008591 -0.0000183 0.0023896 -0.0009894 0.0032414 -0.0002240 0.0019397 -0.0000985 0.0009029 -0.0008277 0.0003942 -0.0005601 -0.0006887 0.0000366 0.0008692 -0.0002616 0.0032805
-0.0004173 0.0022756 0.0001906 0.0009562 0.0000319 0.0026616 -0.0009851 0.0034767 -0.0002361 0.0020541 -0.0000542 0.0010745 -0.0008222 0.0005432 -0.0005663 -0.0005995 0.0000221 0.0009083 -0.0002797 0.0032108
-0.0003012 0.0023732 0.0001731 0.0009624 0.0000292 0.0025620 -0.0009904 0.0033287 -0.0002459 0.0019098 -0.0000383 0.0010565 -0.0008466 0.0003867 -0.0005796 -0.0008116 0.0000145 0.0007118 -0.0002731 0.0027648
0.0002056 0.0020106 0.0001692 0.0008353 0.0000872 0.0023470 -0.0009847 0.0029559 -0.0002112 0.0017713 -0.0000488 0.0010309 -0.0008350 0.0003031 -0.0005881 -0.0008748 0.0000178 0.0006041 -0.0002563 0.0026747
0.0003884 0.0017559 0.0001853 0.0009343 0.0001348 0.0024938 -0.0009347 0.0031207 -0.0001850 0.0019412 -0.0000398 0.0011320 -0.0008087 0.0005094 -0.0005926 -0.0006368 0.0000423 0.0008878 -0.0002095 0.0031440
0.0003319 0.0018715 0.0002063 0.0011783 0.0000689 0.0027065 -0.0009148 0.0035367 -0.0002044 0.0021535 -0.0000512 0.0012838 -0.0008165 0.0006970 -0.0006046 -0.0004535 0.0000563 0.0011641 -0.0001599 0.0034004
0.0001696 0.0019770 0.0002172 0.0012032 0.0000036 0.0025852 -0.0009417 0.0034505 -0.0002303 0.0020603 -0.0000881 0.0012658 -0.0008602 0.0005851 -0.0006302 -0.0005596 0.0000447 0.0010519 -0.0001222 0.0031828
0.0000078 0.0020276 0.0002216 0.0011310 -0.0000050 0.0023451 -0.0009597 0.0031054 -0.0002433 0.0018470 -0.0001037 0.0011977 -0.0008776 0.0004964 -0.0006555 -0.0006116 0.0000482 0.0009939 -0.0000627 0.0032842
-0.0000986 0.0020923 0.0002261 0.0012214 0.0000116 0.0024455 -0.0009520 0.0031956 -0.0002519 0.0019047 -0.0000608 0.0012762 -0.0008641 0.0007154 -0.0006719 -0.0003707 0.0000476 0.0011981 -0.0000487 0.0036676
-0.0000653 0.0022099 0.0002108 0.0013978 0.0000156 0.0027045 -0.0009364 0.0034988 -0.0002608 0.0020824 -0.0000602 0.0014063 -0.0008820 0.0008603 -0.0006934 -0.0002318 0.0000262 0.0012867 -0.0000743 0.0036557
0.0003982 0.0020516 0.0002135 0.0014874 0.0000214 0.0026979 -0.0009446 0.0034081 -0.0002601 0.0020331 -0.0000852 0.0013840 -0.0009265 0.0007285 -0.0007230 -0.0003664 0.0000120 0.0011263 -0.0000952 0.0033204
0.0006834 0.0016336 0.0002452 0.0014435 0.0000526 0.0025282 -0.0009385 0.0031264 -0.0002483 0.0018918 -0.0001083 0.0013300 -0.0009462 0.0006729 -0.0007434 -0.0004177 0.0000254 0.0010545 -0.0000911 0.0032717
0.0004925 0.0017269 0.0002615 0.0014395 0.0000975 0.0026343 -0.0009200 0.0032264 -0.0002417 0.0019643 -0.0001054 0.0014445 -0.0009375 0.0009260 -0.0007518 -0.0001961 0.0000310 0.0012020 -0.0001035 0.0034644
0.0002479 0.0022605 0.0002857 0.0015201 0.0001191 0.0028859 -0.0009204 0.0034756 -0.0002325 0.0020448 -0.0001010 0.0015281 -0.0009530 0.0010005 -0.0007638 -0.0001874 0.0000188 0.0011335 -0.0001319 0.0031988
-0.0001816 0.0024899 0.0002858 0.0014490 0.0001089 0.0026997 -0.0008995 0.0032765 -0.0002084 0.0019498 -0.0001195 0.0014691 -0.0009775 0.0008404 -0.0007784 -0.0003870 0.0000244 0.0008919 -0.0001158 0.0027639
-0.0002997 0.0022419 0.0002656 0.0013214 0.0001122 0.0023748 -0.0008311 0.0029552 -0.0001822 0.0018727 -0.0001276 0.0014606 -0.0009857 0.0008342 -0.0007991 -0.0003679 0.0000461 0.0008828 -0.0000682 0.0028422
0.0003012 0.0018732 0.0002761 0.0013776 0.0001364 0.0024853 -0.0007736 0.0030816 -0.0001767 0.0019796 -0.0001128 0.0015364 -0.0009874 0.0010400 -0.0008147 -0.0001392 0.0000497 0.0010776 -0.0000697 0.0031146
0.0007260 0.0018689 0.0002625 0.0014253 0.0001384 0.0025571 -0.0007842 0.0031334 -0.0001775 0.0019472 -0.0001168 0.0014809 -0.0010250 0.0009906 -0.0008254 -0.0002257 0.0000345 0.0009547 -0.0000924 0.0028405
0.0004225 0.0020386 0.0002638 0.0012882 0.0001504 0.0023424 -0.0008019 0.0027735 -0.0001743 0.0017371 -0.0001379 0.0013894 -0.0010654 0.0007805 -0.0008249 -0.0004809 0.0000365 0.0006818 -0.0000656 0.0024454
0.0001054 0.0020822 0.0003235 0.0011872 0.0001989 0.0022374 -0.0007457 0.0025481 -0.0001698 0.0016818 -0.0001330 0.0014374 -0.0010372 0.0009157 -0.0007993 -0.0003335 0.0000617 0.0007884 -0.0000199 0.0026634
-0.0000658 0.0024767 0.0003637 0.0013128 0.0002428 0.0024446 -0.0007043 0.0027519 -0.0001700 0.0018174 -0.0001112 0.0015925 -0.0009885 0.0011959 -0.0007608 -0.0000794 0.0000741 0.0009623 -0.0000159 0.0027290
-0.0000024 0.0025897 0.0003468 0.0012992 0.0002767 0.0024011 -0.0007043 0.0025556 -0.0001716 0.0016841 -0.0001264 0.0015432 -0.0009987 0.0010640 -0.0007599 -0.0002474 0.0000552 0.0007677 -0.0000508 0.0022710
0.0002840 0.0022875 0.0003600 0.0011421 0.0003440 0.0022057 -0.0006990 0.0020846 -0.0001592 0.0014181 -0.0001167 0.0013634 -0.0009963 0.0008460 -0.0007537 -0.0004629 0.0000583 0.0005572 -0.0000434 0.0019944
0.0005062 0.0021683 0.0003988 0.0011732 0.0003897 0.0022292 -0.0006598 0.0020536 -0.0001408 0.0014413 -0.0000846 0.0013261 -0.0009595 0.0009716 -0.0007345 -0.0003248 0.0000826 0.0006991 -0.0000152 0.0022681
0.0005434 0.0022588 0.0004117 0.0013111 0.0003718 0.0023837 -0.0006182 0.0022843 -0.0001223 0.0015105 -0.0000984 0.0012591 -0.0009782 0.0009070 -0.0007392 -0.0004109 0.0000810 0.0006380 -0.0000338 0.0020922
0.0002687 0.0023244 0.0003982 0.0012526 0.0003404 0.0021898 -0.0005854 0.0020834 -0.0001079 0.0013792 -0.0001032 0.0010847 -0.0010016 0.0006331 -0.0007360 -0.0006901 0.0000922 0.0003815 -0.0000095 0.0016535
0.0000887 0.0021049 0.0003726 0.0010823 0.0003258 0.0019128 -0.0005186 0.0017539 -0.0001150 0.0012038 -0.0001063 0.0009495 -0.0009734 0.0005697 -0.0007143 -0.0007149 0.0001201 0.0003303 0.0000473 0.0016585
0.0003334 0.0018747 0.0003522 0.0010951 0.0003281 0.0020332 -0.0004731 0.0018693 -0.0001322 0.0012274 -0.0001102 0.0009591 -0.0009442 0.0007106 -0.0007024 -0.0005453 0.0001216 0.0004565 0.0000683 0.0018762
0.0004076 0.0018337 0.0003092 0.0011434 0.0002964 0.0020568 -0.0004415 0.0019346 -0.0001275 0.0012182 -0.0001403 0.0008756 -0.0009536 0.0005934 -0.0007034 -0.0006706 0.0001121 0.0003225 0.0000723 0.0016468
0.0004565 0.0015914 0.0002642 0.0010313 0.0002642 0.0018395 -0.0004082 0.0017027 -0.0001098 0.0010850 -0.0001348 0.0006999 -0.0009426 0.0003759 -0.0006756 -0.0008870 0.0001314 0.0000895 0.0001183 0.0013542
0.0005769 0.0013151 0.0002775 0.0008909 0.0002812 0.0017632 -0.0003473 0.0016672 -0.0000831 0.0011198 -0.0001091 0.0007052 -0.0009009 0.0004399 -0.0006429 -0.0007884 0.0001576 0.0001612 0.0001517 0.0015877
0.0003413 0.0013995 0.0002969 0.0009361 0.0003010 0.0019937 -0.0002934 0.0019962 -0.0000654 0.0013217 -0.0001049 0.0008420 -0.0008675 0.0006320 -0.0006374 -0.0005554 0.0001563 0.0003656 0.0001228 0.0019081
-0.0002009 0.0017642 0.0002770 0.0010521 0.0002847 0.0021924 -0.0002925 0.0022127 -0.0000646 0.0014050 -0.0001310 0.0009328 -0.0008855 0.0005643 -0.0006501 -0.0006148 0.0001334 0.0003054 0.0000837 0.0017276
-0.0002114 0.0017746 0.0002288 0.0009970 0.0002494 0.0020559 -0.0002852 0.0020435 -0.0000593 0.0013291 -0.0001365 0.0008328 -0.0009017 0.0003246 -0.0006543 -0.0008356 0.0001287 0.0001026 0.0000804 0.0013574
0.0002445 0.0013142 0.0001856 0.0008890 0.0002420 0.0019264 -0.0002690 0.0019365 -0.0000456 0.0013534 -0.0001068 0.0007513 -0.0008779 0.0003262 -0.0006427 -0.0007757 0.0001415 0.0001432 0.0000919 0.0015066
0.0004677 0.0011158 0.0001721 0.0009343 0.0002553 0.0020968 -0.0002632 0.0021676 -0.0000423 0.0015093 -0.0001146 0.0008414 -0.0008576 0.0005097 -0.0006318 -0.0005611 0.0001387 0.0003273 0.0000607 0.0018268
0.0004781 0.0013092 0.0001784 0.0010205 0.0002440 0.0022579 -0.0002748 0.0023558 -0.0000423 0.0015617 -0.0001477 0.0008563 -0.0008765 0.0004611 -0.0006358 -0.0006179 0.0001248 0.0002691 0.0000257 0.0016214
0.0003725 0.0013152 0.0001716 0.0008920 0.0002175 0.0020827 -0.0002892 0.0021670 -0.0000308 0.0014513 -0.0001760 0.0007333 -0.0008990 0.0002375 -0.0006362 -0.0008474 0.0001291 0.0000506 0.0000429 0.0012410
0.0002354 0.0012345 0.0001417 0.0007144 0.0002244 0.0019051 -0.0002680 0.0019708 -0.0000192 0.0014140 -0.0001789 0.0006826 -0.0008683 0.0002681 -0.0006188 -0.0007809 0.0001598 0.0001115 0.0000846 0.0014048
0.0001048 0.0012967 0.0001258 0.0007170 0.0002424 0.0020569 -0.0002160 0.0021840 -0.0000023 0.0015771 -0.0001710 0.0007165 -0.0008443 0.0004286 -0.0006149 -0.0005686 0.0001794 0.0003259 0.0000761 0.0017094
0.0001535 0.0013740 0.0001058 0.0007723 0.0002393 0.0022238 -0.0001943 0.0023605 0.0000140 0.0016518 -0.0001447 0.0006272 -0.0008626 0.0003489 -0.0006203 -0.0006542 0.0001809 0.0002589 0.0000325 0.0013941
0.0003996 0.0011905 0.0000622 0.0005778 0.0002232 0.0020027 -0.0001921 0.0021241 0.0000363 0.0015158 -0.0001494 0.0004382 -0.0008762 0.0000676 -0.0006008 -0.0009591 0.0002054 -0.0000167 0.0000425 0.0008093
0.0004845 0.0007740 0.0000171 0.0002411 0.0002303 0.0017370 -0.0001438 0.0018849 0.0000660 0.0014769 -0.0001798 0.0003621 -0.0008486 0.0000024 -0.0005603 -0.0009970 0.0002560 -0.0000266 0.0000924 0.0007984
0.0003374 0.0006974 -0.0000264 0.0000919 0.0002568 0.0018775 -0.0000947 0.0020720 0.0000797 0.0016049 -0.0001983 0.0004058 -0.0008209 0.0001351 -0.0005373 -0.0008202 0.0002867 0.0001671 0.0001093 0.0010827
0.0002323 0.0008751 -0.0000520 0.0001239 0.0002677 0.0021360 -0.0000765 0.0023965 0.0000826 0.0017333 -0.0001897 0.0003775 -0.0008184 0.0001471 -0.0005269 -0.0008093 0.0002893 0.0001857 0.0000901 0.0009611
0.0000513 0.0008932 -0.0000862 0.0000207 0.0002544 0.0020077 -0.0000604 0.0022088 0.0000875 0.0016130 -0.0001899 0.0001642 -0.0008201 -0.0000960 -0.0005120 -0.0010527 0.0002997 -0.0000353 0.0001038 0.0005133
0.0000225 0.0005752 -0.0001320 -0.0002535 0.0002546 0.0017153 -0.0000306 0.0018581 0.0000995 0.0014531 -0.0002063 0.0000375 -0.0007869 -0.0002201 -0.0004825 -0.0011151 0.0003302 -0.0000845 0.0001545 0.0005125
0.0002885 0.0002600 -0.0001344 -0.0003425 0.0002826 0.0017942 0.0000022 0.0019935 0.0001071 0.0015377 -0.0002027 0.0000860 -0.0007414 -0.0000427 -0.0004478 -0.0008886 0.0003486 0.0001188 0.0001551 0.0008585
0.0003939 0.0003459 -0.0001365 -0.0002302 0.0002919 0.0020434 -0.0000120 0.0023032 0.0000962 0.0017108 -0.0002019 0.0001550 -0.0007365 0.0001423 -0.0004568 -0.0006225 0.0003329 0.0003730 0.0001054 0.0012608
0.0001284 0.0007095 -0.0001316 -0.0000727 0.0002637 0.0021981 -0.0000544 0.0024017 0.0000598 0.0016772 -0.0002479 0.0001026 -0.0007829 0.0000345 -0.0004953 -0.0007382 0.0002659 0.0002203 0.0000702 0.0010145
-0.0000938 0.0008408 -0.0001061 -0.0000732 0.0002277 0.0019915 -0.0000851 0.0020371 0.0000111 0.0013937 -0.0002699 -0.0000943 -0.0008097 -0.0001727 -0.0005076 -0.0009926 0.0002183 -0.0000804 0.0000856 0.0006193
-0.0001100 0.0007812 -0.0001017 -0.0001321 0.0002252 0.0018198 -0.0000702 0.0018356 0.0000043 0.0013428 -0.0002448 -0.0001471 -0.0007740 -0.0001005 -0.0004851 -0.0008783 0.0002341 -0.0000066 0.0001133 0.0008890
0.0000100 0.0007659 -0.0001208 -0.0000563 0.0002271 0.0019950 -0.0000534 0.0020957 0.0000196 0.0015246 -0.0002426 -0.0000822 -0.0007411 0.0000837 -0.0004412 -0.0004792 0.0002346 0.0002049 0.0001210 0.0013806
0.0001649 0.0008153 -0.0001231 0.0001294 0.0002195 0.0022904 -0.0000766 0.0024407 0.0000189 0.0016664 -0.0002539 -0.0000186 -0.0007454 0.0001432 -0.0003992 -0.0002364 0.0002156 0.0002376 0.0000908 0.0013297
0.0003086 0.0006840 -0.0001221 0.0001021 0.0002063 0.0021942 -0.0001157 0.0022953 0.0000159 0.0015589 -0.0002684 -0.0000703 -0.0007790 -0.0000267 -0.0003958 -0.0003968 0.0002160 0.0000491 0.0000956 0.0009344
0.0003054 0.0006510 -0.0001185 -0.0000552 0.0002045 0.0019067 -0.0001471 0.0019344 0.0000107 0.0013968 -0.0002447 -0.0001552 -0.0008029 -0.0001541 -0.0002869 -0.0000099 0.0002419 0.0000341 0.0002274 0.0013488
0.0000246 0.0009222 -0.0001062 -0.0000343 0.0002198 0.0019588 -0.0001125 0.0020264 0.0000071 0.0014816 -0.0002080 -0.0000266 -0.0007912 0.0000225 -0.0001860 0.0005331 0.0002659 0.0002473 0.0002996 0.0019329
-0.0001179 0.0010628 -0.0000925 0.0001135 0.0002182 0.0021781 -0.0000828 0.0023253 0.0000085 0.0016551 -0.0001985 0.0001389 -0.0007819 0.0001390 -0.0002232 0.0003932 0.0002667 0.0002816 0.0002532 0.0017177
0.0002195 0.0008331 -0.0001021 0.0000685 0.0001993 0.0020577 -0.0001014 0.0021522 0.0000181 0.0015451 -0.0002143 -0.0000079 -0.0008070 -0.0001220 -0.0002569 -0.0000114 0.0002735 0.0000234 0.0002505 0.0011293
0.0003940 0.0005392 -0.0001282 -0.0001756 0.0002043 0.0017364 -0.0000888 0.0017336 0.0000382 0.0013371 -0.0002230 -0.0002198 -0.0008014 -0.0002805 -0.0002525 -0.0001992 0.0003126 -0.0000986 0.0002954 0.0009694
0.0002964 0.0005457 -0.0001254 -0.0002303 0.0002386 0.0017747 -0.0000374 0.0017939 0.0000545 0.0014025 -0.0002009 -0.0002076 -0.0007582 -0.0001112 -0.0002230 -0.0000295 0.0003431 0.0000424 0.0003268 0.0012610
0.0001973 0.0007769 -0.0000842 -0.0001014 0.0002600 0.0019958 -0.0000070 0.0020604 0.0000534 0.0015683 -0.0001891 -0.0001089 -0.0007327 0.0000437 -0.0002010 0.0000699 0.0003382 0.0001148 0.0003145 0.0012418
0.0000140 0.0008738 -0.0000631 -0.0001117 0.0002488 0.0019021 -0.0000106 0.0019079 0.0000557 0.0014773 -0.0001954 -0.0002140 -0.0007390 -0.0001694 -0.0002143 -0.0002685 0.0003406 -0.0001086 0.0003257 0.0007283
-0.0001297 0.0007334 -0.0000856 -0.0003089 0.0002448 0.0015796 0.0000170 0.0015267 0.0000777 0.0012776 -0.0001901 -0.0004361 -0.0007281 -0.0004234 -0.0002429 -0.0006712 0.0003762 -0.0002894 0.0003663 0.0004530
0.0000312 0.0005465 -0.0001005 -0.0003969 0.0002622 0.0015787 0.0000829 0.0015661 0.0000981 0.0013313 -0.0001704 -0.0004428 -0.0006837 -0.0003311 -0.0002585 -0.0007332 0.0004069 -0.0001747 0.0003733 0.0005941
0.0002704 0.0004309 -0.0001092 -0.0003223 0.0002667 0.0017992 0.0001088 0.0018484 0.0001013 0.0014970 -0.0001714 -0.0003325 -0.0006537 -0.0001522 -0.0002753 -0.0006076 0.0004066 0.0000356 0.0003346 0.0008358
0.0002683 0.0004616 -0.0001078 -0.0002820 0.0002501 0.0018552 0.0000913 0.0018968 0.0000995 0.0014836 -0.0002059 -0.0003807 -0.0006686 -0.0002891 -0.0002895 -0.0007946 0.0003910 -0.0000957 0.0003013 0.0005167
0.0001429 0.0004103 -0.0001052 -0.0004648 0.0002358 0.0016160 0.0000837 0.0015729 0.0000989 0.0012772 -0.0002235 -0.0005951 -0.0006843 -0.0005864 -0.0002814 -0.0011181 0.0003998 -0.0003589 0.0003372 0.0001180
-0.0000733 0.0004411 -0.0001103 -0.0006300 0.0002416 0.0014975 0.0001113 0.0014294 0.0001034 0.0012450 -0.0001899 -0.0006575 -0.0006374 -0.0005410 -0.0002478 -0.0010269 0.0004257 -0.0002626 0.0003711 0.0003824
-0.0001773 0.0006382 -0.0001069 -0.0005274 0.0002541 0.0016736 0.0001226 0.0016568 0.0001046 0.0013932 -0.0001873 -0.0004812 -0.0005937 -0.0003241 -0.0002339 -0.0007477 0.0004325 0.0000044 0.0003559 0.0008343
0.0000162 0.0006390 -0.0000803 -0.0002476 0.0002549 0.0019524 0.0000982 0.0019738 0.0000930 0.0015883 -0.0002234 -0.0002867 -0.0005963 -0.0002004 -0.0002381 -0.0006235 0.0004173 0.0001455 0.0003166 0.0008784
0.0003161 0.0006238 -0.0000591 -0.0001312 0.0002301 0.0018960 0.0000492 0.0018435 0.0000835 0.0015045 -0.0002317 -0.0003975 -0.0006376 -0.0004381 -0.0002564 -0.0008326 0.0004067 0.0000084 0.0003137 0.0006067
0.0005258 0.0007384 -0.0000407 -0.0001752 0.0002186 0.0016611 0.0000084 0.0015359 0.0000857 0.0013254 -0.0002240 -0.0006152 -0.0006561 -0.0006419 -0.0002644 -0.0009484 0.0004244 -0.0000441 0.0003499 0.0006490
0.0002658 0.0009670 -0.0000080 -0.0001255 0.0002185 0.0017370 0.0000163 0.0016493 0.0000899 0.0014119 -0.0002344 -0.0005749 -0.0006317 -0.0004941 -0.0002515 -0.0007538 0.0004400 0.0001412 0.0003573 0.0009698
-0.0000658 0.0010880 0.0000148 -0.0000029 0.0001997 0.0019832 0.0000238 0.0019412 0.0000802 0.0015812 -0.0002593 -0.0004143 -0.0006257 -0.0003378 -0.0002470 -0.0005876 0.0004277 0.0002749 0.0003239 0.0010163
0.0002768 0.0009151 0.0000057 0.0000341 0.0001754 0.0019495 -0.0000010 0.0018625 0.0000727 0.0015142 -0.0002598 -0.0004750 -0.0006651 -0.0005220 -0.0002671 -0.0007686 0.0004151 0.0001248 0.0003101 0.0006896
0.0003607 0.0009674 -0.0000391 -0.0000289 0.0001654 0.0017175 -0.0000155 0.0015556 0.0000791 0.0013365 -0.0002567 -0.0006425 -0.0006789 -0.0007274 -0.0002744 -0.0009319 0.0004326 -0.0000087 0.0003304 0.0006311
0.0003367 0.0009701 -0.0000506 -0.0000077 0.0001721 0.0017531 -0.0000001 0.0015995 0.0000847 0.0013836 -0.0002663 -0.0006184 -0.0006517 -0.0005991 -0.0002470 -0.0007446 0.0004584 0.0001446 0.0003461 0.0009532
0.0004620 0.0009918 0.0000055 0.0001124 0.0001749 0.0019819 -0.0000138 0.0018796 0.0000787 0.0015275 -0.0002743 -0.0004808 -0.0006460 -0.0004502 -0.0002222 -0.0005842 0.0004570 0.0002486 0.0003291 0.0009846
0.0002510 0.0011756 0.0000256 0.0000636 0.0001699 0.0018971 -0.0000502 0.0017170 0.0000787 0.0014146 -0.0002636 -0.0006124 -0.0006718 -0.0006810 -0.0002212 -0.0008182 0.0004467 -0.0000106 0.0003074 0.0004567
-0.0001912 0.0014190 0.0000123 -0.0001241 0.0001925 0.0015827 -0.0000613 0.0012144 0.0000844 0.0011282 -0.0002538 -0.0009380 -0.0006923 -0.0010060 -0.0002229 -0.0011141 0.0004625 -0.0002750 0.0003440 0.0002152
-0.0001890 0.0015011 -0.0000068 -0.0001858 0.0002203 0.0015319 -0.0000340 0.0010960 0.0000777 0.0010150 -0.0002579 -0.0010741 -0.0006327 -0.0009000 -0.0001898 -0.0010205 0.0004775 -0.0002184 0.0003782 0.0005344
0.0001988 0.0013250 -0.0000134 -0.0000820 0.0002287 0.0016840 -0.0000314 0.0012310 0.0000721 0.0010494 -0.0002782 -0.0010230 -0.0005873 -0.0007560 -0.0001707 -0.0009350 0.0004658 -0.0001680 0.0003645 0.0005831
0.0003372 0.0012153 -0.0000070 -0.0001057 0.0002353 0.0015462 -0.0000716 0.0009604 0.0000967 0.0008946 -0.0003161 -0.0012077 -0.0006098 -0.0009927 -0.0002056 -0.0013071 0.0004391 -0.0004644 0.0003872 0.0001152
0.0002006 0.0009003 -0.0000747 -0.0004752 0.0002089 0.0011667 -0.0001089 0.0004209 0.0001486 0.0006673 -0.0003183 -0.0016393 -0.0005866 -0.0012035 -0.0002104 -0.0016968 0.0004216 -0.0008080 0.0004230 -0.0001437
-0.0000393 0.0005326 -0.0001109 -0.0006530 0.0001895 0.0010493 -0.0000970 0.0003802 0.0001858 0.0007291 -0.0003072 -0.0017037 -0.0005158 -0.0010186 -0.0001984 -0.0016437 0.0003925 -0.0008770 0.0004107 0.0000716
-0.0001786 0.0005132 -0.0000514 -0.0004576 0.0001894 0.0011567 -0.0000537 0.0007148 0.0001802 0.0008874 -0.0002655 -0.0013728 -0.0004283 -0.0006036 -0.0001843 -0.0013449 0.0003538 -0.0007691 0.0003494 0.0001896
-0.0001803 0.0006041 -0.0000116 -0.0003199 0.0001781 0.0011159 -0.0000574 0.0007171 0.0001519 0.0007979 -0.0002384 -0.0012413 -0.0004117 -0.0006569 -0.0001778 -0.0014560 0.0003452 -0.0008851 0.0003274 -0.0000870
-0.0000377 0.0006063 -0.0000063 -0.0003917 0.0002036 0.0008459 -0.0000771 0.0003379 0.0001448 0.0005618 -0.0002378 -0.0013566 -0.0004265 -0.0009792 -0.0001718 -0.0017410 0.0003639 -0.0011018 0.0003851 -0.0002003
0.0002243 0.0006188 0.0000150 -0.0004624 0.0002664 0.0008461 -0.0000688 0.0002608 0.0001345 0.0005392 -0.0001932 -0.0013279 -0.0003751 -0.0008300 -0.0001294 -0.0015771 0.0003804 -0.0009693 0.0003975 0.0002075
0.0002236 0.0007274 0.0000539 -0.0003372 0.0003044 0.0011387 -0.0000738 0.0005706 0.0001010 0.0006653 -0.0001845 -0.0011169 -0.0003179 -0.0004653 -0.0001166 -0.0012408 0.0003696 -0.0006904 0.0003449 0.0006809
0.0000063 0.0009493 0.0001035 -0.0001224 0.0002861 0.0012660 -0.0000937 0.0007776 0.0000898 0.0007314 -0.0001769 -0.0009466 -0.0003182 -0.0004580 -0.0001375 -0.0012781 0.0003517 -0.0007119 0.0002950 0.0005289
0.0000449 0.0009769 0.0001219 -0.0000459 0.0002619 0.0010594 -0.0001165 0.0006141 0.0001104 0.0006780 -0.0001795 -0.0011089 -0.0003519 -0.0007407 -0.0001624 -0.0015512 0.0003553 -0.0008923 0.0003010 0.0002552
-0.0000099 0.0010718 0.0001098 0.0000029 0.0002660 0.0009828 -0.0001307 0.0005417 0.0001078 0.0006804 -0.0002141 -0.0011785 -0.0003385 -0.0006731 -0.0001577 -0.0014412 0.0003680 -0.0007781 0.0003058 0.0005885
0.0000078 0.0010895 0.0001193 0.0001818 0.0002671 0.0012408 -0.0001457 0.0008276 0.0000763 0.0008186 -0.0001832 -0.0009720 -0.0003086 -0.0003653 -0.0001431 -0.0010907 0.0003626 -0.0004915 0.0002794 0.0011394
0.0002302 0.0010280 0.0001572 0.0003947 0.0002524 0.0015345 -0.0002022 0.0011381 0.0000518 0.0009132 -0.0001856 -0.0009123 -0.0003369 -0.0003612 -0.0001612 -0.0010405 0.0003436 -0.0004392 0.0002392 0.0011636
0.0002020 0.0011913 0.0001686 0.0004329 0.0002244 0.0014211 -0.0002596 0.0010048 0.0000349 0.0008221 -0.0002396 -0.0009818 -0.0003962 -0.0005905 -0.0001894 -0.0012136 0.0003407 -0.0005433 0.0002261 0.0009524
-0.0002036 0.0014825 0.0001688 0.0004279 0.0002103 0.0012362 -0.0002850 0.0008838 0.0000135 0.0008062 -0.0002446 -0.0009572 -0.0004128 -0.0005499 -0.0001982 -0.0011326 0.0003509 -0.0004250 0.0002258 0.0011767
-0.0003146 0.0017571 0.0001781 0.0005749 0.0002123 0.0014303 -0.0002829 0.0011911 -0.0000237 0.0009796 -0.0002409 -0.0007865 -0.0004027 -0.0002990 -0.0002059 -0.0008763 0.0003416 -0.0001802 0.0001859 0.0015817
-0.0000706 0.0018205 0.0001726 0.0007280 0.0002069 0.0016951 -0.0003095 0.0014432 -0.0000554 0.0010592 -0.0002158 -0.0006815 -0.0004285 -0.0003072 -0.0002197 -0.0008957 0.0003142 -0.0002023 0.0001204 0.0014718
0.0001315 0.0017324 0.0001521 0.0006457 0.0002100 0.0015534 -0.0003826 0.0012130 -0.0000699 0.0009135 -0.0002124 -0.0006619 -0.0004627 -0.0005112 -0.0002251 -0.0010715 0.0003050 -0.0003969 0.0000993 0.0011550
0.0002032 0.0017938 0.0001582 0.0005518 0.0002144 0.0013121 -0.0004135 0.0010189 -0.0000684 0.0008773 -0.0002383 -0.0005641 -0.0004531 -0.0004330 -0.0002149 -0.0009552 0.0003171 -0.0003234 0.0001110 0.0013707
0.0001427 0.0019779 0.0001967 0.0006600 0.0002387 0.0014798 -0.0004356 0.0012819 -0.0000718 0.0010487 -0.0002161 -0.0004691 -0.0004187 -0.0001182 -0.0001315 -0.0003481 0.0002835 -0.0001569 0.0002198 0.0022949
0.0000136 0.0022410 0.0002190 0.0007693 0.0003137 0.0017850 -0.0004734 0.0014255 -0.0000826 0.0010851 -0.0001791 -0.0004869 -0.0004195 -0.0001314 -0.0000335 0.0000776 0.0002077 -0.0003319 0.0003502 0.0028657
-0.0000897 0.0022776 0.0002113 0.0007180 0.0003670 0.0016978 -0.0004864 0.0011496 -0.0000786 0.0009322 -0.0001953 -0.0005697 -0.0004577 -0.0004417 -0.0000438 -0.0001892 0.0001757 -0.0006639 0.0003545 0.0025748
-0.0000257 0.0021563 0.0001907 0.0005961 0.0003889 0.0014576 -0.0004756 0.0009467 -0.0000730 0.0009158 -0.0001967 -0.0005214 -0.0004428 -0.0003947 -0.0000898 -0.0003873 0.0002010 -0.0006159 0.0002986 0.0024536
0.0002753 0.0021654 0.0001907 0.0006635 0.0003834 0.0015902 -0.0004639 0.0012392 -0.0000707 0.0011245 -0.0001530 -0.0003628 -0.0003989 -0.0000813 -0.0001151 -0.0002486 0.0002220 -0.0003079 0.0002088 0.0026033
0.0003437 0.0021233 0.0001982 0.0007154 0.0003503 0.0016996 -0.0004933 0.0014175 -0.0000817 0.0011701 -0.0001544 -0.0003342 -0.0004203 -0.0001127 -0.0001447 -0.0003603 0.0002132 -0.0003249 0.0001426 0.0023277
0.0001317 0.0020312 0.0001873 0.0005625 0.0003174 0.0014773 -0.0005225 0.0011864 -0.0000844 0.0010592 -0.0001738 -0.0005387 -0.0004683 -0.0004038 -0.0001725 -0.0006790 0.0002108 -0.0004979 0.0001121 0.0018627
0.0001117 0.0018982 0.0001666 0.0004471 0.0002973 0.0013132 -0.0004967 0.0011735 -0.0000785 0.0011351 -0.0001703 -0.0007572 -0.0004366 -0.0003329 -0.0001816 -0.0006814 0.0002481 -0.0002593 0.0000683 0.0018930
-0.0000376 0.0020964 0.0001397 0.0005440 0.0002529 0.0014262 -0.0004542 0.0015752 -0.0000876 0.0013947 -0.0001747 -0.0006120 -0.0003751 0.0000007 -0.0001991 -0.0004656 0.0002845 0.0001783 0.0000214 0.0022303
-0.0000477 0.0021172 0.0001142 0.0006177 0.0001897 0.0014884 -0.0004540 0.0017785 -0.0001070 0.0014664 -0.0001893 -0.0004411 -0.0003862 -0.0000233 -0.0002257 -0.0005130 0.0002715 0.0002101 -0.0000018 0.0021397
0.0002588 0.0016720 0.0001125 0.0005101 0.0001493 0.0013152 -0.0004788 0.0015769 -0.0001245 0.0013448 -0.0002034 -0.0004563 -0.0004379 -0.0002838 -0.0002451 -0.0007184 0.0002548 0.0000369 -0.0000012 0.0018865
0.0002337 0.0015790 0.0001018 0.0004606 0.0001191 0.0011862 -0.0004981 0.0015137 -0.0001295 0.0013688 -0.0002102 -0.0004318 -0.0004589 -0.0002840 -0.0002601 -0.0006164 0.0002599 0.0001814 0.0000062 0.0021795
-0.0003433 0.0020506 0.0000986 0.0006005 0.0001158 0.0014039 -0.0005060 0.0018104 -0.0001406 0.0015515 -0.0002198 -0.0002778 -0.0004502 -0.0000405 -0.0002692 -0.0003110 0.0002575 0.0005099 -0.0000109 0.0026563
-0.0005266 0.0023327 0.0000790 0.0007021 0.0001054 0.0016017 -0.0004957 0.0019966 -0.0001633 0.0016137 -0.0002040 -0.0002797 -0.0004673 -0.0000610 -0.0002867 -0.0003101 0.0002689 0.0006563 -0.0000275 0.0026188
-0.0001477 0.0019535 0.0000199 0.0006318 0.0000660 0.0014964 -0.0005049 0.0018292 -0.0001774 0.0015149 -0.0001969 -0.0004324 -0.0005155 -0.0003461 -0.0003176 -0.0005198 0.0003159 0.0007255 0.0000027 0.0024965
0.0002535 0.0014307 -0.0000677 0.0005594 0.0000293 0.0014343 -0.0005145 0.0017690 -0.0001842 0.0015245 -0.0002311 -0.0003889 -0.0005448 -0.0003693 -0.0003350 -0.0003942 0.0003910 0.0011501 0.0000644 0.0029957
0.0003792 0.0015817 -0.0000733 0.0006505 0.0000043 0.0016412 -0.0005299 0.0020401 -0.0001982 0.0016637 -0.0002531 -0.0003053 -0.0005658 -0.0001846 -0.0003431 -0.0000618 0.0004258 0.0016231 0.0000828 0.0035593
0.0002000 0.0019757 -0.0000196 0.0007379 -0.0000181 0.0018082 -0.0005775 0.0021545 -0.0002251 0.0016430 -0.0002601 -0.0003510 -0.0006121 -0.0002529 -0.0003563 -0.0000430 0.0004140 0.0016770 0.0000961 0.0035465
-0.0001705 0.0021196 -0.0000574 0.0006383 -0.0000696 0.0016365 -0.0006012 0.0018477 -0.0002849 0.0013714 -0.0002655 -0.0004635 -0.0006328 -0.0004265 -0.0003419 -0.0001858 0.0004101 0.0015309 0.0001376 0.0032456
-0.0004463 0.0018745 -0.0001618 0.0004581 -0.0001427 0.0014624 -0.0005697 0.0016535 -0.0003343 0.0012293 -0.0002866 -0.0004391 -0.0005967 -0.0002776 -0.0003093 -0.0000015 0.0004093 0.0016051 0.0001543 0.0034113
-0.0002946 0.0018029 -0.0002645 0.0004864 -0.0001874 0.0016476 -0.0005308 0.0019137 -0.0003555 0.0013423 -0.0003021 -0.0002584 -0.0005581 0.0000521 -0.0002914 0.0003551 0.0003907 0.0018207 0.0001204 0.0037355
0.0003676 0.0018355 -0.0003309 0.0005475 -0.0002267 0.0017670 -0.0005474 0.0019970 -0.0003849 0.0013097 -0.0002750 -0.0002611 -0.0005735 0.0000538 -0.0002912 0.0003376 0.0003565 0.0017130 0.0000904 0.0035601
0.0003963 0.0014139 -0.0003860 0.0003057 -0.0002666 0.0015873 -0.0005688 0.0017211 -0.0004027 0.0010855 -0.0002926 -0.0004123 -0.0005925 -0.0001285 -0.0002892 0.0001083 0.0003426 0.0014427 0.0001052 0.0032042
-0.0001185 0.0012559 -0.0003964 0.0001522 -0.0002612 0.0015021 -0.0005368 0.0016388 -0.0003927 0.0010421 -0.0003115 -0.0003909 -0.0005558 0.0000268 -0.0002713 0.0002272 0.0003535 0.0015005 0.0001438 0.0033867
-0.0000555 0.0013573 -0.0003988 0.0002813 -0.0002426 0.0017363 -0.0004871 0.0019069 -0.0003883 0.0011687 -0.0002863 -0.0003043 -0.0005204 0.0003416 -0.0002339 0.0005707 0.0003513 0.0016926 0.0001579 0.0036234
-0.0002952 0.0016884 -0.0004729 0.0003301 -0.0002606 0.0017718 -0.0004643 0.0018608 -0.0003946 0.0010835 -0.0002979 -0.0002736 -0.0005269 0.0002841 -0.0001702 0.0007284 0.0003399 0.0015980 0.0001765 0.0035283
-0.0002868 0.0014126 -0.0005363 0.0002177 -0.0002806 0.0015497 -0.0004441 0.0015273 -0.0003901 0.0008758 -0.0002746 -0.0001605 -0.0005224 0.0001140 -0.0001077 0.0007398 0.0003509 0.0014293 0.0002479 0.0035159
0.0002133 0.0008371 -0.0004882 0.0002041 -0.0002671 0.0015697 -0.0004161 0.0015072 -0.0003816 0.0008575 -0.0002098 0.0000231 -0.0004786 0.0003133 -0.0000668 0.0009733 0.0003584 0.0015551 0.0003282 0.0039877
0.0001366 0.0011456 -0.0004528 0.0003834 -0.0002639 0.0018297 -0.0004192 0.0017835 -0.0003756 0.0009650 -0.0001614 0.0001676 -0.0004494 0.0004838 -0.0000326 0.0012609 0.0003027 0.0015679 0.0004564 0.0045936
-0.0003903 0.0016113 -0.0004564 0.0004740 -0.0002730 0.0017720 -0.0004344 0.0016545 -0.0003676 0.0008249 -0.0001388 0.0001248 -0.0004578 0.0003296 -0.0000322 0.0011489 0.0002182 0.0012311 0.0005735 0.0046975
-0.0004627 0.0016724 -0.0004278 0.0004551 -0.0002260 0.0015485 -0.0003934 0.0012802 -0.0003494 0.0005820 -0.0001229 0.0000523 -0.0004283 0.0002938 -0.0000532 0.0008476 0.0001565 0.0008767 0.0005380 0.0043892
-0.0001490 0.0015139 -0.0003712 0.0005701 -0.0001299 0.0016681 -0.0003281 0.0013225 -0.0003334 0.0006341 -0.0000684 0.0003373 -0.0003282 0.0007213 -0.0000643 0.0008775 0.0000946 0.0007989 0.0003977 0.0043124
0.0000230 0.0015995 -0.0003241 0.0007796 -0.0000719 0.0020413 -0.0003138 0.0016839 -0.0003262 0.0008105 -0.0000234 0.0007208 -0.0003031 0.0009565 -0.0001031 0.0007928 0.0000474 0.0007507 0.0002659 0.0040112
0.0000318 0.0016830 -0.0003008 0.0007460 -0.0000836 0.0019950 -0.0003291 0.0016274 -0.0003123 0.0008011 -0.0000003 0.0008182 -0.0003904 0.0006887 -0.0001868 0.0004013 0.0000247 0.0005951 0.0001960 0.0035735
-0.0001034 0.0016375 -0.0002823 0.0006335 -0.0001059 0.0017904 -0.0003443 0.0013811 -0.0002931 0.0007599 0.0000379 0.0008677 -0.0004464 0.0005324 -0.0002573 0.0002477 0.0000163 0.0006201 0.0001833 0.0036738
-0.0003834 0.0017531 -0.0002990 0.0007110 -0.0001229 0.0020324 -0.0003568 0.0016497 -0.0002847 0.0009625 0.0000506 0.0011256 -0.0004538 0.0007628 -0.0003041 0.0004401 0.0000092 0.0009121 0.0001434 0.0040544
-0.0004733 0.0017128 -0.0003328 0.0008390 -0.0001547 0.0023138 -0.0003604 0.0019480 -0.0002807 0.0011136 0.0000288 0.0013388 -0.0004884 0.0007887 -0.0003512 0.0003777 -0.0000103 0.0009699 0.0000616 0.0039200
-0.0002194 0.0016605 -0.0003681 0.0008228 -0.0001918 0.0022119 -0.0003981 0.0018627 -0.0002757 0.0010886 0.0000110 0.0013809 -0.0005466 0.0005985 -0.0003845 0.0001575 -0.0000235 0.0008424 0.0000152 0.0036137
0.0003843 0.0016142 -0.0003791 0.0007492 -0.0002156 0.0020702 -0.0004484 0.0017817 -0.0002749 0.0011153 0.0000086 0.0014250 -0.0005752 0.0006569 -0.0003996 0.0002568 -0.0000224 0.0009593 -0.0000027 0.0038622
0.0003285 0.0016107 -0.0003485 0.0008334 -0.0002306 0.0023120 -0.0004677 0.0021022 -0.0002840 0.0013155 -0.0000095 0.0016055 -0.0005742 0.0009670 -0.0004081 0.0005978 -0.0000359 0.0012349 -0.0000501 0.0041861
-0.0001846 0.0017630 -0.0003223 0.0008484 -0.0002595 0.0023770 -0.0005041 0.0021994 -0.0002963 0.0013456 -0.0000006 0.0016189 -0.0006193 0.0009097 -0.0004296 0.0005235 -0.0000633 0.0011484 -0.0000861 0.0039033
0.0000075 0.0016382 -0.0003306 0.0007277 -0.0002766 0.0021398 -0.0005375 0.0019533 -0.0002988 0.0012115 -0.0000120 0.0015657 -0.0006642 0.0006829 -0.0004441 0.0002426 -0.0000630 0.0009023 -0.0000822 0.0034993
-0.0001064 0.0017947 -0.0003814 0.0007071 -0.0002721 0.0020852 -0.0005195 0.0019600 -0.0002947 0.0012727 -0.0000130 0.0016212 -0.0006455 0.0008430 -0.0004472 0.0003947 -0.0000432 0.0010279 -0.0000853 0.0037157
-0.0000992 0.0017964 -0.0004070 0.0008272 -0.0002626 0.0023342 -0.0005070 0.0023129 -0.0002985 0.0014944 0.0000206 0.0017316 -0.0006382 0.0011472 -0.0004610 0.0007233 -0.0000529 0.0012997 -0.0001274 0.0040353
0.0003578 0.0015197 -0.0003450 0.0008322 -0.0002619 0.0023977 -0.0005369 0.0024018 -0.0003021 0.0015033 -0.0000132 0.0017469 -0.0006928 0.0010647 -0.0004833 0.0006051 -0.0000744 0.0011767 -0.0001647 0.0036675
0.0002006 0.0015906 -0.0003176 0.0006413 -0.0002549 0.0020921 -0.0005622 0.0020824 -0.0002873 0.0013267 -0.0000384 0.0016098 -0.0007322 0.0007842 -0.0004894 0.0002714 -0.0000634 0.0008833 -0.0001441 0.0031616
-0.0006670 0.0019765 -0.0003257 0.0005480 -0.0002158 0.0019481 -0.0005520 0.0020175 -0.0002695 0.0013523 -0.0000356 0.0016092 -0.0007228 0.0008979 -0.0004822 0.0004034 -0.0000375 0.0009933 -0.0000957 0.0033479
-0.0008325 0.0023196 -0.0003275 0.0006830 -0.0001801 0.0021792 -0.0005187 0.0023328 -0.0002670 0.0015528 -0.0000201 0.0017317 -0.0007115 0.0011855 -0.0004895 0.0007525 -0.0000354 0.0012861 -0.0000927 0.0037682
-0.0002362 0.0020186 -0.0003581 0.0008463 -0.0001691 0.0025018 -0.0005222 0.0026155 -0.0002738 0.0016594 -0.0000227 0.0017932 -0.0007375 0.0011823 -0.0005060 0.0007614 -0.0000615 0.0012798 -0.0001453 0.0035930
0.0001659 0.0015755 -0.0003906 0.0007695 -0.0001693 0.0023284 -0.0005693 0.0023920 -0.0002724 0.0015277 -0.0000468 0.0016793 -0.0007985 0.0009125 -0.0005323 0.0004761 -0.0000774 0.0010435 -0.0001464 0.0031329
0.0001708 0.0015748 -0.0003577 0.0006223 -0.0001516 0.0020108 -0.0005843 0.0021361 -0.0002635 0.0014711 -0.0000688 0.0016508 -0.0008107 0.0009055 -0.0005454 0.0004968 -0.0000675 0.0010810 -0.0001074 0.0032357
-0.0001269 0.0018524 -0.0002981 0.0006819 -0.0001282 0.0021580 -0.0005779 0.0023812 -0.0002634 0.0016341 -0.0000775 0.0017528 -0.0007930 0.0011579 -0.0005522 0.0007742 -0.0000693 0.0013159 -0.0001141 0.0035815
-0.0004345 0.0021260 -0.0003066 0.0008402 -0.0001332 0.0024558 -0.0006046 0.0027555 -0.0002731 0.0018258 -0.0000874 0.0018547 -0.0008018 0.0012760 -0.0005752 0.0008797 -0.0000975 0.0013891 -0.0001560 0.0034957
-0.0005144 0.0019813 -0.0003433 0.0007970 -0.0001541 0.0023056 -0.0006248 0.0025637 -0.0002825 0.0017142 -0.0000987 0.0017604 -0.0008504 0.0010606 -0.0006089 0.0006757 -0.0001198 0.0012131 -0.0001682 0.0030953
-0.0002667 0.0018227 -0.0003653 0.0006917 -0.0001550 0.0019676 -0.0006194 0.0021728 -0.0002813 0.0015301 -0.0000940 0.0016055 -0.0008654 0.0009433 -0.0006272 0.0006275 -0.0001118 0.0011841 -0.0001401 0.0031062
0.0001350 0.0019121 -0.0003454 0.0007635 -0.0001315 0.0020403 -0.0006318 0.0023225 -0.0002794 0.0016304 -0.0000972 0.0016687 -0.0008384 0.0011629 -0.0006309 0.0008900 -0.0001032 0.0014192 -0.0001394 0.0034321
0.0000759 0.0019678 -0.0003116 0.0008900 -0.0001220 0.0022896 -0.0006489 0.0026669 -0.0002853 0.0018159 -0.0001056 0.0017805 -0.0008480 0.0012991 -0.0006421 0.0010005 -0.0001120 0.0015138 -0.0001711 0.0033062
-0.0002695 0.0019665 -0.0003025 0.0008064 -0.0001260 0.0021057 -0.0006448 0.0024565 -0.0002798 0.0017236 -0.0001128 0.0016818 -0.0008987 0.0010287 -0.0006689 0.0007497 -0.0001154 0.0013070 -0.0001570 0.0027622
-0.0001584 0.0017773 -0.0003038 0.0005934 -0.0001032 0.0017078 -0.0006135 0.0019883 -0.0002602 0.0015238 -0.0001181 0.0015315 -0.0009216 0.0008133 -0.0006870 0.0006310 -0.0000928 0.0012151 -0.0000915 0.0026395
-0.0001774 0.0018156 -0.0003162 0.0005749 -0.0000630 0.0017507 -0.0005613 0.0020799 -0.0002446 0.0016148 -0.0001279 0.0015435 -0.0008911 0.0009850 -0.0006827 0.0008488 -0.0000673 0.0014017 -0.0000686 0.0028931
-0.0001858 0.0018556 -0.0003199 0.0006656 -0.0000413 0.0019863 -0.0005400 0.0024124 -0.0002378 0.0018048 -0.0001433 0.0015858 -0.0008941 0.0010803 -0.0006892 0.0009333 -0.0000723 0.0014633 -0.0000994 0.0027352
-0.0000150 0.0016638 -0.0002961 0.0005558 -0.0000243 0.0018293 -0.0005391 0.0022112 -0.0002293 0.0016900 -0.0001773 0.0014456 -0.0009310 0.0008058 -0.0006974 0.0007051 -0.0000600 0.0012682 -0.0000992 0.0021321
-0.0001034 0.0014913 -0.0002698 0.0002821 0.0000548 0.0014693 -0.0004855 0.0017525 -0.0001821 0.0015203 -0.0001820 0.0012538 -0.0009198 0.0005936 -0.0006816 0.0005936 -0.0000110 0.0011925 -0.0000406 0.0019168
-0.0004542 0.0015260 -0.0002380 0.0002510 0.0001591 0.0015248 -0.0004132 0.0018436 -0.0001370 0.0016358 -0.0001607 0.0012714 -0.0008665 0.0007837 -0.0006585 0.0008156 0.0000196 0.0013563 0.0000016 0.0021488
-0.0005145 0.0016946 -0.0002113 0.0004216 0.0002105 0.0018041 -0.0003594 0.0021477 -0.0001370 0.0017985 -0.0001429 0.0013644 -0.0008260 0.0010446 -0.0006405 0.0010604 0.0000129 0.0015014 -0.0000093 0.0021635
-0.0002606 0.0016211 -0.0002019 0.0004240 0.0002365 0.0017489 -0.0003612 0.0019339 -0.0001475 0.0016572 -0.0001312 0.0012674 -0.0008465 0.0008384 -0.0006573 0.0008711 -0.0000076 0.0013002 -0.0000046 0.0017780
-0.0000735 0.0014624 -0.0001943 0.0003112 0.0002652 0.0014429 -0.0003831 0.0013836 -0.0001614 0.0013198 -0.0001272 0.0010587 -0.0008623 0.0005451 -0.0006802 0.0006323 -0.0000073 0.0010717 0.0000567 0.0016581
-0.0000858 0.0016225 -0.0001443 0.0003446 0.0003124 0.0014626 -0.0003747 0.0012514 -0.0001748 0.0012391 -0.0001341 0.0010372 -0.0008144 0.0007194 -0.0006619 0.0008261 -0.0000090 0.0011504 0.0001234 0.0020255
-0.0002481 0.0019647 -0.0000889 0.0004744 0.0003677 0.0017296 -0.0003858 0.0014297 -0.0001876 0.0013317 -0.0001489 0.0011624 -0.0007816 0.0009854 -0.0006570 0.0011409 -0.0000427 0.0013133 0.0001472 0.0023502
-0.0003940 0.0021837 -0.0000771 0.0005067 0.0003913 0.0017760 -0.0004155 0.0013336 -0.0001946 0.0012561 -0.0001590 0.0011245 -0.0007984 0.0008446 -0.0006810 0.0010096 -0.0000756 0.0011397 0.0001440 0.0019488
-0.0003311 0.0020060 -0.0000698 0.0003697 0.0004154 0.0015099 -0.0004071 0.0009131 -0.0001842 0.0010485 -0.0001406 0.0009081 -0.0007983 0.0005721 -0.0006888 0.0007201 -0.0000700 0.0008542 0.0001803 0.0015020
-0.0001362 0.0018432 -0.0000521 0.0003436 0.0004600 0.0014170 -0.0003683 0.0008324 -0.0001677 0.0010492 -0.0001126 0.0008797 -0.0007426 0.0007103 -0.0006677 0.0008713 -0.0000446 0.0009635 0.0002347 0.0017563
0.0000300 0.0019772 -0.0000258 0.0005304 0.0004686 0.0016052 -0.0003535 0.0011518 -0.0001634 0.0012105 -0.0001080 0.0009959 -0.0007035 0.0009944 -0.0006677 0.0011828 -0.0000374 0.0012544 0.0002499 0.0021836
-0.0000528 0.0020870 -0.0000054 0.0006532 0.0004290 0.0016176 -0.0003571 0.0012315 -0.0001669 0.0012008 -0.0001008 0.0009894 -0.0007330 0.0008854 -0.0006965 0.0010839 -0.0000414 0.0012037 0.0002633 0.0019211
-0.0002270 0.0019460 0.0000084 0.0005635 0.0003936 0.0012742 -0.0003445 0.0008940 -0.0001631 0.0010243 -0.0001402 0.0009652 -0.0007671 0.0005868 -0.0007181 0.0007811 -0.0000231 0.0009933 0.0003442 0.0014915
-0.0000506 0.0017204 0.0000160 0.0004983 0.0003976 0.0010906 -0.0003014 0.0007241 -0.0001622 0.0009956 -0.0001223 0.0010109 -0.0007448 0.0006341 -0.0007121 0.0008459 0.0000060 0.0010673 0.0004194 0.0016381
-0.0000254 0.0018288 0.0000048 0.0005805 0.0004197 0.0012550 -0.0002477 0.0009533 -0.0001615 0.0011521 -0.0000734 0.0011309 -0.0007115 0.0008467 -0.0007052 0.0010819 0.0000090 0.0012243 0.0004194 0.0018007
-0.0000585 0.0018697 0.0000028 0.0005866 0.0004349 0.0012832 -0.0002252 0.0009867 -0.0001508 0.0011552 -0.0000842 0.0011467 -0.0007114 0.0007470 -0.0007020 0.0009802 0.0000029 0.0010733 0.0004122 0.0014254
0.0000569 0.0016543 0.0000399 0.0004398 0.0004775 0.0010436 -0.0002057 0.0006706 -0.0001321 0.0009999 -0.0000705 0.0010565 -0.0006922 0.0005481 -0.0006733 0.0007507 0.0000235 0.0008141 0.0004657 0.0009812
-0.0000748 0.0014078 0.0000657 0.0003425 0.0005408 0.0009601 -0.0001478 0.0005913 -0.0001089 0.0010122 -0.0000257 0.0011216 -0.0006216 0.0006997 -0.0006406 0.0008758 0.0000546 0.0008816 0.0005220 0.0011543
-0.0005470 0.0012902 0.0000445 0.0003634 0.0005724 0.0011765 -0.0001010 0.0009096 -0.0000992 0.0011764 -0.0000166 0.0012765 -0.0005689 0.0009869 -0.0006265 0.0011369 0.0000664 0.0010952 0.0005323 0.0014058
-0.0006474 0.0012045 -0.0000180 0.0003169 0.0005515 0.0011909 -0.0000553 0.0009943 -0.0001140 0.0010727 -0.0000720 0.0010449 -0.0005358 0.0009463 -0.0005461 0.0011728 0.0000531 0.0009101 0.0004959 0.0008802
-0.0002762 0.0006876 -0.0000693 0.0000886 0.0005666 0.0009293 -0.0000039 0.0006626 -0.0000543 0.0009595 -0.0001061 0.0006259 -0.0004996 0.0006949 -0.0004547 0.0009965 0.0000532 0.0005320 0.0004914 0.0001972
-0.0000724 0.0002359 -0.0000924 -0.0001437 0.0006334 0.0008739 0.0000172 0.0004717 -0.0000061 0.0010626 -0.0000690 0.0006812 -0.0004657 0.0007028 -0.0004364 0.0010016 0.0000405 0.0003881 0.0004612 0.0000744
-0.0002323 -0.0000805 -0.0001366 -0.0003530 0.0007195 0.0010938 0.0000238 0.0005798 -0.0000211 0.0011531 -0.0000328 0.0008923 -0.0004284 0.0009158 -0.0004143 0.0012474 0.0000041 0.0003870 0.0003945 0.0000760
-0.0004300 0.0002560 -0.0000953 -0.0002858 0.0007133 0.0010302 0.0000360 0.0005460 -0.0000083 0.0011144 -0.0000151 0.0008461 -0.0004355 0.0007891 -0.0004095 0.0011493 -0.0000010 0.0002916 0.0004259 -0.0000904
-0.0003920 0.0008550 -0.0000128 -0.0000755 0.0006125 0.0006291 0.0000901 0.0003309 0.0000057 0.0009673 -0.0000355 0.0007810 -0.0004395 0.0005007 -0.0004077 0.0008852 0.0000434 0.0002186 0.0005262 -0.0001528
-0.0002515 0.0007237 0.0000123 0.0000190 0.0005635 0.0005308 0.0001863 0.0004594 0.0000212 0.0010334 -0.0000169 0.0008099 -0.0003706 0.0006343 -0.0003695 0.0010144 0.0001073 0.0004973 0.0006100 0.0002520
-0.0000638 0.0007682 0.0000281 0.0002037 0.0005426 0.0007674 0.0002297 0.0008441 0.0000292 0.0012158 0.0000481 0.0008587 -0.0003139 0.0008763 -0.0003334 0.0011700 0.0001217 0.0006666 0.0005767 0.0002591
0.0000638 0.0005548 -0.0000217 0.0000132 0.0005466 0.0006640 0.0002071 0.0006753 0.0000525 0.0011149 0.0000450 0.0007692 -0.0003120 0.0006761 -0.0003286 0.0008948 0.0000976 0.0003597 0.0004946 -0.0004382
-0.0003358 -0.0007557 -0.0002616 -0.0008763 0.0006219 0.0002913 0.0001412 -0.0001244 0.0002199 0.0011152 0.0000720 0.0007399 -0.0002211 0.0006406 -0.0002556 0.0007748 0.0000796 -0.0000869 0.0004487 -0.0011012
-0.0011721 -0.0021801 -0.0005573 -0.0017870 0.0007828 0.0003365 0.0000983 -0.0006393 0.0004555 0.0015051 0.0000818 0.0008634 -0.0000673 0.0010058 -0.0001920 0.0009750 0.0000475 -0.0002663 0.0003734 -0.0012469
-0.0014731 -0.0020485 -0.0006234 -0.0017467 0.0008873 0.0007450 0.0001834 -0.0002733 0.0005565 0.0018136 0.0000144 0.0006425 -0.0000062 0.0011676 -0.0001969 0.0010569 0.0000440 -0.0001173 0.0003527 -0.0011433
-0.0013316 -0.0008129 -0.0005099 -0.0011474 0.0006974 0.0005061 0.0002328 -0.0000743 0.0004224 0.0014940 -0.0000135 0.0003008 -0.0000658 0.0008608 -0.0002138 0.0008459 0.0001402 0.0001457 0.0005360 -0.0009118
-0.0008372 -0.0002713 -0.0003373 -0.0007896 0.0004607 -0.0001008 0.0002156 -0.0004212 0.0002541 0.0009661 0.0000242 0.0002151 -0.0001326 0.0004644 -0.0002339 0.0005625 0.0002402 0.0002978 0.0007227 -0.0005643
-0.0003479 -0.0001791 -0.0001443 -0.0005551 0.0004449 -0.0000772 0.0002380 -0.0003834 0.0002409 0.0009856 0.0000339 0.0003340 -0.0001033 0.0005759 -0.0002132 0.0007086 0.0002679 0.0004912 0.0007491 -0.0001754
-0.0003214 0.0001922 -0.0000279 -0.0002822 0.0004553 0.0002523 0.0002411 -0.0000282 0.0002371 0.0011812 0.0000229 0.0004984 -0.0000777 0.0008054 -0.0001880 0.0009246 0.0002529 0.0006447 0.0007078 -0.0000766
-0.0005693 0.0005469 -0.0000027 -0.0001884 0.0004490 0.0002913 0.0002117 -0.0000314 0.0002390 0.0011706 -0.0000246 0.0005016 -0.0001224 0.0006162 -0.0002083 0.0007625 0.0002222 0.0004737 0.0006692 -0.0004170
-0.0005409 0.0006556 -0.0000103 -0.0002452 0.0004484 0.0001233 0.0002133 -0.0002775 0.0002586 0.0010619 -0.0000468 0.0003594 -0.0001455 0.0003536 -0.0002314 0.0005527 0.0002054 0.0002647 0.0006639 -0.0005606
-0.0002492 0.0005291 -0.0000161 -0.0002200 0.0004779 0.0002547 0.0002399 -0.0002095 0.0002556 0.0011117 -0.0000122 0.0003394 -0.0000993 0.0005158 -0.0002124 0.0007182 0.0001991 0.0003417 0.0006355 -0.0003170
-0.0000788 0.0005345 -0.0000085 -0.0001005 0.0004955 0.0005469 0.0002169 0.0000790 0.0002397 0.0012461 0.0000001 0.0004129 -0.0000775 0.0006748 -0.0002004 0.0008251 0.0001783 0.0003724 0.0005666 -0.0004268
-0.0000771 0.0006510 0.0000065 -0.0001363 0.0004959 0.0004828 0.0001772 -0.0000300 0.0002427 0.0011796 0.0000265 0.0002584 -0.0001146 0.0004781 -0.0002067 0.0006285 0.0001637 0.0001673 0.0005406 -0.0008935
-0.0002109 0.0007194 0.0000184 -0.0002690 0.0005018 0.0002500 0.0001862 -0.0003014 0.0002606 0.0010324 0.0000281 0.0001128 -0.0001086 0.0003329 -0.0001976 0.0005060 0.0001821 0.0000360 0.0005757 -0.0010102
-0.0003083 0.0007932 0.0000167 -0.0002504 0.0005062 0.0003203 0.0002392 -0.0001852 0.0002608 0.0010853 0.0000360 0.0001925 -0.0000458 0.0005704 -0.0001731 0.0007014 0.0002019 0.0001775 0.0005862 -0.0007302
-0.0002744 0.0008126 0.0000120 -0.0001371 0.0005119 0.0005695 0.0002715 0.0000900 0.0002521 0.0012020 0.0000376 0.0002437 -0.0000279 0.0006744 -0.0001639 0.0007375 0.0001946 0.0001625 0.0005392 -0.0009233
-0.0001565 0.0007399 -0.0000116 -0.0002276 0.0004891 0.0004261 0.0002585 -0.0001217 0.0002563 0.0010692 0.0000146 0.0001033 -0.0000610 0.0003773 -0.0001593 0.0004381 0.0001974 -0.0001177 0.0005235 -0.0015069
0.0000137 0.0005891 -0.0000351 -0.0004948 0.0004752 0.0000643 0.0002559 -0.0005919 0.0002678 0.0008428 0.0000120 -0.0000444 -0.0000581 0.0001798 -0.0001299 0.0002874 0.0002350 -0.0002360 0.0005635 -0.0015927
-0.0000886 0.0005617 -0.0000214 -0.0005880 0.0004970 0.0001239 0.0002845 -0.0005603 0.0002777 0.0008839 0.0000224 0.0000127 -0.0000014 0.0003647 -0.0000858 0.0004574 0.0002608 -0.0001275 0.0005584 -0.0013484
-0.0003229 0.0006763 0.0000057 -0.0005369 0.0005481 0.0004229 0.0002905 -0.0003403 0.0002610 0.0009596 0.0000311 0.0000665 0.0000124 0.0004083 -0.0000697 0.0004644 0.0002529 -0.0001745 0.0005151 -0.0015357
-0.0001686 0.0005387 -0.0000144 -0.0005987 0.0005440 0.0003085 0.0002895 -0.0005687 0.0002287 0.0007765 -0.0000081 -0.0000459 -0.0000230 0.0000973 -0.0000696 0.0001660 0.0002549 -0.0004277 0.0005184 -0.0019670
-0.0001466 0.0004261 -0.0000683 -0.0007551 0.0004940 -0.0000415 0.0003264 -0.0009050 0.0002212 0.0005905 -0.0000211 -0.0001457 0.0000105 -0.0000427 -0.0000417 0.0000399 0.0002961 -0.0005056 0.0005665 -0.0019163
-0.0001656 0.0004037 -0.0000795 -0.0007414 0.0004831 0.0000360 0.0003793 -0.0007237 0.0002236 0.0006982 0.0000506 -0.0000495 0.0000905 0.0002090 0.0000006 0.0002311 0.0003325 -0.0003008 0.0005914 -0.0015074
-0.0000737 0.0004047 -0.0000443 -0.0005702 0.0004654 0.0003046 0.0003941 -0.0003591 0.0002095 0.0008937 0.0001049 0.0001028 0.0001222 0.0004957 0.0000061 0.0004933 0.0003308 -0.0000153 0.0005663 -0.0010182
-0.0002055 0.0005825 -0.0000299 -0.0004339 0.0004182 0.0004222 0.0003356 -0.0002573 0.0001852 0.0008818 0.0001101 0.0000796 0.0000795 0.0003275 -0.0000231 0.0003401 0.0003068 -0.0001195 0.0005252 -0.0012781
-0.0005193 0.0006638 -0.0000627 -0.0005287 0.0003564 0.0001653 0.0002797 -0.0006137 0.0001712 0.0006601 0.0000845 -0.0000712 0.0000152 -0.0000775 -0.0000437 -0.0000239 0.0003060 -0.0004059 0.0005464 -0.0017403
-0.0005009 0.0005752 -0.0000947 -0.0006302 0.0003295 0.0000043 0.0003050 -0.0007936 0.0001682 0.0006107 0.0000926 -0.0000792 0.0000354 -0.0000686 -0.0000241 0.0000229 0.0003332 -0.0003304 0.0005977 -0.0014539
-0.0002024 0.0004808 -0.0001007 -0.0005011 0.0003400 0.0002339 0.0003249 -0.0005847 0.0001503 0.0007207 0.0001115 0.0000672 0.0000823 0.0001815 -0.0000005 0.0002847 0.0003399 -0.0000952 0.0006090 -0.0009360
-0.0001000 0.0005770 -0.0000952 -0.0002783 0.0003317 0.0005764 0.0002822 -0.0002609 0.0001163 0.0008679 0.0001107 0.0002272 0.0000863 0.0004645 -0.0000065 0.0005999 0.0003138 0.0001576 0.0005762 -0.0005983
-0.0001654 0.0008018 -0.0000849 -0.0002169 0.0002985 0.0006285 0.0002176 -0.0002835 0.0000890 0.0008200 0.0000747 0.0002520 0.0000225 0.0003215 -0.0000440 0.0004810 0.0002847 0.0000452 0.0005421 -0.0008705
-0.0003418 0.0009569 -0.0000853 -0.0003359 0.0002770 0.0004229 0.0001667 -0.0006274 0.0000732 0.0006422 0.0000473 0.0001999 -0.0000321 0.0000365 -0.0000674 0.0002269 0.0002854 -0.0001837 0.0005576 -0.0011178
-0.0004800 0.0010356 -0.0001029 -0.0003761 0.0002759 0.0004580 0.0001707 -0.0006408 0.0000610 0.0006745 0.0001077 0.0002351 -0.0000058 0.0002039 -0.0000573 0.0004099 0.0002973 -0.0000589 0.0005655 -0.0008027
-0.0004051 0.0009774 -0.0001103 -0.0002316 0.0002642 0.0007504 0.0001892 -0.0003059 0.0000514 0.0008720 0.0001216 0.0004629 0.0000250 0.0005276 -0.0000635 0.0007223 0.0002867 0.0001973 0.0005197 -0.0003394
-0.0002452 0.0010464 -0.0001223 0.0000193 0.0002332 0.0011158 0.0001497 0.0001537 0.0000399 0.0011393 0.0001059 0.0007204 -0.0000028 0.0006928 -0.0000959 0.0008543 0.0002482 0.0003086 0.0004362 -0.0003532
-0.0000542 0.0011456 -0.0001387 0.0000367 0.0001839 0.0010384 0.0000707 0.0000565 0.0000293 0.0011001 0.0000837 0.0006820 -0.0000915 0.0004452 -0.0001513 0.0006267 0.0002156 0.0001268 0.0003885 -0.0007552
-0.0001969 0.0011262 -0.0001480 -0.0001239 0.0001428 0.0007613 0.0000271 -0.0002761 0.0000159 0.0009181 0.0000723 0.0005660 -0.0001486 0.0002516 -0.0001899 0.0004859 0.0002140 0.0000174 0.0004042 -0.0007629
-0.0005002 0.0011217 -0.0001380 -0.0001636 0.0001197 0.0008288 0.0000215 -0.0001758 -0.0000098 0.0009574 0.0000828 0.0006438 -0.0001359 0.0004778 -0.0001979 0.0006906 0.0002231 0.0001757 0.0004249 -0.0003927
-0.0001985 0.0010379 -0.0001213 -0.0000603 0.0001092 0.0010402 0.0000142 0.0000692 -0.0000326 0.0010757 0.0000932 0.0007915 -0.0001043 0.0008277 -0.0001867 0.0009494 0.0002230 0.0003702 0.0004163 -0.0002462
-0.0001465 0.0011927 -0.0001533 -0.0000267 0.0001011 0.0009364 -0.0000274 -0.0000957 -0.0000467 0.0009390 0.0000951 0.0007282 -0.0001287 0.0007119 -0.0002000 0.0007849 0.0002289 0.0002454 0.0004359 -0.0005653
-0.0002602 0.0011234 -0.0001861 -0.0002460 0.0000827 0.0005774 -0.0000572 -0.0005723 -0.0000571 0.0006538 0.0000590 0.0005683 -0.0001542 0.0004686 -0.0002135 0.0005224 0.0002569 0.0000113 0.0005069 -0.0008151
-0.0001949 0.0010160 -0.0001607 -0.0003946 0.0001008 0.0005007 -0.0000385 -0.0006387 -0.0000497 0.0006403 0.0000838 0.0005975 -0.0000927 0.0007089 -0.0001811 0.0006544 0.0002909 0.0000674 0.0005507 -0.0006805
-0.0003730 0.0012531 -0.0001371 -0.0003431 0.0001492 0.0006952 -0.0000233 -0.0004419 -0.0000494 0.0007479 0.0001047 0.0006511 -0.0000444 0.0010145 -0.0001697 0.0008282 0.0003105 0.0002041 0.0005607 -0.0006237
-0.0007401 0.0013206 -0.0001592 -0.0003778 0.0001169 0.0005338 0.0000065 -0.0005350 -0.0000294 0.0006748 0.0000783 0.0005469 -0.0000332 0.0009424 -0.0001773 0.0006227 0.0003397 0.0000434 0.0006106 -0.0010362
-0.0007289 0.0010080 -0.0001923 -0.0004877 0.0000312 0.0000300 0.0000546 -0.0009085 0.0000124 0.0004730 0.0000371 0.0003453 -0.0000013 0.0007182 -0.0001686 0.0003058 0.0003894 -0.0001982 0.0006966 -0.0013434
-0.0002380 0.0017465 -0.0001177 0.0000305 0.0000389 0.0000019 0.0001033 -0.0010830 -0.0000148 0.0003137 0.0000355 0.0002915 0.0000332 0.0007209 -0.0001382 0.0003152 0.0004165 -0.0001833 0.0007630 -0.0011180
0.0000278 0.0028949 -0.0000235 0.0005740 0.0000488 0.0002160 0.0001244 -0.0009369 -0.0000322 0.0003606 0.0000645 0.0002436 0.0000765 0.0008646 -0.0000875 0.0004938 0.0004154 -0.0001249 0.0007920 -0.0010217
-0.0000972 0.0025185 -0.0000242 0.0003786 0.0000358 0.0001288 0.0001507 -0.0009992 0.0000814 0.0004845 0.0000437 -0.0000512 0.0000780 0.0007086 -0.0000638 0.0003936 0.0003804 -0.0004503 0.0008012 -0.0014142
-0.0004533 0.0017746 -0.0000451 0.0000003 0.0000964 -0.0000832 0.0001896 -0.0013215 0.0002168 0.0005136 0.0000240 -0.0003264 0.0000644 0.0004045 -0.0000522 0.0001832 0.0003724 -0.0007594 0.0008483 -0.0015589
-0.0001753 0.0037422 0.0001649 0.0008797 0.0001691 0.0001320 0.0002353 -0.0012400 0.0002280 0.0005644 -0.0000216 -0.0005060 0.0001138 0.0004749 -0.0000218 0.0003054 0.0003970 -0.0006440 0.0008467 -0.0013209
0.0004615 0.0058456 0.0003627 0.0019364 0.0001864 0.0005322 0.0002854 -0.0008101 0.0001575 0.0006345 -0.0000456 -0.0005369 0.0001635 0.0006687 -0.0000059 0.0004312 0.0003802 -0.0005788 0.0007497 -0.0015025
0.0004816 0.0042039 0.0001520 0.0011029 0.0001496 0.0003171 0.0002836 -0.0008641 0.0001090 0.0004936 -0.0000675 -0.0005330 0.0001454 0.0004489 -0.0000274 0.0001092 0.0003347 -0.0009354 0.0006506 -0.0022559
0.0002885 0.0014657 -0.0000595 0.0000190 0.0001342 -0.0001838 0.0003293 -0.0011524 0.0001246 0.0003030 -0.0000678 -0.0007562 0.0001450 0.0001700 -0.0000434 -0.0002146 0.0003206 -0.0012998 0.0006273 -0.0026949
-0.0001283 0.0005994 -0.0000778 -0.0001498 0.0001536 -0.0002610 0.0004145 -0.0009996 0.0001757 0.0004332 -0.0000567 -0.0008276 0.0001955 0.0002927 -0.0000360 -0.0001116 0.0003353 -0.0012354 0.0006679 -0.0023966
-0.0005172 0.0003864 -0.0000983 -0.0001412 0.0001877 0.0000548 0.0004627 -0.0006168 0.0001978 0.0006793 -0.0000740 -0.0007779 0.0002183 0.0005389 -0.0000347 0.0001660 0.0002998 -0.0011212 0.0006835 -0.0019828
-0.0001040 0.0000999 -0.0000812 0.0000125 0.0002025 0.0001541 0.0004986 -0.0005095 0.0002032 0.0007049 -0.0001041 -0.0008754 0.0002065 0.0004527 -0.0000362 0.0000947 0.0002478 -0.0013312 0.0006655 -0.0021774
0.0001358 -0.0000598 -0.0000746 0.0000894 0.0002247 -0.0000638 0.0005343 -0.0007327 0.0002239 0.0005646 -0.0001107 -0.0010303 0.0002107 0.0002009 -0.0000228 -0.0001607 0.0002625 -0.0015342 0.0006650 -0.0024565
0.0000624 -0.0001215 -0.0000964 0.0000260 0.0002755 -0.0000453 0.0005846 -0.0006627 0.0002449 0.0006492 -0.0000753 -0.0010798 0.0002387 0.0002562 0.0000001 -0.0000141 0.0002963 -0.0013299 0.0006785 -0.0021622
0.0000034 0.0000983 -0.0000617 0.0000762 0.0002936 0.0003113 0.0005882 -0.0002813 0.0002442 0.0009054 -0.0000849 -0.0009993 0.0001861 0.0002979 -0.0000326 0.0001959 0.0002957 -0.0009556 0.0006680 -0.0016378
-0.0003688 0.0001803 -0.0000950 -0.0000224 0.0002762 0.0005637 0.0005513 -0.0001384 0.0002298 0.0009702 -0.0001370 -0.0010448 0.0000635 -0.0000438 -0.0001004 -0.0000337 0.0002833 -0.0009324 0.0006261 -0.0018446
-0.0009134 0.0001397 -0.0001614 -0.0002590 0.0002546 0.0003536 0.0005441 -0.0003864 0.0002369 0.0008687 -0.0001612 -0.0012072 0.0000004 -0.0003832 -0.0001363 -0.0003448 0.0002885 -0.0010794 0.0006052 -0.0022333
-0.0005290 0.0000402 -0.0001801 -0.0002966 0.0002723 0.0002627 0.0005591 -0.0004314 0.0002284 0.0008599 -0.0001621 -0.0011975 0.0000076 -0.0002873 -0.0001449 -0.0002392 0.0002957 -0.0008887 0.0005931 -0.0018903
0.0002004 -0.0000404 -0.0001785 -0.0001185 0.0002878 0.0005038 0.0005310 -0.0001138 0.0001957 0.0009983 -0.0001817 -0.0009880 0.0000080 -0.0000298 -0.0001551 0.0000500 0.0002772 -0.0005551 0.0005384 -0.0013754
0.0001558 0.0001899 -0.0001361 0.0000529 0.0002751 0.0006685 0.0004737 0.0000513 0.0001805 0.0010476 -0.0001912 -0.0008763 -0.0000500 -0.0001100 -0.0001829 0.0000217 0.0002385 -0.0005389 0.0004659 -0.0014961
-0.0001418 0.0003727 -0.0001159 -0.0000421 0.0002890 0.0005992 0.0004578 -0.0002219 0.0001917 0.0008905 -0.0001810 -0.0010249 -0.0001187 -0.0003926 -0.0001764 -0.0000619 0.0002123 -0.0006807 0.0004471 -0.0017968
-0.0003925 0.0008431 -0.0001233 -0.0000938 0.0003661 0.0006905 0.0004959 -0.0002371 0.0002268 0.0009701 -0.0001754 -0.0010694 -0.0001049 -0.0002861 -0.0001351 0.0002720 0.0002047 -0.0005301 0.0004598 -0.0014284
-0.0003649 0.0011928 -0.0001460 0.0000962 0.0004469 0.0011275 0.0005517 0.0002745 0.0002556 0.0013265 -0.0002221 -0.0009101 -0.0000789 0.0000318 -0.0001048 0.0007824 0.0001843 -0.0002113 0.0004322 -0.0009602
-0.0000126 0.0009246 -0.0001749 0.0001701 0.0004441 0.0012634 0.0005633 0.0004358 0.0002575 0.0013966 -0.0002305 -0.0009319 -0.0001334 -0.0000920 -0.0001108 0.0008006 0.0001504 -0.0002392 0.0003833 -0.0012000
0.0003981 0.0004457 -0.0002072 -0.0000343 0.0004123 0.0009643 0.0005439 0.0000762 0.0002549 0.0011935 -0.0002557 -0.0010404 -0.0002009 -0.0004198 -0.0001372 0.0005028 0.0001384 -0.0004501 0.0003848 -0.0016097
0.0004014 0.0003752 -0.0002136 -0.0002317 0.0004180 0.0007665 0.0005356 -0.0000923 0.0002645 0.0011615 -0.0002663 -0.0010354 -0.0001871 -0.0002953 -0.0001487 0.0005179 0.0001494 -0.0003306 0.0003902 -0.0013816
-0.0002120 0.0008555 -0.0002026 -0.0002606 0.0004184 0.0008359 0.0005232 0.0001258 0.0002541 0.0013039 -0.0002125 -0.0008199 -0.0001735 -0.0000451 -0.0001974 0.0005220 0.0001361 -0.0001138 0.0003320 -0.0012616
-0.0005905 0.0010518 -0.0001993 -0.0003252 0.0003884 0.0006807 0.0004831 -0.0000136 0.0002321 0.0011811 -0.0002053 -0.0007854 -0.0002193 -0.0002266 -0.0002641 0.0001648 0.0001025 -0.0002580 0.0002848 -0.0017549
0.0000158 0.0008279 -0.0001833 -0.0004372 0.0004024 0.0003424 0.0004364 -0.0006242 0.0002448 0.0008256 -0.0002213 -0.0010529 -0.0002393 -0.0005156 -0.0002494 -0.0000332 0.0000900 -0.0005272 0.0003416 -0.0020388
0.0004044 0.0007001 -0.0001705 -0.0004226 0.0004811 0.0002956 0.0004473 -0.0008580 0.0002951 0.0007605 -0.0002561 -0.0010752 -0.0001716 -0.0002940 -0.0001914 0.0002612 0.0001088 -0.0003935 0.0003980 -0.0016318
0.0002564 0.0009856 -0.0001346 -0.0001833 0.0005275 0.0005230 0.0004646 -0.0005588 0.0003093 0.0009272 -0.0002331 -0.0009114 -0.0001057 0.0000932 -0.0001622 0.0005031 0.0001214 -0.0001169 0.0003865 -0.0014324
-0.0000390 0.0015417 -0.0000649 -0.0000388 0.0005057 0.0004833 0.0004386 -0.0006147 0.0002996 0.0008614 -0.0002058 -0.0009907 -0.0001311 -0.0000698 -0.0001735 0.0002960 0.0001128 -0.0001885 0.0003959 -0.0017431
-0.0004582 0.0016285 -0.0000467 -0.0001894 0.0004928 0.0001659 0.0004232 -0.0010395 0.0003209 0.0006767 -0.0002074 -0.0011392 -0.0001521 -0.0004125 -0.0001973 -0.0000217 0.0001111 -0.0003711 0.0004391 -0.0019206
-0.0006635 0.0014146 -0.0000597 -0.0002437 0.0005069 0.0001613 0.0004410 -0.0010617 0.0003324 0.0006904 -0.0001777 -0.0010706 -0.0001015 -0.0002499 -0.0001843 0.0000972 0.0001135 -0.0002383 0.0004590 -0.0016006
-0.0000942 0.0012083 -0.0000212 -0.0000554 0.0005460 0.0004729 0.0004324 -0.0007921 0.0003119 0.0007829 -0.0001163 -0.0009347 -0.0000484 0.0000623 -0.0001572 0.0003285 0.0000838 -0.0001266 0.0004186 -0.0014709
0.0003780 0.0012752 -0.0000004 0.0000616 0.0005868 0.0005280 0.0003637 -0.0009224 0.0002809 0.0006491 -0.0000885 -0.0009651 -0.0000782 -0.0000449 -0.0001596 0.0002773 0.0000426 -0.0002518 0.0004232 -0.0015626
