-0.0000000 -0.0000000 -0.0000000 -0.0000000 -0.0000000 -0.0000000 -0.0000000 -0.0000000 -0.0000000 -0.0000000 -0.0000000 -0.0000000 -0.0000000 -0.0000000 -0.0000000 -0.0000000 -0.0000000 -0.0000000 -0.0000000 -0.0000000
-0.0000000 -0.0000000 -0.0000000 -0.0000000 -0.0000000 -0.0000000 -0.0000000 -0.0000000 -0.0000000 -0.0000000 -0.0000000 -0.0000000 -0.0000000 -0.0000000 -0.0000000 -0.0000000 -0.0000000 -0.0000000 -0.0000000 -0.0000000
-0.0084454 0.0070824 -0.0000072 -0.0001044 0.0000094 -0.0000713 0.0000112 -0.0000546 0.0000016 -0.0001059 -0.0000152 -0.0001596 -0.0000036 -0.0001124 0.0000020 -0.0000668 -0.0000005 -0.0000601 -0.0000157 -0.0000792
-0.0014581 -0.0029708 -0.0000124 -0.0001299 0.0000377 -0.0000085 0.0000220 -0.0000336 0.0000173 -0.0000418 -0.0000038 -0.0001109 -0.0000027 -0.0001193 -0.0000053 -0.0000501 0.0000119 -0.0000075 -0.0000195 -0.0000606
-0.0036499 0.0066735 -0.0000120 -0.0001316 0.0000687 0.0000891 0.0000317 0.0000443 0.0000369 0.0000896 -0.0000038 -0.0000369 -0.0000256 -0.0001270 -0.0000240 -0.0000146 0.0000226 0.0000499 -0.0000108 0.0000856
-0.0026188 0.0045185 -0.0000406 -0.0001924 0.0001173 0.0002248 0.0000337 0.0001755 0.0001033 0.0004385 0.0000438 0.0002401 -0.0001061 -0.0002240 -0.0000919 -0.0000455 -0.0000001 0.0000685 0.0000086 0.0002551
0.0029862 -0.0119082 -0.0000867 -0.0003071 0.0001552 0.0003451 0.0000207 0.0003012 0.0001654 0.0008002 0.0001002 0.0005486 -0.0001590 -0.0003002 -0.0001710 -0.0002002 -0.0000604 -0.0000384 0.0000349 0.0003118
0.0037792 -0.0043298 -0.0001757 -0.0005399 0.0000986 0.0001182 -0.0000016 0.0003429 0.0003841 0.0015903 0.0004738 0.0016681 -0.0001155 -0.0005374 -0.0002685 -0.0007554 -0.0003696 -0.0004896 -0.0000986 0.0004651
-0.0001448 -0.0101267 -0.0003636 -0.0008950 -0.0000172 -0.0003427 -0.0001708 0.0001540 0.0008844 0.0033236 0.0011109 0.0035864 0.0001510 -0.0004672 -0.0002474 -0.0012525 -0.0007710 -0.0007635 -0.0005158 0.0003040
0.0042202 -0.0197487 -0.0005097 -0.0008581 -0.0001848 -0.0007047 -0.0005938 -0.0005153 0.0011478 0.0042977 0.0012636 0.0040285 0.0004764 0.0001975 -0.0001034 -0.0010947 -0.0007486 -0.0003921 -0.0007379 -0.0000099
0.0004767 -0.0042488 -0.0005208 -0.0006552 -0.0002743 -0.0008129 -0.0008990 -0.0010796 0.0010029 0.0038122 0.0010042 0.0031902 0.0005053 0.0004902 -0.0001163 -0.0010711 -0.0004773 0.0001047 -0.0006673 -0.0000279
0.0030896 -0.0010354 -0.0004364 -0.0003687 -0.0003322 -0.0009399 -0.0009733 -0.0012198 0.0005900 0.0024110 0.0003509 0.0014652 0.0003418 0.0006813 -0.0001917 -0.0007804 -0.0003644 0.0002054 -0.0006989 -0.0003226
0.0124355 -0.0187383 -0.0003513 -0.0000351 -0.0004606 -0.0012420 -0.0009992 -0.0013339 0.0001705 0.0010380 -0.0004042 -0.0004255 0.0001242 0.0007221 -0.0003345 -0.0005695 -0.0003794 0.0000230 -0.0007976 -0.0009190
0.0016263 -0.0016853 -0.0003141 -0.0000185 -0.0006007 -0.0016985 -0.0009307 -0.0014682 -0.0000214 0.0002271 -0.0008499 -0.0017019 0.0000311 0.0006691 -0.0003892 -0.0005521 -0.0003302 -0.0001496 -0.0008249 -0.0014216
-0.0065294 0.0080954 -0.0002964 -0.0001934 -0.0005673 -0.0017404 -0.0008297 -0.0015073 -0.0000663 -0.0001938 -0.0011194 -0.0026230 0.0000316 0.0006349 -0.0003175 -0.0003444 -0.0003178 -0.0003128 -0.0007435 -0.0014501
0.0075972 -0.0208218 -0.0002639 -0.0002335 -0.0004328 -0.0013676 -0.0007460 -0.0013870 -0.0000730 -0.0002793 -0.0010749 -0.0026121 0.0000145 0.0004926 -0.0002809 -0.0002712 -0.0003411 -0.0003619 -0.0006748 -0.0012419
0.0023657 0.0010737 -0.0002253 -0.0000564 -0.0003978 -0.0011453 -0.0006940 -0.0012315 -0.0000524 -0.0001818 -0.0009745 -0.0023873 -0.0000097 0.0004035 -0.0003045 -0.0003853 -0.0002929 -0.0001882 -0.0006523 -0.0010975
-0.0024028 0.0114578 -0.0001880 0.0002897 -0.0004465 -0.0010908 -0.0006693 -0.0011079 -0.0000351 -0.0000319 -0.0009307 -0.0022478 -0.0000357 0.0003826 -0.0003264 -0.0004494 -0.0002208 0.0000352 -0.0006497 -0.0010303
0.0001204 -0.0031407 -0.0000961 0.0008299 -0.0004856 -0.0009384 -0.0006727 -0.0009961 -0.0000400 0.0000542 -0.0008924 -0.0021510 -0.0000518 0.0003761 -0.0002912 -0.0004024 -0.0001693 0.0000836 -0.0006319 -0.0009794
-0.0011468 -0.0071873 0.0000177 0.0010631 -0.0004637 -0.0008214 -0.0006503 -0.0010019 -0.0000492 -0.0001201 -0.0007175 -0.0018138 -0.0000506 0.0001953 -0.0002717 -0.0005619 -0.0001168 0.0000056 -0.0005483 -0.0009256
0.0009515 -0.0179714 0.0000567 0.0008629 -0.0003655 -0.0007565 -0.0005771 -0.0010322 -0.0000367 -0.0003470 -0.0006254 -0.0017206 -0.0000752 -0.0000361 -0.0002990 -0.0007981 -0.0000769 0.0000053 -0.0004899 -0.0009597
0.0025522 0.0028440 0.0000449 0.0007686 -0.0002541 -0.0005186 -0.0004818 -0.0008660 -0.0000159 -0.0003993 -0.0006587 -0.0018921 -0.0000997 -0.0001147 -0.0003043 -0.0008269 -0.0000479 0.0000996 -0.0004403 -0.0009001
0.0030130 0.0030280 0.0000380 0.0007525 -0.0001355 -0.0001782 -0.0003817 -0.0006434 -0.0000097 -0.0004295 -0.0006819 -0.0019532 -0.0001052 -0.0001090 -0.0002998 -0.0007466 -0.0000265 0.0001966 -0.0004373 -0.0007991
0.0004818 -0.0016263 0.0000362 0.0007351 -0.0000507 0.0000675 -0.0003146 -0.0004857 -0.0000168 -0.0004382 -0.0006884 -0.0018972 -0.0001052 -0.0000254 -0.0002705 -0.0005529 -0.0000223 0.0002467 -0.0004376 -0.0006155
-0.0065626 0.0170454 0.0000265 0.0006623 0.0000383 0.0003630 -0.0002907 -0.0003695 -0.0000554 -0.0005304 -0.0004835 -0.0013132 -0.0000776 -0.0000536 -0.0002354 -0.0005688 -0.0000239 0.0001331 -0.0003937 -0.0004954
-0.0064673 0.0182559 0.0000026 0.0004636 0.0000963 0.0004322 -0.0002844 -0.0004538 -0.0000772 -0.0007098 -0.0003637 -0.0011481 -0.0000927 -0.0002969 -0.0002626 -0.0009162 -0.0000058 -0.0000299 -0.0003728 -0.0006360
-0.0007293 0.0140593 -0.0000162 0.0002937 0.0000676 0.0001857 -0.0002821 -0.0006184 -0.0000542 -0.0007658 -0.0005052 -0.0017247 -0.0001445 -0.0004723 -0.0003090 -0.0011405 0.0000280 -0.0000047 -0.0003496 -0.0007642
-0.0024171 0.0115831 -0.0000024 0.0003081 0.0000197 0.0000377 -0.0002735 -0.0006447 -0.0000437 -0.0007002 -0.0005829 -0.0019674 -0.0001489 -0.0004568 -0.0002997 -0.0010903 0.0000416 0.0000878 -0.0003269 -0.0007581
-0.0014061 0.0046283 0.0000082 0.0003936 -0.0000180 0.0000043 -0.0002669 -0.0006057 -0.0000375 -0.0005949 -0.0005977 -0.0019617 -0.0001323 -0.0003700 -0.0002709 -0.0009409 0.0000430 0.0001609 -0.0003094 -0.0006594
-0.0020032 0.0045889 -0.0000007 0.0005090 -0.0000236 0.0000979 -0.0002753 -0.0005312 -0.0000417 -0.0005146 -0.0005412 -0.0017234 -0.0001046 -0.0002343 -0.0002340 -0.0007331 0.0000364 0.0002166 -0.0002962 -0.0004593
-0.0081654 0.0057877 0.0000029 0.0005683 0.0000063 0.0002511 -0.0002873 -0.0004998 -0.0000631 -0.0005724 -0.0004908 -0.0015895 -0.0000997 -0.0002484 -0.0002091 -0.0007060 0.0000275 0.0001196 -0.0003008 -0.0004395
-0.0036074 0.0034723 0.0000198 0.0003843 0.0000897 0.0003659 -0.0003003 -0.0006176 -0.0000914 -0.0008083 -0.0004973 -0.0017932 -0.0001229 -0.0004760 -0.0002076 -0.0008978 0.0000358 -0.0000258 -0.0002866 -0.0005866
-0.0026369 -0.0000669 0.0000109 0.0001810 0.0001356 0.0003174 -0.0003000 -0.0007601 -0.0001045 -0.0009878 -0.0004845 -0.0019328 -0.0001332 -0.0006406 -0.0001924 -0.0009831 0.0000422 -0.0000574 -0.0002550 -0.0005908
0.0070268 -0.0268430 0.0000135 0.0002206 0.0001492 0.0003417 -0.0002825 -0.0007421 -0.0001089 -0.0009806 -0.0004629 -0.0019291 -0.0001460 -0.0006946 -0.0001952 -0.0009681 0.0000393 0.0000154 -0.0002248 -0.0004757
-0.0015269 -0.0022742 0.0000564 0.0004798 0.0001787 0.0005067 -0.0002607 -0.0006119 -0.0001076 -0.0008647 -0.0004718 -0.0019115 -0.0001667 -0.0006738 -0.0002099 -0.0008930 0.0000351 0.0001576 -0.0001954 -0.0003342
-0.0007822 0.0151290 0.0000803 0.0007703 0.0001757 0.0006026 -0.0002444 -0.0004563 -0.0001138 -0.0007320 -0.0004759 -0.0018059 -0.0001675 -0.0005702 -0.0002189 -0.0008039 0.0000127 0.0002200 -0.0001944 -0.0002901
0.0038074 0.0055180 0.0000685 0.0006909 0.0001712 0.0005873 -0.0002369 -0.0004406 -0.0001261 -0.0007703 -0.0004763 -0.0018301 -0.0001660 -0.0006154 -0.0002241 -0.0009144 -0.0000136 0.0000606 -0.0002356 -0.0003839
0.0083086 -0.0133123 0.0000474 0.0004186 0.0001523 0.0003951 -0.0002402 -0.0005746 -0.0001204 -0.0009372 -0.0004680 -0.0019946 -0.0001688 -0.0008031 -0.0001783 -0.0009892 -0.0000259 -0.0001433 -0.0002144 -0.0004181
-0.0000280 0.0021136 0.0000384 0.0000587 0.0002555 0.0004220 -0.0002273 -0.0006383 -0.0001148 -0.0009990 -0.0003285 -0.0016912 -0.0001585 -0.0008994 -0.0001232 -0.0008726 -0.0000785 -0.0002775 -0.0002090 -0.0004014
-0.0010955 -0.0016037 0.0000825 -0.0004821 0.0003161 0.0003168 -0.0002082 -0.0006653 -0.0001129 -0.0009988 -0.0002411 -0.0014628 -0.0001669 -0.0009458 -0.0001667 -0.0010369 -0.0000804 -0.0002838 -0.0001992 -0.0003637
0.0150082 -0.0219087 0.0001407 -0.0005150 0.0001995 -0.0000292 -0.0002129 -0.0006973 -0.0001177 -0.0009934 -0.0003932 -0.0018690 -0.0001666 -0.0008203 -0.0001991 -0.0011178 -0.0000183 -0.0000808 -0.0001349 -0.0002984
0.0166356 -0.0243760 0.0001400 -0.0002785 0.0001455 -0.0000571 -0.0002104 -0.0006510 -0.0001452 -0.0009595 -0.0005637 -0.0022213 -0.0001190 -0.0005301 -0.0001217 -0.0007938 -0.0000147 0.0000324 -0.0001497 -0.0004006
-0.0016997 0.0014392 0.0001496 -0.0003949 0.0001506 -0.0001166 -0.0001976 -0.0007089 -0.0001669 -0.0010722 -0.0006206 -0.0024520 -0.0000444 -0.0004146 -0.0000181 -0.0006142 -0.0000242 -0.0000946 -0.0001830 -0.0005494
-0.0015528 0.0003878 0.0001961 -0.0003648 0.0001452 -0.0002665 -0.0001990 -0.0008607 -0.0001624 -0.0012288 -0.0006312 -0.0026838 0.0000140 -0.0004772 0.0000446 -0.0006263 -0.0000081 -0.0001978 -0.0001831 -0.0005812
0.0126679 -0.0195428 0.0002037 -0.0001678 0.0001379 -0.0002934 -0.0002049 -0.0009014 -0.0001584 -0.0012476 -0.0006248 -0.0027217 0.0000302 -0.0004547 0.0000632 -0.0006051 0.0000071 -0.0001494 -0.0001774 -0.0004721
0.0072635 -0.0037330 0.0001992 -0.0000762 0.0001330 -0.0002692 -0.0002117 -0.0008395 -0.0001579 -0.0011846 -0.0006202 -0.0026800 0.0000330 -0.0003589 0.0000786 -0.0004977 0.0000085 -0.0000681 -0.0001332 -0.0003512
0.0075416 -0.0086175 0.0001898 0.0000295 0.0000897 -0.0002820 -0.0002058 -0.0007309 -0.0001285 -0.0009880 -0.0006063 -0.0025616 0.0000450 -0.0002179 0.0000936 -0.0003751 0.0000214 0.0000023 -0.0000778 -0.0001874
0.0037642 0.0014323 0.0001570 0.0000655 0.0000789 -0.0001553 -0.0001930 -0.0006264 -0.0001308 -0.0008830 -0.0005827 -0.0024024 0.0000684 -0.0001299 0.0000966 -0.0003593 0.0000152 0.0000097 -0.0000922 -0.0002129
-0.0020178 0.0085311 0.0001476 -0.0000936 0.0001119 -0.0001724 -0.0001975 -0.0007387 -0.0001524 -0.0010446 -0.0005677 -0.0024311 0.0000872 -0.0002475 0.0000961 -0.0004895 0.0000131 -0.0000816 -0.0001138 -0.0004254
0.0020551 0.0092314 0.0001461 -0.0001983 0.0000822 -0.0004623 -0.0002022 -0.0009160 -0.0001289 -0.0011485 -0.0005402 -0.0024743 0.0001022 -0.0003169 0.0001060 -0.0005620 0.0000355 -0.0001484 -0.0001366 -0.0004478
0.0014378 0.0105593 0.0001491 -0.0001600 0.0000276 -0.0006187 -0.0002043 -0.0009213 -0.0000882 -0.0010352 -0.0005124 -0.0024115 0.0001141 -0.0002502 0.0001283 -0.0005178 0.0000522 -0.0000852 -0.0001832 -0.0004199
-0.0035266 -0.0016004 0.0001724 -0.0000368 0.0000013 -0.0006185 -0.0001944 -0.0008366 -0.0000546 -0.0008569 -0.0004947 -0.0023051 0.0001326 -0.0001329 0.0001524 -0.0004348 0.0000653 0.0000259 -0.0001667 -0.0004030
0.0040633 -0.0138910 0.0001771 0.0001504 -0.0000001 -0.0005331 -0.0001820 -0.0006929 -0.0000400 -0.0006877 -0.0004728 -0.0021236 0.0001495 0.0000421 0.0001684 -0.0002903 0.0000589 0.0001337 -0.0001472 -0.0002937
0.0029796 -0.0076061 0.0001831 0.0003063 0.0000218 -0.0003641 -0.0001678 -0.0005665 -0.0000359 -0.0006161 -0.0004721 -0.0020572 0.0001573 0.0000602 0.0002048 -0.0001365 0.0000611 0.0001782 -0.0001415 -0.0002822
0.0023892 -0.0027798 0.0002089 0.0002810 0.0000822 -0.0003114 -0.0001584 -0.0006641 -0.0000497 -0.0007838 -0.0004436 -0.0019879 0.0000682 -0.0002856 0.0001455 -0.0002597 0.0000990 0.0001395 -0.0000690 -0.0002220
0.0105983 -0.0163228 0.0002450 0.0002594 0.0001411 -0.0003441 -0.0001517 -0.0007728 -0.0000602 -0.0009524 -0.0003776 -0.0018513 -0.0000457 -0.0006610 0.0000105 -0.0006145 0.0001220 0.0001433 -0.0000352 -0.0001086
0.0011217 -0.0057669 0.0002346 0.0001557 0.0001636 -0.0003093 -0.0001374 -0.0006938 -0.0000432 -0.0008922 -0.0003898 -0.0019303 -0.0000644 -0.0007097 -0.0000409 -0.0008879 0.0001291 0.0002143 -0.0000675 -0.0001870
-0.0073334 0.0101977 0.0001966 0.0000422 0.0001686 -0.0002525 -0.0001301 -0.0005788 -0.0000364 -0.0007868 -0.0003921 -0.0019285 0.0000519 -0.0002939 0.0000460 -0.0007631 0.0001099 0.0002674 -0.0001235 -0.0003725
-0.0021672 0.0090222 0.0001882 0.0001397 0.0001514 -0.0002030 -0.0001163 -0.0004523 -0.0000363 -0.0006593 -0.0003526 -0.0017456 0.0001993 0.0002049 0.0001554 -0.0004191 0.0000603 0.0002941 -0.0001696 -0.0005640
0.0000532 0.0081879 0.0001899 0.0001025 0.0001388 -0.0002442 -0.0000991 -0.0004437 -0.0000126 -0.0006200 -0.0003433 -0.0017756 0.0002680 0.0002706 0.0001961 -0.0003966 0.0000332 0.0001814 -0.0001832 -0.0007898
0.0006869 0.0062991 0.0002171 0.0000963 0.0001469 -0.0003233 -0.0000837 -0.0005180 0.0000147 -0.0006794 -0.0003474 -0.0019573 0.0003050 0.0001741 0.0002277 -0.0004628 0.0000528 0.0001497 -0.0002100 -0.0009132
0.0032222 0.0061099 0.0001960 0.0003703 0.0001805 -0.0002151 -0.0000614 -0.0004474 0.0000341 -0.0006578 -0.0003530 -0.0020151 0.0003152 0.0001952 0.0002481 -0.0004162 0.0000964 0.0003112 -0.0002543 -0.0008615
0.0036552 0.0112219 0.0001376 0.0005687 0.0002382 0.0000470 -0.0000319 -0.0002874 0.0000301 -0.0005912 -0.0003419 -0.0019296 0.0003563 0.0003813 0.0002885 -0.0002617 0.0000901 0.0003867 -0.0002949 -0.0008794
-0.0008654 0.0049860 0.0001139 0.0005967 0.0002502 0.0001544 -0.0000286 -0.0001734 0.0000302 -0.0004294 -0.0003233 -0.0017757 0.0004071 0.0006412 0.0003255 -0.0000642 0.0000505 0.0004267 -0.0003343 -0.0008550
-0.0052004 0.0039231 0.0001003 0.0006521 0.0002230 0.0001846 -0.0000369 -0.0000693 0.0000457 -0.0002341 -0.0003047 -0.0016185 0.0004347 0.0007799 0.0003341 0.0000122 0.0000191 0.0004071 -0.0003484 -0.0008908
-0.0010745 0.0065706 0.0000701 0.0005181 0.0002175 0.0001325 -0.0000322 -0.0001136 0.0000509 -0.0002708 -0.0002993 -0.0016593 0.0004477 0.0007192 0.0003387 -0.0000453 0.0000050 0.0002816 -0.0003250 -0.0010085
0.0038510 0.0114597 0.0000405 0.0003126 0.0002209 0.0000313 -0.0000215 -0.0002326 0.0000445 -0.0003897 -0.0002975 -0.0017330 0.0004510 0.0006348 0.0003449 -0.0000635 0.0000029 0.0002161 -0.0003091 -0.0010110
0.0058040 0.0052775 0.0000401 0.0002847 0.0002227 0.0000687 -0.0000165 -0.0002232 0.0000395 -0.0003694 -0.0002877 -0.0016529 0.0004487 0.0006793 0.0003576 0.0000453 0.0000025 0.0002566 -0.0003230 -0.0008727
0.0047579 -0.0093742 0.0000331 0.0003636 0.0002268 0.0001734 -0.0000270 -0.0001367 0.0000382 -0.0003011 -0.0002949 -0.0015678 0.0004341 0.0007805 0.0004046 0.0003411 0.0000153 0.0003337 -0.0002794 -0.0005950
0.0018800 -0.0056749 0.0000332 0.0004650 0.0002211 0.0002985 -0.0000230 0.0000069 0.0000439 -0.0001620 -0.0002683 -0.0012546 0.0003476 0.0008000 0.0003432 0.0005796 0.0000606 0.0004533 -0.0001094 0.0000804
0.0039806 -0.0025156 0.0000233 0.0004865 0.0003425 0.0007850 0.0000045 0.0001485 -0.0000418 -0.0003702 -0.0001767 -0.0007923 0.0002774 0.0006779 0.0006171 0.0013811 0.0000817 0.0004701 -0.0000221 0.0003442
0.0073259 0.0056406 0.0000180 0.0004884 0.0008067 0.0020426 -0.0005035 -0.0006535 -0.0008438 -0.0012498 -0.0007628 -0.0025452 0.0001641 0.0005870 0.0010800 0.0028602 0.0004121 0.0006679 0.0003452 0.0004639
0.0068353 0.0025218 -0.0000729 0.0002426 0.0014913 0.0041730 -0.0007651 -0.0010858 -0.0011215 -0.0009002 -0.0007160 -0.0028640 0.0003693 0.0010790 0.0010941 0.0030193 0.0006109 0.0007494 0.0006870 0.0008969
-0.0009517 0.0003033 -0.0001939 -0.0000693 0.0018158 0.0053117 -0.0004530 -0.0005835 -0.0005550 0.0002249 0.0000193 -0.0009352 0.0006816 0.0015842 0.0009612 0.0023205 0.0005259 0.0007313 0.0006510 0.0010007
0.0028999 -0.0007248 -0.0001842 -0.0000440 0.0017388 0.0051018 -0.0004681 -0.0004756 -0.0004503 0.0005093 0.0000626 -0.0006214 0.0006633 0.0016382 0.0009020 0.0021723 0.0005913 0.0009643 0.0006402 0.0010802
0.0017966 0.0021058 -0.0001780 0.0001333 0.0016546 0.0049803 -0.0005200 -0.0003421 -0.0004160 0.0006545 0.0000743 -0.0003893 0.0006294 0.0017200 0.0008750 0.0022126 0.0006055 0.0010847 0.0006284 0.0012626
0.0027573 -0.0021449 -0.0001919 0.0002349 0.0016757 0.0051202 -0.0005470 -0.0001924 -0.0002554 0.0010781 0.0001475 0.0001191 0.0004785 0.0014127 0.0006997 0.0018994 0.0005908 0.0010243 0.0007235 0.0015006
0.0081619 -0.0186630 -0.0001981 0.0000394 0.0016982 0.0050480 -0.0005668 -0.0001650 -0.0000073 0.0016979 0.0002591 0.0006656 0.0002143 0.0007014 0.0004210 0.0012528 0.0005783 0.0009263 0.0007735 0.0015620
-0.0006624 -0.0052869 -0.0001827 -0.0003930 0.0016224 0.0045893 -0.0005687 -0.0002995 0.0000458 0.0017231 0.0002762 0.0006316 0.0000959 0.0003580 0.0002892 0.0008611 0.0005843 0.0009231 0.0007131 0.0014347
-0.0023347 0.0037299 -0.0001420 -0.0003601 0.0015060 0.0042478 -0.0005470 -0.0003352 -0.0000112 0.0014708 0.0002003 0.0002595 0.0001067 0.0004006 0.0002776 0.0007917 0.0006119 0.0010178 0.0006732 0.0013881
0.0103091 -0.0213052 -0.0001101 0.0000608 0.0014584 0.0042391 -0.0005631 -0.0002234 0.0000112 0.0015952 0.0001654 0.0002493 0.0000325 0.0003340 0.0002441 0.0008985 0.0006113 0.0011685 0.0006519 0.0015990
0.0091579 -0.0264593 -0.0000906 -0.0001403 0.0014833 0.0044161 -0.0005921 -0.0000658 0.0000196 0.0016964 0.0002196 0.0006454 -0.0000670 0.0002761 0.0001088 0.0007987 0.0005256 0.0010813 0.0006749 0.0017306
-0.0032225 -0.0001721 -0.0000739 -0.0006027 0.0014558 0.0043281 -0.0005980 -0.0000513 0.0000308 0.0016490 0.0002361 0.0006851 -0.0000725 0.0002412 0.0000453 0.0005666 0.0004555 0.0008632 0.0006669 0.0014927
0.0046846 0.0014697 -0.0000157 -0.0007243 0.0014214 0.0040519 -0.0005956 -0.0001655 0.0000616 0.0015785 0.0001796 0.0002985 -0.0000575 0.0001009 0.0000680 0.0004244 0.0004366 0.0007557 0.0006270 0.0012773
0.0080473 -0.0044076 0.0000055 -0.0007031 0.0013786 0.0038289 -0.0006005 -0.0002513 0.0000428 0.0014329 0.0001471 0.0000604 -0.0000425 0.0000538 0.0000762 0.0003022 0.0004561 0.0007659 0.0005974 0.0012981
-0.0002078 0.0103295 -0.0000396 -0.0007475 0.0012862 0.0035666 -0.0006177 -0.0003279 -0.0000071 0.0012542 0.0001170 -0.0000742 -0.0000130 0.0001249 0.0001050 0.0002539 0.0005026 0.0008805 0.0005942 0.0013405
-0.0089279 0.0220658 -0.0000475 -0.0007765 0.0011842 0.0032895 -0.0006372 -0.0003550 -0.0000501 0.0011451 0.0000784 -0.0001793 0.0000378 0.0002925 0.0001712 0.0003648 0.0005146 0.0009821 0.0005632 0.0013208
-0.0014266 0.0115987 -0.0000223 -0.0006530 0.0011037 0.0031480 -0.0006537 -0.0003172 -0.0000877 0.0011041 0.0000642 -0.0001975 0.0001060 0.0004785 0.0002402 0.0004767 0.0005051 0.0009477 0.0005250 0.0011669
0.0073244 0.0062799 -0.0000226 -0.0006986 0.0010520 0.0029641 -0.0006544 -0.0004094 -0.0001043 0.0009487 0.0000503 -0.0003597 0.0001484 0.0004913 0.0002787 0.0004294 0.0004912 0.0008119 0.0005338 0.0008897
0.0056784 0.0039765 -0.0000115 -0.0007896 0.0010027 0.0027164 -0.0006344 -0.0005738 -0.0001039 0.0007651 0.0000352 -0.0005675 0.0001912 0.0004633 0.0003180 0.0004069 0.0004801 0.0007228 0.0005116 0.0007483
-0.0042738 0.0055976 0.0000233 -0.0006263 0.0009576 0.0026120 -0.0006297 -0.0006030 -0.0001027 0.0007110 0.0000237 -0.0006144 0.0002079 0.0004790 0.0003319 0.0004545 0.0004770 0.0007399 0.0004889 0.0007945
-0.0119361 0.0186568 0.0000555 -0.0003861 0.0009196 0.0025909 -0.0006287 -0.0005512 -0.0001146 0.0006722 0.0000176 -0.0005977 0.0002084 0.0005464 0.0003427 0.0005436 0.0004785 0.0007660 0.0004722 0.0008304
-0.0099262 0.0106379 0.0000302 -0.0003193 0.0008635 0.0024927 -0.0006394 -0.0004972 -0.0001636 0.0006083 0.0000109 -0.0005752 0.0002282 0.0006793 0.0003742 0.0006827 0.0004730 0.0008036 0.0004248 0.0008379
0.0134028 -0.0281039 -0.0000045 -0.0003298 0.0008129 0.0023832 -0.0006369 -0.0004862 -0.0002019 0.0004982 0.0000072 -0.0006325 0.0002587 0.0006912 0.0004100 0.0007087 0.0004435 0.0006781 0.0004524 0.0006396
0.0151283 -0.0308459 0.0000364 -0.0003470 0.0007988 0.0022579 -0.0006041 -0.0005615 -0.0002006 0.0003336 0.0000055 -0.0008104 0.0002735 0.0005720 0.0004390 0.0006670 0.0004278 0.0005039 0.0005051 0.0005027
-0.0038350 0.0021452 0.0000668 -0.0002645 0.0007898 0.0021218 -0.0005789 -0.0006694 -0.0002132 0.0001713 0.0000009 -0.0009393 0.0002715 0.0004885 0.0004337 0.0006281 0.0004303 0.0004945 0.0004939 0.0005609
-0.0084315 0.0186164 0.0001333 -0.0000434 0.0007747 0.0021117 -0.0005608 -0.0006436 -0.0002152 0.0001369 0.0000023 -0.0009515 0.0002649 0.0004765 0.0004166 0.0005857 0.0004386 0.0005718 0.0004685 0.0006275
0.0001764 0.0100774 0.0001816 0.0000477 0.0007647 0.0021461 -0.0005561 -0.0005582 -0.0002087 0.0001693 -0.0000044 -0.0009407 0.0002612 0.0005146 0.0004088 0.0006450 0.0004377 0.0006842 0.0004368 0.0007527
0.0116353 -0.0190003 0.0001691 0.0000746 0.0007608 0.0021990 -0.0005640 -0.0004708 -0.0002289 0.0002089 -0.0000072 -0.0008620 0.0002594 0.0006063 0.0004015 0.0006987 0.0004224 0.0007236 0.0004190 0.0007394
0.0197699 -0.0413570 0.0001652 -0.0000168 0.0007617 0.0021690 -0.0005644 -0.0004848 -0.0002455 0.0001224 -0.0000009 -0.0009151 0.0002639 0.0005429 0.0003932 0.0005735 0.0004179 0.0006241 0.0004395 0.0005943
0.0096305 -0.0040502 0.0001451 -0.0001657 0.0007431 0.0020237 -0.0005640 -0.0005826 -0.0002583 -0.0000536 0.0000061 -0.0010620 0.0002729 0.0004160 0.0003870 0.0004445 0.0004078 0.0005186 0.0004705 0.0005141
0.0068906 -0.0002833 0.0001334 -0.0001877 0.0007230 0.0019653 -0.0005589 -0.0006036 -0.0002690 -0.0001153 0.0000083 -0.0010886 0.0002822 0.0004128 0.0003889 0.0004716 0.0003946 0.0005249 0.0004578 0.0005544
0.0010460 0.0061452 0.0001297 -0.0001057 0.0007141 0.0020097 -0.0005519 -0.0005486 -0.0002719 -0.0000872 0.0000052 -0.0010341 0.0002784 0.0004549 0.0003831 0.0005493 0.0003862 0.0005957 0.0004362 0.0006601
-0.0109233 0.0259328 0.0001239 0.0000602 0.0007096 0.0021086 -0.0005526 -0.0004430 -0.0002644 -0.0000034 0.0000047 -0.0009138 0.0002577 0.0005415 0.0003717 0.0006452 0.0003750 0.0007084 0.0004121 0.0007792
-0.0039693 0.0105465 0.0001362 0.0001768 0.0007107 0.0022228 -0.0005481 -0.0003526 -0.0002550 0.0000411 0.0000031 -0.0008792 0.0002479 0.0005416 0.0003698 0.0006148 0.0003729 0.0006729 0.0004065 0.0006948
0.0126603 -0.0135091 0.0001386 0.0000590 0.0007129 0.0021579 -0.0005495 -0.0004123 -0.0002558 -0.0000537 0.0000038 -0.0009962 0.0002445 0.0004328 0.0003682 0.0004932 0.0003724 0.0005571 0.0004401 0.0005283
0.0126595 -0.0154466 0.0001368 -0.0000787 0.0007119 0.0020414 -0.0005432 -0.0005104 -0.0002581 -0.0001497 0.0000114 -0.0010657 0.0002521 0.0004086 0.0003716 0.0004929 0.0003678 0.0005524 0.0004501 0.0005139
0.0071220 -0.0128601 0.0001339 -0.0000348 0.0007011 0.0020481 -0.0005324 -0.0004907 -0.0002532 -0.0001310 0.0000204 -0.0009997 0.0002773 0.0004959 0.0003823 0.0005951 0.0003621 0.0006123 0.0004255 0.0005973
0.0018118 -0.0007772 0.0001253 0.0000692 0.0006816 0.0020945 -0.0005309 -0.0004207 -0.0002455 -0.0000656 0.0000280 -0.0008751 0.0002900 0.0006046 0.0003829 0.0007188 0.0003521 0.0007009 0.0003984 0.0007196
0.0038290 -0.0101256 0.0001387 0.0001756 0.0006691 0.0021695 -0.0005415 -0.0003137 -0.0002426 0.0000268 0.0000337 -0.0007293 0.0002803 0.0007000 0.0003783 0.0007911 0.0003448 0.0007372 0.0003700 0.0007469
0.0017941 -0.0074255 0.0001248 0.0001095 0.0006706 0.0021351 -0.0005503 -0.0003396 -0.0002397 -0.0000200 0.0000332 -0.0007821 0.0002731 0.0006300 0.0003801 0.0007169 0.0003414 0.0006421 0.0003942 0.0005999
0.0048942 -0.0103550 0.0001078 -0.0000484 0.0006662 0.0020030 -0.0005451 -0.0004590 -0.0002368 -0.0001470 0.0000314 -0.0009247 0.0002723 0.0005186 0.0003879 0.0006557 0.0003400 0.0005659 0.0004245 0.0005230
0.0038891 -0.0045528 0.0001170 -0.0000654 0.0006682 0.0019923 -0.0005366 -0.0004947 -0.0002407 -0.0001942 0.0000318 -0.0009245 0.0002736 0.0005227 0.0003793 0.0007089 0.0003300 0.0006069 0.0004101 0.0005819
-0.0028670 0.0046864 0.0001218 0.0000251 0.0006731 0.0020798 -0.0005306 -0.0004380 -0.0002426 -0.0001625 0.0000354 -0.0008465 0.0002750 0.0005763 0.0003548 0.0007426 0.0003261 0.0006832 0.0003790 0.0006383
0.0059432 -0.0088959 0.0001286 0.0001514 0.0006512 0.0021149 -0.0005323 -0.0003187 -0.0002331 -0.0000433 0.0000402 -0.0007072 0.0002770 0.0006792 0.0003354 0.0007742 0.0003228 0.0007857 0.0003278 0.0007071
0.0040082 -0.0035855 0.0001397 0.0002111 0.0006231 0.0020901 -0.0005223 -0.0002662 -0.0002188 0.0000050 0.0000427 -0.0007147 0.0002811 0.0006638 0.0003314 0.0006842 0.0003190 0.0007442 0.0003023 0.0006036
-0.0013537 0.0010452 0.0001469 0.0001051 0.0005986 0.0019522 -0.0005115 -0.0003476 -0.0002115 -0.0000841 0.0000315 -0.0009136 0.0002860 0.0005407 0.0003538 0.0005651 0.0003323 0.0006049 0.0003265 0.0004222
0.0081073 -0.0169800 0.0001416 0.0000186 0.0005765 0.0018192 -0.0005003 -0.0004262 -0.0002080 -0.0001574 0.0000188 -0.0010078 0.0003031 0.0005340 0.0003833 0.0006441 0.0003357 0.0005873 0.0003512 0.0004099
0.0059370 -0.0069343 0.0001294 0.0000629 0.0005702 0.0018327 -0.0004906 -0.0004155 -0.0002170 -0.0001624 0.0000192 -0.0009254 0.0003186 0.0006076 0.0003863 0.0007665 0.0003202 0.0006409 0.0003380 0.0004770
-0.0058582 0.0111564 0.0001251 0.0002079 0.0005541 0.0018734 -0.0004876 -0.0003144 -0.0002578 -0.0001920 0.0000220 -0.0008023 0.0003183 0.0007061 0.0003832 0.0008850 0.0003152 0.0007242 0.0003192 0.0005630
-0.0065055 0.0072441 0.0001378 0.0003595 0.0005193 0.0018949 -0.0004940 -0.0001766 -0.0002965 -0.0001578 0.0000281 -0.0006463 0.0003220 0.0008403 0.0003880 0.0009781 0.0003229 0.0007753 0.0003026 0.0005723
0.0036484 -0.0045296 0.0001396 0.0002429 0.0005053 0.0018423 -0.0005020 -0.0001958 -0.0003022 -0.0001936 0.0000330 -0.0006739 0.0003298 0.0008014 0.0003973 0.0009153 0.0003234 0.0006619 0.0002817 0.0004077
0.0081757 -0.0039268 0.0001085 0.0000350 0.0004923 0.0017011 -0.0005072 -0.0003033 -0.0003056 -0.0003299 0.0000434 -0.0008182 0.0003485 0.0007328 0.0004161 0.0008584 0.0003208 0.0005407 0.0002740 0.0002650
0.0012423 0.0060836 0.0000996 -0.0000456 0.0004673 0.0016033 -0.0005130 -0.0003461 -0.0003161 -0.0003736 0.0000668 -0.0008064 0.0003931 0.0008469 0.0004253 0.0008628 0.0003141 0.0005527 0.0002644 0.0002230
-0.0074809 0.0110964 0.0001042 -0.0000229 0.0004483 0.0015986 -0.0005089 -0.0003241 -0.0003267 -0.0003397 0.0000938 -0.0007160 0.0004408 0.0009843 0.0003935 0.0007874 0.0003013 0.0006116 0.0002323 0.0001808
-0.0044793 -0.0051236 0.0001008 0.0000777 0.0004182 0.0016129 -0.0005003 -0.0002408 -0.0003280 -0.0002676 0.0001054 -0.0006155 0.0004774 0.0011287 0.0003584 0.0007625 0.0002895 0.0007010 0.0001784 0.0001381
0.0071437 -0.0214583 0.0001057 0.0001610 0.0003914 0.0016384 -0.0004955 -0.0001522 -0.0003189 -0.0002371 0.0001043 -0.0006090 0.0004892 0.0011694 0.0003513 0.0007169 0.0002863 0.0006695 0.0001504 0.0000385
0.0065795 -0.0135337 0.0000966 0.0000552 0.0003856 0.0015665 -0.0004974 -0.0002140 -0.0003231 -0.0003335 0.0000961 -0.0007422 0.0004702 0.0010361 0.0003453 0.0005750 0.0002899 0.0005448 0.0001721 -0.0000628
-0.0018561 -0.0014121 0.0000967 -0.0000555 0.0003906 0.0014753 -0.0004974 -0.0003052 -0.0003303 -0.0004280 0.0000784 -0.0008562 0.0004488 0.0009334 0.0003323 0.0005132 0.0002937 0.0005114 0.0001926 -0.0000365
-0.0013934 0.0039816 0.0001022 -0.0000115 0.0003975 0.0014984 -0.0004891 -0.0003008 -0.0003298 -0.0004032 0.0000634 -0.0008789 0.0004267 0.0009259 0.0003210 0.0005496 0.0002932 0.0005229 0.0002082 0.0001368
-0.0008068 -0.0032677 0.0001035 0.0000301 0.0004010 0.0015591 -0.0004862 -0.0002515 -0.0003422 -0.0003513 0.0000534 -0.0008277 0.0004101 0.0009868 0.0003014 0.0006052 0.0002952 0.0005882 0.0002472 0.0003996
0.0008962 0.0065157 0.0000808 -0.0000380 0.0004050 0.0016356 -0.0005044 -0.0001731 -0.0003723 -0.0003097 0.0000415 -0.0007256 0.0003977 0.0010502 0.0002721 0.0006123 0.0002870 0.0006217 0.0002507 0.0004907
-0.0037413 0.0091655 0.0000387 -0.0002831 0.0004018 0.0015736 -0.0005274 -0.0002433 -0.0003903 -0.0003925 0.0000318 -0.0008026 0.0003903 0.0009350 0.0002623 0.0004705 0.0002781 0.0004933 0.0002164 0.0003498
-0.0152265 0.0072553 0.0000308 -0.0004285 0.0003867 0.0014016 -0.0005304 -0.0004039 -0.0003832 -0.0005309 0.0000181 -0.0009871 0.0003722 0.0007773 0.0002644 0.0003467 0.0002860 0.0003930 0.0002357 0.0002770
-0.0097254 0.0044471 0.0000397 -0.0003498 0.0003674 0.0013196 -0.0005198 -0.0004776 -0.0003769 -0.0005592 0.0000100 -0.0010465 0.0003545 0.0007483 0.0002564 0.0003488 0.0002867 0.0004118 0.0002543 0.0003479
-0.0006267 -0.0116642 0.0000488 -0.0002528 0.0003554 0.0013381 -0.0005170 -0.0004572 -0.0003820 -0.0005162 0.0000080 -0.0009925 0.0003574 0.0007738 0.0002387 0.0003811 0.0002840 0.0004678 0.0002583 0.0004368
0.0017601 0.0003331 0.0000579 -0.0001971 0.0003507 0.0013856 -0.0005197 -0.0003800 -0.0003853 -0.0004481 0.0000042 -0.0008827 0.0003463 0.0008429 0.0002218 0.0004405 0.0002768 0.0005506 0.0002609 0.0005531
-0.0029985 0.0090595 0.0000650 -0.0001106 0.0003482 0.0014584 -0.0005230 -0.0003005 -0.0003835 -0.0004028 -0.0000002 -0.0008526 0.0003300 0.0008368 0.0002114 0.0003987 0.0002698 0.0005226 0.0002458 0.0005353
-0.0068989 0.0026983 0.0000678 -0.0001818 0.0003491 0.0013994 -0.0005134 -0.0003760 -0.0003796 -0.0004830 -0.0000135 -0.0009814 0.0003140 0.0007058 0.0002068 0.0002661 0.0002735 0.0004095 0.0002429 0.0004223
0.0052334 -0.0069656 0.0000683 -0.0002945 0.0003444 0.0012770 -0.0005166 -0.0004777 -0.0003782 -0.0005717 -0.0000252 -0.0010903 0.0002940 0.0006363 0.0002033 0.0002351 0.0002753 0.0003903 0.0002509 0.0004437
0.0014321 -0.0014028 0.0000713 -0.0002698 0.0003379 0.0012696 -0.0005206 -0.0004559 -0.0003854 -0.0005464 -0.0000341 -0.0010686 0.0002813 0.0006690 0.0001999 0.0003100 0.0002724 0.0004339 0.0002586 0.0005311
-0.0115443 0.0176139 0.0000817 -0.0002322 0.0003333 0.0012991 -0.0005183 -0.0004116 -0.0003893 -0.0004880 -0.0000416 -0.0009849 0.0002805 0.0007314 0.0001962 0.0004200 0.0002716 0.0005129 0.0002792 0.0006350
-0.0053937 0.0117517 0.0000828 -0.0001380 0.0003207 0.0013578 -0.0005191 -0.0003299 -0.0003867 -0.0004040 -0.0000471 -0.0008689 0.0002716 0.0008248 0.0001953 0.0005721 0.0002684 0.0006176 0.0002792 0.0007513
-0.0050009 0.0107481 0.0000836 -0.0001022 0.0003198 0.0013894 -0.0005122 -0.0003005 -0.0003754 -0.0004012 -0.0000605 -0.0008873 0.0002585 0.0007874 0.0002046 0.0005705 0.0002622 0.0005539 0.0002648 0.0006998
-0.0101337 0.0223457 0.0001009 -0.0001771 0.0003258 0.0013157 -0.0005077 -0.0003775 -0.0003680 -0.0004826 -0.0000896 -0.0010574 0.0002423 0.0006458 0.0002367 0.0005732 0.0002582 0.0004277 0.0002765 0.0006354
-0.0143924 0.0154935 0.0001107 -0.0001492 0.0003414 0.0013121 -0.0005072 -0.0004225 -0.0003722 -0.0005183 -0.0001152 -0.0011327 0.0002209 0.0006299 0.0002847 0.0007660 0.0002616 0.0004383 0.0002819 0.0007065
-0.0070385 -0.0035920 0.0001186 -0.0000457 0.0004092 0.0015596 -0.0005128 -0.0004233 -0.0003371 -0.0004727 -0.0001246 -0.0010495 0.0001873 0.0006610 0.0003179 0.0010499 0.0002557 0.0005274 0.0002819 0.0008387
0.0040235 -0.0093638 0.0001039 -0.0000710 0.0006351 0.0022652 -0.0004913 -0.0003542 -0.0001305 0.0000668 -0.0001260 -0.0009116 0.0001499 0.0006620 0.0002993 0.0011808 0.0002507 0.0006527 0.0002561 0.0008657
0.0048183 0.0057740 0.0000796 -0.0001822 0.0007505 0.0026136 -0.0004578 -0.0002997 -0.0000005 0.0004791 -0.0001240 -0.0008033 0.0001393 0.0006925 0.0002657 0.0010924 0.0002501 0.0007358 0.0002131 0.0006733
0.0047378 0.0034357 0.0001034 -0.0001155 0.0006488 0.0022567 -0.0004440 -0.0004046 -0.0000408 0.0002970 -0.0001257 -0.0008437 0.0001499 0.0006346 0.0002602 0.0009696 0.0002523 0.0007112 0.0001755 0.0005328
0.0070126 -0.0105022 0.0001487 0.0000114 0.0005956 0.0020286 -0.0004416 -0.0004879 -0.0000526 0.0001553 -0.0001301 -0.0009068 0.0001491 0.0005525 0.0002635 0.0009293 0.0002659 0.0006989 0.0001765 0.0005216
-0.0074700 0.0101419 0.0001690 0.0000577 0.0005996 0.0020445 -0.0004483 -0.0004690 -0.0000613 0.0001393 -0.0001278 -0.0008098 0.0001254 0.0005999 0.0002675 0.0010565 0.0002765 0.0007761 0.0001938 0.0006148
-0.0080721 0.0157748 0.0001580 0.0001123 0.0006255 0.0021824 -0.0004644 -0.0003938 -0.0000651 0.0002060 -0.0001180 -0.0006309 0.0001200 0.0006967 0.0002611 0.0011824 0.0002759 0.0008596 0.0002023 0.0007144
-0.0004564 0.0137941 0.0001386 0.0001455 0.0006376 0.0023152 -0.0004716 -0.0002984 -0.0000712 0.0003022 -0.0001114 -0.0004626 0.0001188 0.0007989 0.0002440 0.0012766 0.0002621 0.0009411 0.0002194 0.0007602
0.0002276 0.0064286 0.0001380 0.0002308 0.0006179 0.0023578 -0.0004671 -0.0002036 -0.0000682 0.0003971 -0.0001146 -0.0003600 0.0001003 0.0008480 0.0002360 0.0013009 0.0002547 0.0009289 0.0002072 0.0007139
0.0038676 -0.0161038 0.0001348 0.0001939 0.0006025 0.0022699 -0.0004640 -0.0002539 -0.0000520 0.0003573 -0.0001129 -0.0003563 0.0000754 0.0007371 0.0002448 0.0012906 0.0002745 0.0008031 0.0002197 0.0007352
-0.0005147 -0.0069047 0.0001312 0.0000602 0.0006233 0.0022295 -0.0004645 -0.0003724 0.0000209 0.0004365 -0.0000152 0.0000831 -0.0000823 0.0004032 0.0000750 0.0011079 0.0002790 0.0007707 0.0003075 0.0011362
-0.0066689 0.0121074 0.0001175 0.0000502 0.0007862 0.0026644 -0.0004610 -0.0001904 0.0003008 0.0012909 0.0001115 0.0007046 -0.0003300 -0.0000108 -0.0002174 0.0007130 0.0002549 0.0008308 0.0003291 0.0013273
-0.0015891 0.0054754 0.0000377 -0.0002563 0.0007531 0.0025313 -0.0005314 -0.0001658 0.0003538 0.0014603 0.0001413 0.0008043 -0.0004129 -0.0001281 -0.0003432 0.0004170 0.0002592 0.0008113 0.0003908 0.0012689
0.0095500 -0.0270631 -0.0000235 -0.0005356 0.0004507 0.0016579 -0.0005993 -0.0003069 0.0000903 0.0006775 0.0000630 0.0005065 -0.0004103 -0.0000802 -0.0003647 0.0003009 0.0002777 0.0008877 0.0004736 0.0014471
0.0026425 -0.0105937 0.0000157 -0.0002855 0.0002670 0.0012128 -0.0005854 -0.0002310 -0.0000653 0.0003282 -0.0000475 0.0000525 -0.0004111 -0.0002106 -0.0003290 0.0001476 0.0002776 0.0008031 0.0004301 0.0013286
-0.0077768 0.0067133 0.0000569 -0.0003111 0.0001780 0.0009196 -0.0005986 -0.0003244 -0.0001344 0.0001585 -0.0001245 -0.0004214 -0.0003191 -0.0002173 -0.0001626 0.0001303 0.0002843 0.0005048 0.0003650 0.0010271
0.0026996 -0.0115455 0.0000387 -0.0006511 0.0001246 0.0006102 -0.0006120 -0.0004848 -0.0001913 -0.0000478 -0.0001582 -0.0007389 -0.0001442 0.0000658 0.0000466 0.0003717 0.0002979 0.0004005 0.0003110 0.0009302
0.0074044 -0.0063713 0.0000296 -0.0007862 0.0001002 0.0004891 -0.0006012 -0.0004859 -0.0002642 -0.0002156 -0.0001416 -0.0008073 -0.0000016 0.0003721 0.0001444 0.0005009 0.0002830 0.0004123 0.0002786 0.0008319
0.0035043 -0.0004851 0.0000318 -0.0007182 0.0000961 0.0005161 -0.0005506 -0.0004646 -0.0003051 -0.0002501 -0.0001309 -0.0007548 0.0000586 0.0005616 0.0001264 0.0005063 0.0002591 0.0004897 0.0002700 0.0007766
0.0023863 0.0020088 0.0000319 -0.0005541 0.0000887 0.0006024 -0.0005013 -0.0004002 -0.0003256 -0.0001876 -0.0001351 -0.0006161 0.0000687 0.0006914 0.0000778 0.0005142 0.0002462 0.0006031 0.0002795 0.0008316
-0.0000680 0.0037953 0.0000472 -0.0004631 0.0000974 0.0006881 -0.0004733 -0.0003627 -0.0003347 -0.0002154 -0.0001464 -0.0006310 0.0000801 0.0006964 0.0000628 0.0004267 0.0002399 0.0005222 0.0002622 0.0006807
0.0007835 -0.0027901 0.0000470 -0.0005776 0.0001010 0.0005823 -0.0004616 -0.0004864 -0.0003417 -0.0003754 -0.0001572 -0.0008167 0.0001145 0.0006196 0.0000805 0.0002939 0.0002391 0.0003372 0.0002225 0.0004075
-0.0030770 0.0077670 0.0000404 -0.0007084 0.0000910 0.0004293 -0.0004761 -0.0006026 -0.0003579 -0.0004765 -0.0001580 -0.0009027 0.0001388 0.0006193 0.0000803 0.0002367 0.0002395 0.0003008 0.0001857 0.0003243
0.0028248 -0.0019268 0.0000498 -0.0006654 0.0000830 0.0004189 -0.0004851 -0.0006057 -0.0003639 -0.0004763 -0.0001498 -0.0008610 0.0001386 0.0006467 0.0000670 0.0002155 0.0002402 0.0003447 0.0001953 0.0003941
0.0132560 -0.0144222 0.0000672 -0.0004151 0.0000991 0.0005436 -0.0004551 -0.0005462 -0.0003501 -0.0004357 -0.0001560 -0.0008544 0.0001168 0.0006466 0.0000621 0.0002072 0.0002514 0.0003994 0.0002253 0.0005092
0.0062687 0.0029985 0.0000780 -0.0001537 0.0001420 0.0007296 -0.0003935 -0.0004490 -0.0003395 -0.0003856 -0.0001711 -0.0008592 0.0001017 0.0006561 0.0000457 0.0001983 0.0002532 0.0004523 0.0002350 0.0005710
-0.0035153 0.0103580 0.0000643 -0.0001406 0.0001793 0.0007946 -0.0003523 -0.0004251 -0.0003437 -0.0004297 -0.0001787 -0.0009478 0.0001076 0.0005616 0.0000362 0.0000910 0.0002440 0.0003611 0.0002338 0.0004488
-0.0074013 0.0026332 0.0000498 -0.0002302 0.0001968 0.0007271 -0.0003442 -0.0005031 -0.0003452 -0.0005493 -0.0001895 -0.0011168 0.0001197 0.0004301 0.0000501 0.0000052 0.0002453 0.0002555 0.0002082 0.0002735
-0.0015614 -0.0067758 0.0000667 -0.0003106 0.0002029 0.0006638 -0.0003543 -0.0005314 -0.0003514 -0.0005917 -0.0001973 -0.0011465 0.0001256 0.0004440 0.0000583 0.0000734 0.0002422 0.0002994 0.0001681 0.0002709
0.0066625 -0.0103948 0.0000897 -0.0002829 0.0002097 0.0007318 -0.0003714 -0.0004732 -0.0003723 -0.0005870 -0.0001999 -0.0010535 0.0001178 0.0005300 0.0000637 0.0002322 0.0002235 0.0003966 0.0001695 0.0003244
0.0055182 -0.0128786 0.0001105 -0.0001279 0.0003652 0.0012631 -0.0003757 -0.0004003 -0.0003635 -0.0005692 -0.0002151 -0.0009391 0.0000912 0.0006241 0.0000787 0.0004477 0.0002015 0.0005195 0.0001748 0.0003939
0.0002003 -0.0044734 0.0001244 0.0000592 0.0004577 0.0016325 -0.0003632 -0.0002977 -0.0003177 -0.0003891 -0.0002209 -0.0007851 0.0000861 0.0007380 0.0000911 0.0005897 0.0002063 0.0006043 0.0001595 0.0004001
-0.0061907 0.0030939 0.0001154 0.0000516 0.0003876 0.0014477 -0.0003479 -0.0003242 -0.0002870 -0.0003145 -0.0002155 -0.0007725 0.0001064 0.0007144 0.0000943 0.0005229 0.0002190 0.0005321 0.0001409 0.0002429
0.0020132 0.0057292 0.0001084 -0.0001170 0.0003519 0.0012124 -0.0003411 -0.0004580 -0.0002903 -0.0004023 -0.0001990 -0.0008475 0.0001312 0.0006358 0.0000933 0.0003781 0.0002261 0.0004253 0.0000971 0.0001084
0.0049483 0.0003827 0.0001150 -0.0002050 0.0002952 0.0010160 -0.0003555 -0.0004487 -0.0003116 -0.0004041 -0.0001697 -0.0007559 0.0001509 0.0007017 0.0000730 0.0003351 0.0002306 0.0004502 0.0000673 0.0000990
0.0094553 -0.0255895 0.0000967 -0.0002120 0.0002376 0.0009247 -0.0003684 -0.0003763 -0.0003313 -0.0003691 -0.0001570 -0.0006163 0.0001550 0.0008124 0.0000501 0.0003662 0.0002249 0.0005063 0.0000599 0.0000703
0.0084941 -0.0197515 0.0000587 -0.0002473 0.0001988 0.0008750 -0.0003700 -0.0003204 -0.0003355 -0.0002982 -0.0001571 -0.0005084 0.0001468 0.0008999 0.0000346 0.0004348 0.0002093 0.0005581 0.0000615 0.0001002
0.0025328 -0.0188478 0.0000522 -0.0001989 0.0001874 0.0009245 -0.0003625 -0.0002368 -0.0003287 -0.0002376 -0.0001636 -0.0004846 0.0001400 0.0008816 0.0000264 0.0003898 0.0001984 0.0005092 0.0000713 0.0000523
0.0114642 -0.0242915 0.0000806 -0.0001887 0.0001971 0.0009118 -0.0003484 -0.0002752 -0.0003431 -0.0003549 -0.0001733 -0.0005992 0.0001431 0.0007820 0.0000271 0.0002557 0.0001936 0.0003692 0.0000796 -0.0001448
0.0048227 -0.0059582 0.0000584 -0.0004712 0.0001948 0.0007262 -0.0003637 -0.0004432 -0.0003822 -0.0005404 -0.0001717 -0.0006415 0.0001525 0.0007592 0.0000261 0.0002395 0.0001819 0.0003032 0.0000619 -0.0002220
-0.0057814 0.0011414 0.0000532 -0.0005891 0.0001724 0.0006267 -0.0003978 -0.0004870 -0.0003969 -0.0005540 -0.0001608 -0.0005460 0.0001553 0.0008238 0.0000292 0.0003250 0.0001683 0.0002988 0.0000242 -0.0001726
-0.0068527 0.0090553 0.0001160 -0.0001944 0.0001801 0.0008069 -0.0003727 -0.0002933 -0.0003732 -0.0004340 -0.0001636 -0.0004615 0.0001427 0.0009169 0.0000312 0.0004139 0.0001644 0.0003939 0.0000328 0.0000476
-0.0097307 0.0118847 0.0000724 -0.0001914 0.0001815 0.0008942 -0.0003641 -0.0001614 -0.0003809 -0.0003656 -0.0001938 -0.0004271 0.0001168 0.0010031 0.0000706 0.0006226 0.0001908 0.0005470 0.0000999 0.0003063
-0.0017324 -0.0030628 0.0000132 -0.0005038 0.0001470 0.0007754 -0.0003876 -0.0002390 -0.0004063 -0.0004479 -0.0002101 -0.0004980 0.0001155 0.0009173 0.0000893 0.0005832 0.0002147 0.0004575 0.0001564 0.0001874
0.0082797 -0.0210770 0.0000459 -0.0004813 0.0001217 0.0006468 -0.0003936 -0.0003685 -0.0004186 -0.0005941 -0.0001903 -0.0005581 0.0001413 0.0007942 0.0000505 0.0003011 0.0002127 0.0003047 0.0001453 -0.0000485
0.0017504 0.0005212 0.0000474 -0.0004131 0.0000974 0.0005112 -0.0004077 -0.0004555 -0.0004345 -0.0006631 -0.0001688 -0.0005163 0.0001557 0.0008050 0.0000192 0.0002015 0.0002058 0.0002982 0.0001068 -0.0000986
-0.0034082 0.0072338 0.0000126 -0.0003332 0.0000811 0.0004758 -0.0004187 -0.0004473 -0.0004498 -0.0006375 -0.0001535 -0.0004184 0.0001678 0.0008775 0.0000097 0.0002066 0.0002040 0.0003213 0.0000792 -0.0000751
0.0104270 -0.0291090 0.0000327 -0.0002705 0.0000696 0.0005251 -0.0004435 -0.0003806 -0.0004635 -0.0005771 -0.0001435 -0.0002813 0.0001666 0.0010041 0.0000079 0.0002836 0.0001875 0.0003413 0.0000422 0.0000280
0.0017442 -0.0094809 0.0000798 -0.0002117 0.0000587 0.0006064 -0.0004491 -0.0002740 -0.0004664 -0.0004960 -0.0001384 -0.0001669 0.0001609 0.0010692 0.0000146 0.0003377 0.0001587 0.0002565 0.0000110 0.0000425
-0.0021642 0.0039532 0.0000743 -0.0003761 0.0000648 0.0005794 -0.0004216 -0.0002950 -0.0004478 -0.0005193 -0.0001483 -0.0002574 0.0001556 0.0009392 0.0000347 0.0002984 0.0001256 0.0000525 0.0000121 -0.0001106
0.0052197 0.0011667 0.0000494 -0.0005958 0.0000647 0.0004672 -0.0004016 -0.0003840 -0.0004283 -0.0005756 -0.0001551 -0.0003969 0.0001538 0.0008071 0.0000449 0.0002399 0.0001070 -0.0000659 0.0000239 -0.0002187
0.0028671 -0.0003311 0.0000448 -0.0006046 0.0000511 0.0004453 -0.0003879 -0.0003799 -0.0004284 -0.0005594 -0.0001494 -0.0003637 0.0001626 0.0008050 0.0000333 0.0002182 0.0001171 -0.0000153 0.0000183 -0.0001764
0.0030204 -0.0073517 0.0000512 -0.0005098 0.0000422 0.0005045 -0.0003920 -0.0003094 -0.0004301 -0.0005042 -0.0001427 -0.0002614 0.0001622 0.0008644 0.0000176 0.0002456 0.0001286 0.0000788 0.0000033 -0.0000542
-0.0040229 0.0013687 0.0000551 -0.0003555 0.0000407 0.0005872 -0.0004034 -0.0002053 -0.0004378 -0.0004232 -0.0001370 -0.0001293 0.0001532 0.0009628 0.0000055 0.0003078 0.0001357 0.0001828 -0.0000073 0.0000776
-0.0012861 0.0012438 0.0000669 -0.0002263 0.0000512 0.0006780 -0.0003990 -0.0001170 -0.0004709 -0.0004550 -0.0001329 -0.0001056 0.0001463 0.0009565 0.0000086 0.0002532 0.0001870 0.0002299 0.0000553 0.0000543
0.0133744 -0.0181198 0.0001261 -0.0000684 0.0001165 0.0007887 -0.0003500 -0.0000298 -0.0006335 -0.0009784 -0.0001828 -0.0004405 0.0001661 0.0009127 0.0000971 0.0003574 0.0003185 0.0003104 0.0001053 -0.0003800
0.0053027 -0.0004400 0.0001294 0.0002651 0.0002760 0.0010719 -0.0002357 0.0001285 -0.0007467 -0.0013944 -0.0002367 -0.0007660 0.0001843 0.0008878 0.0001793 0.0005578 0.0004284 0.0004267 0.0001125 -0.0007848
-0.0007513 0.0105697 0.0000829 0.0005009 0.0004024 0.0013893 -0.0001666 0.0003027 -0.0006632 -0.0011676 -0.0002253 -0.0007158 0.0001881 0.0008908 0.0001714 0.0005837 0.0004430 0.0004899 0.0000921 -0.0004477
0.0013881 -0.0006275 0.0001211 0.0003665 0.0004089 0.0014495 -0.0002110 0.0002927 -0.0006522 -0.0010392 -0.0002074 -0.0005721 0.0002083 0.0009838 0.0001436 0.0006189 0.0003857 0.0005268 0.0000665 0.0000242
0.0012642 -0.0063605 0.0002047 0.0000272 0.0003401 0.0012931 -0.0002958 0.0001883 -0.0006842 -0.0010205 -0.0001988 -0.0004366 0.0002047 0.0010887 0.0001159 0.0006720 0.0003288 0.0005289 0.0000671 0.0001385
0.0043839 -0.0055002 0.0002267 -0.0002806 0.0002849 0.0011558 -0.0003345 0.0001107 -0.0006625 -0.0009833 -0.0002043 -0.0004603 0.0001879 0.0010458 0.0001085 0.0006070 0.0002840 0.0003258 0.0001471 -0.0001404
-0.0032860 0.0099649 0.0002148 -0.0004115 0.0002747 0.0010372 -0.0003389 -0.0000101 -0.0006445 -0.0010609 -0.0002056 -0.0006173 0.0001907 0.0008995 0.0001163 0.0004740 0.0002699 0.0001391 0.0002395 -0.0003778
-0.0036656 0.0010746 0.0002327 -0.0003792 0.0002701 0.0009551 -0.0003271 -0.0000926 -0.0006354 -0.0010893 -0.0001947 -0.0006520 0.0001975 0.0008798 0.0001212 0.0004515 0.0002941 0.0001867 0.0002332 -0.0002734
0.0150506 -0.0406778 0.0002473 -0.0002975 0.0002644 0.0009835 -0.0003229 -0.0000817 -0.0006396 -0.0010532 -0.0001837 -0.0005657 0.0002105 0.0009640 0.0001259 0.0005075 0.0002957 0.0002493 0.0002259 -0.0001870
0.0010907 0.0068838 0.0002491 -0.0001720 0.0002496 0.0010413 -0.0003266 -0.0000108 -0.0006448 -0.0009828 -0.0001723 -0.0004233 0.0002332 0.0010908 0.0001282 0.0006139 0.0002782 0.0003128 0.0001958 -0.0000884
-0.0012940 0.0163977 0.0002549 -0.0000346 0.0002371 0.0011326 -0.0003362 0.0001074 -0.0006505 -0.0008774 -0.0001611 -0.0002555 0.0002488 0.0012445 0.0001298 0.0007401 0.0002536 0.0003333 0.0001410 -0.0000085
-0.0017640 0.0064381 0.0002430 -0.0000786 0.0002384 0.0011613 -0.0003501 0.0001485 -0.0006434 -0.0008743 -0.0001550 -0.0002640 0.0002582 0.0012403 0.0001389 0.0006991 0.0002320 0.0001849 0.0001273 -0.0001404
-0.0155331 0.0182536 0.0002067 -0.0002715 0.0002429 0.0010594 -0.0003344 0.0000897 -0.0006220 -0.0009383 -0.0001563 -0.0003998 0.0002648 0.0011363 0.0001484 0.0005861 0.0002132 0.0000026 0.0001117 -0.0003029
-0.0030397 0.0053090 0.0001878 -0.0004123 0.0002393 0.0009801 -0.0003097 0.0000980 -0.0006033 -0.0009177 -0.0001518 -0.0004171 0.0002767 0.0011350 0.0001476 0.0005904 0.0002064 -0.0000147 0.0001021 -0.0002835
0.0127708 -0.0197450 0.0001814 -0.0003849 0.0002254 0.0009868 -0.0002974 0.0001585 -0.0005923 -0.0008451 -0.0001426 -0.0003431 0.0002854 0.0011910 0.0001391 0.0006249 0.0002117 0.0000449 0.0001350 -0.0002086
0.0106142 -0.0221392 0.0001924 -0.0001705 0.0002127 0.0010449 -0.0002883 0.0002296 -0.0005826 -0.0007440 -0.0001370 -0.0002187 0.0002888 0.0012852 0.0001294 0.0006973 0.0002055 0.0001454 0.0001285 -0.0000735
0.0033355 -0.0322836 0.0002139 0.0000543 0.0002062 0.0011460 -0.0002813 0.0003385 -0.0005679 -0.0006253 -0.0001302 -0.0000731 0.0002933 0.0014056 0.0001269 0.0007863 0.0002050 0.0002422 0.0001033 -0.0000010
0.0035001 -0.0306523 0.0002083 0.0000509 0.0002103 0.0011786 -0.0002802 0.0003677 -0.0005504 -0.0006145 -0.0001299 -0.0001061 0.0002922 0.0013710 0.0001328 0.0007233 0.0002186 0.0001692 0.0000940 -0.0001276
0.0058591 -0.0205073 0.0001893 -0.0000876 0.0002188 0.0010925 -0.0002811 0.0002959 -0.0005353 -0.0006877 -0.0001305 -0.0002487 0.0002873 0.0012603 0.0001391 0.0006086 0.0002310 0.0000577 0.0000967 -0.0002400
0.0039946 -0.0155651 0.0001848 -0.0001235 0.0002139 0.0010239 -0.0002847 0.0002643 -0.0005292 -0.0007028 -0.0001265 -0.0002771 0.0002879 0.0012520 0.0001354 0.0006084 0.0002306 0.0000722 0.0001260 -0.0002432
-0.0020146 0.0012639 0.0001787 -0.0000645 0.0002095 0.0010473 -0.0002842 0.0003044 -0.0005326 -0.0006548 -0.0001217 -0.0002211 0.0002914 0.0013011 0.0001271 0.0006590 0.0002209 0.0001138 0.0001459 -0.0002137
0.0026260 -0.0014457 0.0001756 0.0000125 0.0002065 0.0010963 -0.0002735 0.0003766 -0.0005354 -0.0005783 -0.0001206 -0.0001175 0.0002902 0.0013843 0.0001135 0.0007360 0.0002128 0.0001851 0.0001318 -0.0001064
0.0060241 -0.0088287 0.0001849 0.0001206 0.0002020 0.0011686 -0.0002625 0.0004697 -0.0005365 -0.0004918 -0.0001257 -0.0000140 0.0002907 0.0014479 0.0001077 0.0007639 0.0002133 0.0002128 0.0001119 -0.0001010
0.0038694 -0.0005221 0.0001869 0.0000635 0.0002095 0.0011547 -0.0002652 0.0004471 -0.0005333 -0.0005304 -0.0001339 -0.0000899 0.0002869 0.0013785 0.0001102 0.0006719 0.0002159 0.0001158 0.0000868 -0.0002241
-0.0010832 0.0075147 0.0001734 -0.0000740 0.0002151 0.0010518 -0.0002737 0.0003599 -0.0005295 -0.0006262 -0.0001386 -0.0002411 0.0002825 0.0012587 0.0001089 0.0005721 0.0002164 0.0000345 0.0000662 -0.0002707
-0.0120221 0.0199219 0.0001813 -0.0000844 0.0002094 0.0010117 -0.0002734 0.0003433 -0.0005291 -0.0006258 -0.0001368 -0.0002562 0.0002762 0.0012511 0.0001065 0.0005612 0.0002168 0.0000587 0.0000904 -0.0002277
-0.0017676 0.0098869 0.0001964 -0.0000216 0.0002028 0.0010498 -0.0002659 0.0003792 -0.0005324 -0.0005868 -0.0001353 -0.0002043 0.0002647 0.0013027 0.0000984 0.0005996 0.0002068 0.0001111 0.0001156 -0.0001368
0.0076153 -0.0165782 0.0002091 0.0000737 0.0001950 0.0011123 -0.0002675 0.0004623 -0.0005398 -0.0005155 -0.0001376 -0.0001045 0.0002668 0.0013744 0.0000854 0.0006710 0.0001987 0.0001737 0.0001143 -0.0000287
0.0015633 -0.0023172 0.0002087 0.0001605 0.0001947 0.0011746 -0.0002722 0.0005290 -0.0005382 -0.0004765 -0.0001446 -0.0001032 0.0002680 0.0013523 0.0000843 0.0006261 0.0002023 0.0001243 0.0001144 -0.0001030
0.0029976 -0.0049149 0.0001861 0.0000677 0.0001987 0.0010989 -0.0002680 0.0004402 -0.0005298 -0.0005704 -0.0001519 -0.0002647 0.0002670 0.0012057 0.0000981 0.0004983 0.0002103 -0.0000027 0.0001182 -0.0002239
0.0122511 -0.0295903 0.0001868 -0.0000598 0.0002086 0.0009922 -0.0002508 0.0003167 -0.0004914 -0.0006090 -0.0001667 -0.0004207 0.0002579 0.0010821 0.0002009 0.0007168 0.0002449 0.0000082 0.0001595 -0.0000461
0.0141072 -0.0242737 0.0001729 0.0001299 0.0002904 0.0012179 -0.0002101 0.0003854 -0.0004148 -0.0004755 -0.0001719 -0.0004611 0.0002475 0.0010544 0.0003187 0.0009948 0.0003097 0.0001383 0.0001941 0.0002103
0.0073549 -0.0195382 0.0001503 0.0002709 0.0003578 0.0014218 -0.0001855 0.0004753 -0.0004034 -0.0004204 -0.0001587 -0.0004256 0.0002482 0.0010955 0.0003225 0.0009917 0.0003402 0.0002464 0.0001882 0.0002933
-0.0029512 0.0040558 0.0001777 0.0002105 0.0003289 0.0013550 -0.0001944 0.0005032 -0.0004401 -0.0004181 -0.0001498 -0.0003472 0.0002517 0.0011578 0.0002984 0.0009637 0.0003407 0.0003054 0.0002077 0.0002568
0.0123626 -0.0144322 0.0001711 0.0001269 0.0003148 0.0012822 -0.0001891 0.0004741 -0.0004407 -0.0004669 -0.0001502 -0.0004152 0.0002587 0.0010670 0.0002900 0.0008222 0.0003494 0.0002249 0.0002157 0.0001159
0.0131259 -0.0099951 0.0001194 0.0000277 0.0003169 0.0011851 -0.0001798 0.0003793 -0.0004354 -0.0005859 -0.0001488 -0.0005775 0.0002628 0.0009143 0.0002780 0.0006433 0.0003578 0.0001151 0.0001972 0.0000002
0.0027123 0.0073121 0.0000974 0.0000102 0.0003041 0.0011092 -0.0001856 0.0003393 -0.0004391 -0.0006242 -0.0001391 -0.0006017 0.0002670 0.0008823 0.0002587 0.0005688 0.0003641 0.0001317 0.0001859 0.0000085
0.0022659 -0.0004860 0.0000999 0.0000765 0.0002994 0.0011129 -0.0001981 0.0003738 -0.0004445 -0.0005947 -0.0001305 -0.0005305 0.0002652 0.0009247 0.0002429 0.0005739 0.0003703 0.0001983 0.0001826 0.0000688
0.0006329 0.0027403 0.0001190 0.0001435 0.0002960 0.0011507 -0.0001940 0.0004232 -0.0004519 -0.0005335 -0.0001238 -0.0004245 0.0002594 0.0010168 0.0002360 0.0006508 0.0003724 0.0002879 0.0001855 0.0001644
-0.0030820 0.0054860 0.0001278 0.0002275 0.0002856 0.0012178 -0.0001928 0.0004959 -0.0004621 -0.0004550 -0.0001201 -0.0003442 0.0002631 0.0010710 0.0002368 0.0006489 0.0003708 0.0002845 0.0001987 0.0001324
-0.0002994 0.0111161 0.0001074 0.0001543 0.0002850 0.0011686 -0.0001902 0.0004306 -0.0004621 -0.0005181 -0.0001212 -0.0004504 0.0002758 0.0009629 0.0002439 0.0005269 0.0003724 0.0001668 0.0002247 -0.0000515
0.0006485 0.0078435 0.0000970 -0.0000060 0.0002856 0.0010385 -0.0001768 0.0002887 -0.0004567 -0.0006365 -0.0001221 -0.0006085 0.0002913 0.0008334 0.0002504 0.0004429 0.0003779 0.0001036 0.0002124 -0.0000964
-0.0022004 -0.0029113 0.0001077 -0.0000227 0.0002799 0.0009998 -0.0001842 0.0002697 -0.0004577 -0.0006445 -0.0001188 -0.0006141 0.0002952 0.0008431 0.0002610 0.0004914 0.0003796 0.0001271 0.0002047 -0.0000013
-0.0090532 0.0092984 0.0001165 0.0000277 0.0002815 0.0010426 -0.0001930 0.0003042 -0.0004439 -0.0005840 -0.0001261 -0.0005804 0.0002831 0.0008709 0.0002978 0.0006472 0.0003821 0.0001889 0.0002391 0.0001752
-0.0029225 -0.0042578 0.0001167 0.0003795 0.0003361 0.0012964 -0.0001550 0.0005034 -0.0003693 -0.0003707 -0.0001511 -0.0005804 0.0002627 0.0008541 0.0003538 0.0008315 0.0004651 0.0003600 0.0003139 0.0001367
0.0021614 0.0057640 0.0000651 0.0004298 0.0004122 0.0014908 -0.0001530 0.0005638 -0.0003621 -0.0004154 -0.0001597 -0.0007099 0.0002533 0.0007513 0.0003655 0.0007209 0.0004887 0.0003135 0.0003345 0.0001341
-0.0009962 0.0146535 -0.0000243 0.0000223 0.0004122 0.0013004 -0.0001694 0.0003451 -0.0004067 -0.0006732 -0.0001503 -0.0009139 0.0002685 0.0005883 0.0003445 0.0004441 0.0004676 0.0001347 0.0002759 0.0000976
-0.0046435 0.0045944 -0.0000431 0.0000170 0.0003932 0.0011543 -0.0001422 0.0002634 -0.0003949 -0.0007233 -0.0001472 -0.0010107 0.0002823 0.0004987 0.0003277 0.0003206 0.0004889 0.0001100 0.0002838 0.0000299
-0.0035535 -0.0104993 0.0000029 0.0000395 0.0003771 0.0010904 -0.0001593 0.0002270 -0.0004202 -0.0007633 -0.0001458 -0.0010047 0.0002893 0.0005031 0.0002959 0.0002644 0.0004564 0.0000900 0.0003117 0.0001804
-0.0029072 -0.0045896 0.0001506 -0.0001792 0.0003153 0.0008944 -0.0002305 0.0001078 -0.0004777 -0.0008432 -0.0001281 -0.0009085 0.0002897 0.0005766 0.0002472 0.0002282 0.0004225 0.0000964 0.0002830 0.0001969
-0.0027564 0.0066005 0.0002805 -0.0002105 0.0002505 0.0007727 -0.0002826 0.0000888 -0.0005045 -0.0008306 -0.0001108 -0.0007573 0.0002834 0.0006775 0.0002004 0.0001922 0.0003984 0.0001154 0.0002887 0.0001591
0.0013913 -0.0060820 0.0002681 -0.0002234 0.0002291 0.0007074 -0.0002791 0.0000472 -0.0004897 -0.0008573 -0.0001179 -0.0008499 0.0002731 0.0005617 0.0001813 -0.0000001 0.0003928 -0.0000053 0.0003149 -0.0000001
0.0007364 -0.0094050 0.0002409 -0.0003868 0.0002418 0.0005896 -0.0002552 -0.0001057 -0.0004749 -0.0010175 -0.0001345 -0.0011533 0.0002707 0.0002977 0.0001804 -0.0002490 0.0003898 -0.0001603 0.0003325 -0.0001532
0.0018827 -0.0032457 0.0002465 -0.0004211 0.0002439 0.0004885 -0.0002423 -0.0001871 -0.0004769 -0.0011119 -0.0001395 -0.0012955 0.0002863 0.0001943 0.0001849 -0.0003156 0.0004011 -0.0001595 0.0003535 -0.0001556
0.0053786 0.0038989 0.0002457 -0.0003989 0.0002293 0.0004477 -0.0002449 -0.0001919 -0.0004811 -0.0011031 -0.0001340 -0.0012613 0.0002960 0.0002333 0.0001858 -0.0002765 0.0004174 -0.0001030 0.0003447 -0.0000955
0.0032780 0.0006316 0.0002530 -0.0004032 0.0002187 0.0004540 -0.0002477 -0.0001639 -0.0004825 -0.0010491 -0.0001289 -0.0011691 0.0002942 0.0003274 0.0001827 -0.0001959 0.0004124 -0.0000327 0.0003178 -0.0000235
0.0024552 -0.0105025 0.0002629 -0.0002862 0.0002144 0.0005243 -0.0002566 -0.0000817 -0.0004811 -0.0009549 -0.0001223 -0.0010468 0.0002877 0.0004331 0.0001811 -0.0001171 0.0004098 0.0000361 0.0003233 0.0000175
-0.0094087 0.0021340 0.0002376 -0.0002095 0.0002309 0.0005910 -0.0002493 -0.0000679 -0.0004653 -0.0009484 -0.0001225 -0.0011033 0.0002843 0.0003571 0.0001880 -0.0002034 0.0004201 -0.0000526 0.0003458 -0.0000645
-0.0222292 0.0210320 0.0002132 -0.0003174 0.0002509 0.0005244 -0.0002268 -0.0001929 -0.0004473 -0.0010697 -0.0001239 -0.0013164 0.0002966 0.0001594 0.0002025 -0.0003497 0.0004312 -0.0001969 0.0003702 -0.0001601
0.0013941 0.0059510 0.0002071 -0.0004295 0.0002554 0.0004383 -0.0002168 -0.0002781 -0.0004436 -0.0011346 -0.0001178 -0.0013994 0.0003116 0.0000927 0.0002179 -0.0003379 0.0004330 -0.0002049 0.0004010 -0.0001366
0.0141061 -0.0211974 0.0002084 -0.0004165 0.0002555 0.0004458 -0.0002052 -0.0002722 -0.0004404 -0.0010979 -0.0001149 -0.0013418 0.0003210 0.0001358 0.0002345 -0.0002452 0.0004337 -0.0001464 0.0003956 -0.0000113
0.0145414 -0.0390486 0.0002114 -0.0003334 0.0002535 0.0005056 -0.0002033 -0.0002070 -0.0004288 -0.0010229 -0.0001137 -0.0012339 0.0003153 0.0002366 0.0002541 -0.0000948 0.0004380 -0.0000575 0.0003882 0.0001560
0.0011527 -0.0059019 0.0002260 -0.0002275 0.0002545 0.0005980 -0.0002153 -0.0000951 -0.0004208 -0.0009206 -0.0001146 -0.0011189 0.0003093 0.0003400 0.0002748 0.0000926 0.0004362 0.0000404 0.0003962 0.0003323
0.0018202 -0.0068098 0.0002388 -0.0001500 0.0002658 0.0006877 -0.0002088 -0.0000328 -0.0004161 -0.0008867 -0.0001213 -0.0011250 0.0003105 0.0003177 0.0002938 0.0001021 0.0004332 -0.0000084 0.0003945 0.0003040
0.0082999 -0.0223641 0.0002383 -0.0002379 0.0002792 0.0006213 -0.0001933 -0.0001244 -0.0004081 -0.0009746 -0.0001221 -0.0012717 0.0003118 0.0001735 0.0003023 -0.0000517 0.0004347 -0.0001583 0.0004215 0.0001357
0.0030312 -0.0064286 0.0002326 -0.0003178 0.0002864 0.0005057 -0.0001742 -0.0002291 -0.0003952 -0.0010395 -0.0001078 -0.0013489 0.0003130 0.0000888 0.0002809 -0.0001614 0.0004246 -0.0002198 0.0004589 0.0000777
-0.0074702 0.0093622 0.0002317 -0.0002746 0.0002898 0.0005065 -0.0001608 -0.0002160 -0.0003859 -0.0010258 -0.0000981 -0.0013092 0.0003093 0.0001096 0.0002586 -0.0001744 0.0004090 -0.0002059 0.0004714 0.0001125
-0.0133062 0.0223059 0.0002324 -0.0002194 0.0002884 0.0005520 -0.0001536 -0.0001611 -0.0003918 -0.0009864 -0.0000986 -0.0012227 0.0003103 0.0001697 0.0002495 -0.0001231 0.0003687 -0.0002556 0.0004987 0.0001685
0.0010031 0.0099225 0.0001709 -0.0004499 0.0002605 0.0005071 -0.0001751 -0.0001349 -0.0004173 -0.0009537 -0.0001011 -0.0011069 0.0003006 0.0002501 0.0002327 -0.0000543 0.0003069 -0.0003516 0.0004966 0.0002033
0.0031242 0.0017183 0.0001116 -0.0006941 0.0002226 0.0003950 -0.0002047 -0.0001585 -0.0004269 -0.0009646 -0.0000982 -0.0011046 0.0002913 0.0002225 0.0002264 -0.0001224 0.0002937 -0.0004659 0.0004635 0.0001034
-0.0060306 0.0107068 0.0001317 -0.0007741 0.0002055 0.0002513 -0.0002013 -0.0002780 -0.0004116 -0.0010538 -0.0000910 -0.0012495 0.0002965 0.0000757 0.0002298 -0.0002908 0.0003167 -0.0005919 0.0004783 -0.0000875
0.0008084 0.0036556 0.0001506 -0.0008885 0.0001972 0.0001049 -0.0001919 -0.0003985 -0.0004058 -0.0011233 -0.0000869 -0.0013152 0.0003002 0.0000092 0.0002268 -0.0003505 0.0003338 -0.0005714 0.0005058 -0.0001246
0.0030841 0.0006441 0.0001514 -0.0008481 0.0001905 0.0000769 -0.0001887 -0.0003999 -0.0003995 -0.0010983 -0.0000783 -0.0012594 0.0003137 0.0000450 0.0002261 -0.0003268 0.0003506 -0.0004630 0.0005052 -0.0000468
-0.0026634 0.0119909 0.0001742 -0.0007405 0.0001869 0.0001191 -0.0001928 -0.0003359 -0.0003935 -0.0010273 -0.0000711 -0.0011673 0.0003211 0.0001256 0.0002241 -0.0002525 0.0003587 -0.0003553 0.0004878 0.0000676
-0.0066858 0.0196385 0.0002041 -0.0006093 0.0001885 0.0002071 -0.0001902 -0.0002354 -0.0003835 -0.0009234 -0.0000650 -0.0010502 0.0003172 0.0002314 0.0002206 -0.0001671 0.0003596 -0.0002571 0.0004550 0.0001846
-0.0145982 0.0280746 0.0002254 -0.0004874 0.0001909 0.0003093 -0.0001798 -0.0001466 -0.0003707 -0.0008496 -0.0000584 -0.0010139 0.0003168 0.0002402 0.0002212 -0.0002205 0.0003670 -0.0002763 0.0004390 0.0001090
-0.0077308 0.0148996 0.0002315 -0.0005361 0.0002014 0.0002723 -0.0001713 -0.0001984 -0.0003652 -0.0009052 -0.0000560 -0.0011281 0.0003136 0.0001191 0.0002186 -0.0003831 0.0003850 -0.0003776 0.0004570 -0.0000834
-0.0013887 0.0022338 0.0002321 -0.0006310 0.0002111 0.0001723 -0.0001566 -0.0002990 -0.0003586 -0.0009802 -0.0000521 -0.0012143 0.0003169 0.0000438 0.0002158 -0.0004675 0.0003993 -0.0003807 0.0004734 -0.0001176
-0.0027557 0.0055273 0.0002354 -0.0005909 0.0002169 0.0001817 -0.0001393 -0.0002941 -0.0003513 -0.0009618 -0.0000453 -0.0011839 0.0003257 0.0000714 0.0002088 -0.0004535 0.0003928 -0.0003165 0.0004763 -0.0000556
0.0033930 -0.0096111 0.0002464 -0.0005150 0.0002241 0.0002460 -0.0001298 -0.0002341 -0.0003490 -0.0008962 -0.0000370 -0.0010976 0.0003285 0.0001435 0.0001960 -0.0003875 0.0003861 -0.0002311 0.0004675 0.0000560
-0.0029442 0.0094105 0.0002523 -0.0003979 0.0002280 0.0003316 -0.0001252 -0.0001409 -0.0003414 -0.0008063 -0.0000302 -0.0009695 0.0003253 0.0002447 0.0001894 -0.0003015 0.0003871 -0.0001212 0.0004413 0.0001863
-0.0041578 0.0198420 0.0002629 -0.0002945 0.0002265 0.0004173 -0.0001340 -0.0000367 -0.0003323 -0.0007182 -0.0000267 -0.0008857 0.0003207 0.0003053 0.0001936 -0.0002964 0.0003944 -0.0001209 0.0004307 0.0001597
-0.0072390 0.0131497 0.0002729 -0.0003847 0.0002316 0.0003771 -0.0001393 -0.0000805 -0.0003240 -0.0007668 -0.0000269 -0.0009820 0.0003198 0.0002145 0.0002055 -0.0004080 0.0004074 -0.0002247 0.0004396 0.0000271
-0.0069418 -0.0024295 0.0002632 -0.0005131 0.0002409 0.0002585 -0.0001224 -0.0001972 -0.0003187 -0.0008587 -0.0000225 -0.0011026 0.0003242 0.0001373 0.0002139 -0.0004520 0.0004103 -0.0002662 0.0004367 -0.0000122
-0.0004477 -0.0086759 0.0002537 -0.0005102 0.0002428 0.0002307 -0.0001164 -0.0002045 -0.0003203 -0.0008446 -0.0000146 -0.0010825 0.0003366 0.0001704 0.0002147 -0.0004013 0.0004095 -0.0002228 0.0004347 0.0000495
0.0030645 0.0059620 0.0002486 -0.0004484 0.0002425 0.0002737 -0.0001153 -0.0001603 -0.0003195 -0.0007902 -0.0000092 -0.0009957 0.0003454 0.0002360 0.0002095 -0.0003234 0.0004068 -0.0001384 0.0004353 0.0001575
0.0048182 0.0016944 0.0002717 -0.0003591 0.0002398 0.0003512 -0.0001068 -0.0000780 -0.0003135 -0.0007075 -0.0000047 -0.0008766 0.0003426 0.0003399 0.0002079 -0.0002266 0.0004043 -0.0000427 0.0004106 0.0002770
0.0053245 -0.0136819 0.0002824 -0.0002511 0.0002355 0.0004359 -0.0001112 0.0000274 -0.0003081 -0.0006178 -0.0000072 -0.0007706 0.0003352 0.0004231 0.0002110 -0.0001905 0.0004109 -0.0000100 0.0004101 0.0002641
-0.0118968 0.0158383 0.0002601 -0.0003012 0.0002415 0.0004151 -0.0001142 0.0000033 -0.0003090 -0.0006590 -0.0000118 -0.0008416 0.0003403 0.0003583 0.0002152 -0.0002685 0.0004183 -0.0001010 0.0004115 0.0001232
-0.0080629 0.0134374 0.0002487 -0.0004558 0.0002490 0.0003047 -0.0001063 -0.0001113 -0.0003078 -0.0007590 -0.0000112 -0.0009815 0.0003459 0.0002590 0.0002174 -0.0003485 0.0004193 -0.0001661 0.0004177 0.0000575
0.0062816 -0.0011335 0.0002609 -0.0004930 0.0002485 0.0002676 -0.0000934 -0.0001386 -0.0003047 -0.0007633 -0.0000103 -0.0009962 0.0003423 0.0002611 0.0002188 -0.0003454 0.0004185 -0.0001398 0.0004496 0.0000881
-0.0009586 0.0082464 0.0002611 -0.0004567 0.0002502 0.0002950 -0.0000806 -0.0001127 -0.0002992 -0.0007205 -0.0000091 -0.0009432 0.0003352 0.0003142 0.0002199 -0.0002960 0.0004101 -0.0000934 0.0004420 0.0001831
-0.0130249 0.0055021 0.0002668 -0.0003310 0.0002518 0.0003691 -0.0000747 -0.0000288 -0.0002837 -0.0006316 -0.0000067 -0.0008697 0.0003301 0.0003854 0.0002181 -0.0002200 0.0004064 -0.0000133 0.0004276 0.0003442
-0.0027793 -0.0084374 0.0002996 -0.0001078 0.0002641 0.0005016 -0.0000662 0.0000961 -0.0002674 -0.0005261 -0.0000090 -0.0008117 0.0003319 0.0004179 0.0002231 -0.0001885 0.0004129 0.0000260 0.0004306 0.0003739
-0.0110553 0.0097379 0.0003117 -0.0000851 0.0002926 0.0005268 -0.0000503 0.0000777 -0.0002574 -0.0005754 -0.0000142 -0.0009403 0.0003254 0.0003115 0.0002386 -0.0002909 0.0004267 -0.0000797 0.0004217 0.0002375
-0.0079415 0.0091130 0.0003082 -0.0002909 0.0003085 0.0004160 -0.0000456 -0.0000476 -0.0002540 -0.0007225 -0.0000169 -0.0011356 0.0003229 0.0001743 0.0002484 -0.0004042 0.0004437 -0.0001645 0.0004470 0.0001573
0.0001076 -0.0008844 0.0003047 -0.0003794 0.0003069 0.0003536 -0.0000473 -0.0000953 -0.0002643 -0.0007671 -0.0000126 -0.0011635 0.0003254 0.0001601 0.0002431 -0.0004123 0.0004475 -0.0001341 0.0004691 0.0001856
0.0074041 -0.0179649 0.0003073 -0.0003759 0.0002997 0.0003577 -0.0000464 -0.0000747 -0.0002746 -0.0007401 -0.0000069 -0.0011159 0.0003317 0.0002019 0.0002381 -0.0003681 0.0004481 -0.0000705 0.0004665 0.0002536
0.0175281 -0.0428019 0.0003032 -0.0003301 0.0002915 0.0003863 -0.0000500 -0.0000097 -0.0002806 -0.0006804 -0.0000051 -0.0010135 0.0003352 0.0002881 0.0002366 -0.0002954 0.0004483 0.0000127 0.0004530 0.0003167
0.0023389 0.0025490 0.0002823 -0.0003049 0.0002812 0.0004220 -0.0000613 0.0000726 -0.0002906 -0.0006208 -0.0000053 -0.0009114 0.0003392 0.0003611 0.0002358 -0.0002899 0.0004402 0.0000012 0.0004095 0.0002519
0.0000407 0.0114453 0.0002501 -0.0004800 0.0002720 0.0003418 -0.0000764 0.0000162 -0.0002911 -0.0006972 -0.0000043 -0.0010141 0.0003430 0.0002683 0.0002383 -0.0004325 0.0004353 -0.0001422 0.0003865 0.0000753
0.0075954 -0.0159244 0.0002238 -0.0006730 0.0002712 0.0001816 -0.0000777 -0.0001390 -0.0002846 -0.0008256 0.0000039 -0.0011772 0.0003421 0.0001424 0.0002452 -0.0005488 0.0004439 -0.0002342 0.0004220 0.0000201
0.0065992 -0.0199023 0.0002178 -0.0006820 0.0002792 0.0001503 -0.0000751 -0.0001967 -0.0002919 -0.0008710 0.0000037 -0.0012116 0.0003447 0.0001337 0.0002817 -0.0004481 0.0004453 -0.0002215 0.0004590 0.0001142
-0.0047489 0.0000668 0.0002244 -0.0006125 0.0003103 0.0002700 -0.0000618 -0.0001893 -0.0002968 -0.0008934 -0.0000189 -0.0012316 0.0003609 0.0001819 0.0003694 -0.0001151 0.0004301 -0.0001957 0.0004540 0.0002462
0.0060975 -0.0102654 0.0002463 -0.0005280 0.0003428 0.0004291 -0.0000452 -0.0001308 -0.0002890 -0.0008286 -0.0000362 -0.0011899 0.0003702 0.0002770 0.0004369 0.0002095 0.0004207 -0.0001268 0.0004536 0.0003764
0.0039592 0.0004754 0.0002727 -0.0003589 0.0003526 0.0005218 -0.0000357 -0.0000146 -0.0002696 -0.0006831 -0.0000407 -0.0011109 0.0003620 0.0003297 0.0004695 0.0003375 0.0004303 -0.0000909 0.0004509 0.0003945
0.0000517 0.0047770 0.0002947 -0.0002237 0.0003653 0.0005094 -0.0000087 -0.0000006 -0.0002286 -0.0006605 -0.0000336 -0.0011740 0.0003532 0.0002130 0.0004928 0.0002168 0.0004934 -0.0001003 0.0004012 0.0000910
0.0060097 0.0011187 0.0002461 -0.0001986 0.0003893 0.0005058 0.0000409 0.0000020 -0.0001852 -0.0006911 -0.0000146 -0.0012723 0.0003497 0.0001031 0.0004957 0.0000700 0.0005321 -0.0000969 0.0003626 0.0000995
0.0011942 0.0059036 0.0002021 -0.0002340 0.0003915 0.0004967 0.0000631 0.0000226 -0.0001900 -0.0007061 0.0000032 -0.0012382 0.0003591 0.0001401 0.0004896 0.0000836 0.0004964 -0.0001360 0.0003890 0.0003604
-0.0022060 0.0063698 0.0002201 -0.0003224 0.0003720 0.0004388 0.0000526 0.0000098 -0.0002068 -0.0007075 0.0000100 -0.0011658 0.0003661 0.0001661 0.0004790 0.0001230 0.0004644 -0.0001495 0.0003935 0.0003120
-0.0001564 0.0029046 0.0001851 -0.0001760 0.0003766 0.0005312 0.0000771 0.0001502 -0.0001870 -0.0005857 0.0000182 -0.0010732 0.0003588 0.0001873 0.0004394 0.0000762 0.0004543 -0.0000669 0.0003701 0.0004100
-0.0037780 0.0079692 0.0001613 0.0000287 0.0003822 0.0006538 0.0001017 0.0003275 -0.0001663 -0.0004684 0.0000441 -0.0009473 0.0003560 0.0002056 0.0003666 -0.0001377 0.0004486 -0.0000689 0.0003457 0.0004008
-0.0057521 0.0104101 0.0001645 -0.0001552 0.0003703 0.0005458 0.0000970 0.0002833 -0.0001751 -0.0005557 0.0000597 -0.0009841 0.0003654 0.0001292 0.0003125 -0.0004167 0.0003978 -0.0003680 0.0002679 -0.0000021
-0.0002935 -0.0097218 0.0001570 -0.0004060 0.0003510 0.0003452 0.0001054 0.0001894 -0.0002046 -0.0007287 0.0000567 -0.0011307 0.0003711 0.0000498 0.0002841 -0.0005941 0.0003504 -0.0006057 0.0001955 -0.0002836
0.0065126 -0.0158214 0.0000895 -0.0006954 0.0002668 0.0000588 0.0001031 0.0001585 -0.0002563 -0.0008474 0.0000506 -0.0011925 0.0003707 0.0000474 0.0002603 -0.0006364 0.0003328 -0.0006019 0.0001999 -0.0002814
0.0060534 -0.0049078 -0.0000068 -0.0009856 0.0001434 -0.0002509 0.0000789 0.0001750 -0.0002863 -0.0008435 0.0000411 -0.0011685 0.0003588 0.0000616 0.0002489 -0.0005808 0.0003182 -0.0005467 0.0002497 -0.0001704
0.0051609 0.0069010 0.0000213 -0.0009554 0.0001138 -0.0002239 0.0000677 0.0002763 -0.0002578 -0.0006756 0.0000359 -0.0010631 0.0003472 0.0001130 0.0002436 -0.0004957 0.0003195 -0.0004273 0.0002978 -0.0000244
-0.0016911 0.0130514 0.0001151 -0.0008173 0.0001327 -0.0000635 0.0000794 0.0003731 -0.0002180 -0.0005209 0.0000360 -0.0010141 0.0003529 0.0001042 0.0002228 -0.0005900 0.0003311 -0.0004247 0.0002984 -0.0000220
-0.0088600 0.0108216 0.0001569 -0.0008719 0.0001301 -0.0001200 0.0000801 0.0003347 -0.0002105 -0.0005782 0.0000299 -0.0011397 0.0003542 -0.0000262 0.0002048 -0.0008071 0.0003514 -0.0005324 0.0003027 -0.0001064
-0.0082373 0.0109124 0.0001602 -0.0010139 0.0001323 -0.0002392 0.0000742 0.0002211 -0.0002211 -0.0006922 0.0000228 -0.0012589 0.0003458 -0.0001020 0.0002076 -0.0008842 0.0003677 -0.0005394 0.0003334 -0.0000441
-0.0009014 0.0081682 0.0001641 -0.0009684 0.0001316 -0.0002376 0.0000779 0.0002256 -0.0002179 -0.0006636 0.0000126 -0.0012753 0.0003399 -0.0000874 0.0002429 -0.0007671 0.0003843 -0.0004453 0.0003752 0.0001267
0.0091526 -0.0002244 0.0001689 -0.0008457 0.0001248 -0.0001840 0.0000615 0.0002726 -0.0002137 -0.0006021 0.0000020 -0.0012477 0.0003348 -0.0000435 0.0002913 -0.0005580 0.0004107 -0.0002967 0.0004461 0.0003864
0.0053200 -0.0013774 0.0001946 -0.0007437 0.0001557 0.0000105 0.0000414 0.0002999 -0.0002087 -0.0005237 0.0000239 -0.0010046 0.0003048 -0.0000254 0.0003442 -0.0001257 0.0004230 -0.0001125 0.0005821 0.0011170
-0.0052521 0.0011652 0.0001484 -0.0007429 0.0005680 0.0011633 0.0001377 0.0008059 0.0010610 0.0034374 0.0002502 0.0003532 -0.0001101 -0.0009511 -0.0001035 -0.0007729 0.0004112 0.0001044 0.0007038 0.0017552
0.0002262 -0.0071110 -0.0000043 -0.0006488 0.0010791 0.0021194 0.0003683 0.0013416 0.0023113 0.0071657 0.0004450 0.0013766 -0.0005287 -0.0019809 -0.0006116 -0.0018492 0.0004584 0.0003288 0.0007326 0.0017717
0.0058669 -0.0161815 -0.0001284 -0.0006189 0.0012872 0.0021283 0.0005277 0.0014219 0.0025096 0.0075159 0.0004276 0.0012335 -0.0005247 -0.0020074 -0.0006154 -0.0019255 0.0004841 0.0003820 0.0006613 0.0018112
0.0068902 -0.0097090 -0.0001845 -0.0008076 0.0013264 0.0020362 0.0005243 0.0014023 0.0024894 0.0073498 0.0003953 0.0011396 -0.0005132 -0.0019018 -0.0006259 -0.0018439 0.0004475 0.0003730 0.0006101 0.0019982
0.0026171 -0.0004265 -0.0001736 -0.0008352 0.0012785 0.0018808 0.0004480 0.0012482 0.0023479 0.0068577 0.0003349 0.0009914 -0.0005010 -0.0016996 -0.0005734 -0.0015534 0.0004694 0.0005226 0.0006118 0.0019545
0.0003937 -0.0043443 -0.0000443 -0.0006787 0.0011103 0.0015180 0.0003486 0.0009760 0.0020010 0.0057769 0.0002316 0.0006486 -0.0004091 -0.0012982 -0.0004192 -0.0011264 0.0005239 0.0006696 0.0005431 0.0016175
0.0059424 -0.0085030 0.0001904 -0.0005987 0.0007553 0.0006803 0.0001741 0.0004039 0.0014251 0.0040675 0.0001417 0.0001446 -0.0001960 -0.0008582 -0.0001525 -0.0006994 0.0005696 0.0005970 0.0004834 0.0011821
0.0101765 0.0008156 0.0003337 -0.0006248 0.0005348 0.0002053 0.0000431 -0.0000301 0.0010326 0.0028654 0.0001111 -0.0001576 -0.0000614 -0.0006743 0.0000024 -0.0005559 0.0005870 0.0004839 0.0004666 0.0009436
0.0059045 0.0054592 0.0003639 -0.0004715 0.0005297 0.0002863 0.0000500 -0.0000047 0.0009904 0.0026870 0.0001083 -0.0001693 -0.0000195 -0.0005811 0.0000184 -0.0005998 0.0005998 0.0005185 0.0004611 0.0009682
0.0001978 -0.0065074 0.0003962 -0.0001773 0.0005032 0.0003301 0.0000789 0.0001232 0.0009725 0.0026456 0.0001099 -0.0000954 0.0000614 -0.0003325 0.0000884 -0.0004322 0.0006202 0.0006053 0.0004809 0.0010312
-0.0030030 -0.0060275 0.0004153 0.0000630 0.0004870 0.0004306 0.0000932 0.0002630 0.0009226 0.0025772 0.0001289 0.0000595 0.0001594 0.0000350 0.0002049 -0.0000607 0.0006092 0.0006889 0.0004911 0.0010811
-0.0079412 0.0108514 0.0004252 0.0002296 0.0004815 0.0005482 0.0001011 0.0003744 0.0008874 0.0025317 0.0001473 0.0001575 0.0002355 0.0002753 0.0002843 0.0001389 0.0005974 0.0006412 0.0005092 0.0010159
-0.0039465 0.0131697 0.0004196 0.0001455 0.0004684 0.0004777 0.0001137 0.0002945 0.0008688 0.0023908 0.0001556 0.0000938 0.0002761 0.0002666 0.0003186 0.0001073 0.0006005 0.0005022 0.0005372 0.0008215
-0.0032757 0.0095949 0.0004036 -0.0000091 0.0004545 0.0003442 0.0001171 0.0001585 0.0008189 0.0021548 0.0001686 0.0000217 0.0003282 0.0003025 0.0003510 0.0001302 0.0005955 0.0004543 0.0005248 0.0007099
-0.0128263 0.0075415 0.0003712 -0.0000673 0.0004388 0.0003561 0.0000934 0.0001626 0.0007416 0.0019573 0.0001786 0.0000517 0.0003760 0.0004343 0.0003637 0.0001949 0.0005929 0.0004892 0.0004981 0.0007132
-0.0186773 0.0044713 0.0003692 -0.0000388 0.0004347 0.0004560 0.0000707 0.0002240 0.0006796 0.0018306 0.0001854 0.0001398 0.0004073 0.0005705 0.0003662 0.0002734 0.0005899 0.0005486 0.0004735 0.0007667
0.0065187 -0.0149457 0.0003934 0.0001443 0.0004511 0.0006261 0.0000656 0.0003231 0.0006489 0.0018175 0.0001970 0.0002612 0.0004258 0.0007382 0.0003709 0.0003924 0.0005763 0.0006208 0.0004533 0.0008116
0.0040063 -0.0057508 0.0004067 0.0002439 0.0004516 0.0006873 0.0000577 0.0003431 0.0006447 0.0017911 0.0002072 0.0002287 0.0004431 0.0007541 0.0003852 0.0003514 0.0005696 0.0005382 0.0004799 0.0006749
-0.0084812 0.0111371 0.0004141 0.0001896 0.0004233 0.0005393 0.0000450 0.0002425 0.0006288 0.0016638 0.0002086 0.0000778 0.0004531 0.0006486 0.0004000 0.0002278 0.0005704 0.0003938 0.0005025 0.0005294
-0.0024138 0.0062315 0.0004279 0.0001755 0.0003895 0.0004151 0.0000447 0.0001830 0.0005860 0.0015302 0.0002058 0.0000333 0.0004565 0.0006279 0.0004041 0.0002305 0.0005640 0.0003723 0.0004981 0.0005432
0.0037900 -0.0068197 0.0004497 0.0002950 0.0003586 0.0004169 0.0000411 0.0002296 0.0005336 0.0014304 0.0002097 0.0000947 0.0004690 0.0006653 0.0004078 0.0002959 0.0005581 0.0004009 0.0005105 0.0006778
0.0041789 0.0033705 0.0003978 0.0006707 0.0003745 0.0006034 0.0000871 0.0004799 0.0005076 0.0014170 0.0001915 0.0001303 0.0004398 0.0006738 0.0004400 0.0004812 0.0005577 0.0004614 0.0005166 0.0009948
0.0047038 -0.0008091 0.0002953 0.0010454 0.0004189 0.0008674 0.0001498 0.0007698 0.0005001 0.0014389 0.0001388 0.0000238 0.0004001 0.0006130 0.0004916 0.0006543 0.0005404 0.0003948 0.0004927 0.0011106
-0.0014766 -0.0101811 0.0002435 0.0009453 0.0004340 0.0008470 0.0001519 0.0007708 0.0004670 0.0012766 0.0001013 -0.0002175 0.0003846 0.0004708 0.0005248 0.0006273 0.0005104 0.0001749 0.0004787 0.0008955
-0.0135231 0.0044757 0.0002317 0.0006374 0.0004221 0.0006736 0.0001516 0.0006880 0.0004051 0.0010015 0.0000797 -0.0004204 0.0003716 0.0003242 0.0005266 0.0005555 0.0004700 -0.0000069 0.0004608 0.0007282
-0.0028922 -0.0012766 0.0002630 0.0001752 0.0003559 0.0004324 0.0001224 0.0006168 0.0002655 0.0006712 0.0000619 -0.0004866 0.0003539 0.0002654 0.0005040 0.0005393 0.0003510 -0.0002822 0.0006074 0.0005500
0.0030309 -0.0045489 0.0002780 -0.0001863 0.0002667 0.0001650 0.0000631 0.0005326 0.0001398 0.0004184 0.0000601 -0.0004417 0.0003310 0.0002703 0.0004740 0.0005302 0.0003138 -0.0002935 0.0007524 0.0005390
0.0034838 -0.0173649 0.0003569 0.0001104 0.0002291 0.0001646 0.0000632 0.0006144 0.0001344 0.0004640 0.0000558 -0.0003489 0.0003042 0.0002960 0.0004484 0.0005496 0.0003802 0.0000018 0.0006578 0.0008177
-0.0037889 0.0014588 0.0004603 0.0005630 0.0002482 0.0003798 0.0001007 0.0007881 0.0001575 0.0005442 0.0000240 -0.0004209 0.0002676 0.0001816 0.0004483 0.0005116 0.0003787 -0.0000506 0.0005605 0.0008143
-0.0015652 0.0017883 0.0004471 0.0006099 0.0002834 0.0004388 0.0001241 0.0007715 0.0001618 0.0004466 -0.0000120 -0.0006380 0.0002443 -0.0000171 0.0004582 0.0004176 0.0003645 -0.0002210 0.0005151 0.0006511
0.0141760 -0.0351752 0.0004136 0.0005024 0.0002964 0.0003576 0.0001220 0.0007059 0.0001512 0.0003396 -0.0000206 -0.0007572 0.0002322 -0.0000998 0.0004389 0.0002694 0.0003585 -0.0002450 0.0004799 0.0006061
0.0049643 -0.0099339 0.0004001 0.0004169 0.0002750 0.0002958 0.0001084 0.0007580 0.0001328 0.0003359 -0.0000087 -0.0007198 0.0002300 -0.0000737 0.0004025 0.0001151 0.0003594 -0.0002056 0.0004892 0.0006052
-0.0039810 0.0066347 0.0003665 0.0001525 0.0002340 0.0002030 0.0000782 0.0007762 0.0000763 0.0002825 0.0000044 -0.0006166 0.0002415 0.0000186 0.0003792 0.0000836 0.0003565 -0.0001568 0.0005046 0.0006521
0.0025704 -0.0074000 0.0002733 -0.0000898 0.0001484 0.0000080 0.0000344 0.0007319 0.0000023 0.0002090 0.0000037 -0.0005367 0.0002467 0.0000929 0.0003673 0.0000743 0.0003461 -0.0001655 0.0004907 0.0006314
0.0107366 -0.0162153 0.0002498 -0.0001469 0.0000917 -0.0001820 0.0000202 0.0005982 -0.0000261 0.0000528 -0.0000110 -0.0006749 0.0002388 -0.0000506 0.0003642 -0.0000453 0.0003401 -0.0002988 0.0005048 0.0005236
0.0041708 0.0105560 0.0002797 -0.0002417 0.0001530 -0.0001090 0.0000258 0.0004423 -0.0000341 -0.0001791 -0.0000117 -0.0008118 0.0002181 -0.0002665 0.0003478 -0.0001713 0.0003280 -0.0004261 0.0005073 0.0004932
0.0008316 0.0119461 0.0003058 -0.0002795 0.0002447 0.0001678 0.0000421 0.0004415 -0.0000124 -0.0001745 -0.0000037 -0.0007763 0.0002130 -0.0002995 0.0003256 -0.0002297 0.0003284 -0.0003764 0.0004818 0.0005867
0.0017949 -0.0022423 0.0003340 -0.0001245 0.0002535 0.0003031 0.0000533 0.0005520 0.0000259 -0.0000011 -0.0000062 -0.0007294 0.0002133 -0.0002325 0.0003078 -0.0002750 0.0003477 -0.0002392 0.0004704 0.0007038
-0.0055040 0.0128364 0.0003326 0.0000487 0.0002179 0.0003094 0.0000437 0.0006738 0.0000274 0.0001313 -0.0000102 -0.0006417 0.0001991 -0.0001469 0.0002769 -0.0002875 0.0003639 -0.0000920 0.0004648 0.0008230
-0.0049930 0.0054284 0.0003297 0.0001549 0.0002087 0.0003870 0.0000377 0.0007715 0.0000165 0.0001777 -0.0000169 -0.0006290 0.0001917 -0.0001366 0.0002611 -0.0003814 0.0003826 -0.0000685 0.0004689 0.0007502
0.0157574 -0.0223987 0.0003128 0.0000667 0.0002032 0.0003568 0.0000387 0.0007267 0.0000075 0.0000913 -0.0000217 -0.0007207 0.0001880 -0.0002095 0.0002539 -0.0005196 0.0004087 -0.0000864 0.0005010 0.0005900
0.0095133 -0.0028857 0.0002856 -0.0000389 0.0002537 0.0004585 0.0000531 0.0006711 -0.0000071 -0.0000203 -0.0000168 -0.0007377 0.0001941 -0.0002050 0.0002533 -0.0005123 0.0004350 0.0000063 0.0004882 0.0005667
-0.0000874 0.0060056 0.0002881 -0.0000024 0.0003048 0.0006449 0.0000731 0.0007115 -0.0000069 0.0000140 -0.0000084 -0.0006539 0.0002145 -0.0001197 0.0002599 -0.0004189 0.0004524 0.0001189 0.0004644 0.0006205
-0.0016673 -0.0077679 0.0002944 0.0000873 0.0002709 0.0006008 0.0000651 0.0007663 0.0000060 0.0001349 -0.0000052 -0.0005478 0.0002240 -0.0000180 0.0002523 -0.0003323 0.0004464 0.0002081 0.0004465 0.0007262
-0.0030787 -0.0122822 0.0002998 0.0002002 0.0002217 0.0005482 0.0000446 0.0008470 0.0000125 0.0002349 -0.0000057 -0.0004809 0.0002227 0.0000337 0.0002424 -0.0003554 0.0004332 0.0001820 0.0004199 0.0006755
-0.0102048 0.0056447 0.0002931 0.0000754 0.0001880 0.0004001 0.0000282 0.0007866 0.0000168 0.0002085 0.0000035 -0.0005431 0.0002355 -0.0000291 0.0002209 -0.0005684 0.0004302 0.0000551 0.0004172 0.0004873
-0.0120117 0.0071092 0.0002615 -0.0001205 0.0001274 0.0001057 0.0000210 0.0006646 0.0000188 0.0001754 0.0000373 -0.0005604 0.0002638 -0.0000450 0.0001936 -0.0007327 0.0004301 0.0000139 0.0003996 0.0003918
-0.0077594 0.0059182 0.0002551 -0.0001439 0.0000571 -0.0001165 0.0000171 0.0006597 0.0000165 0.0002269 0.0000720 -0.0004715 0.0002971 0.0000645 0.0001903 -0.0007016 0.0004285 0.0000639 0.0003687 0.0004033
-0.0077901 0.0061979 0.0002691 -0.0001052 0.0000129 -0.0001962 0.0000049 0.0006991 0.0000077 0.0002781 0.0000862 -0.0003689 0.0003211 0.0002152 0.0002038 -0.0005480 0.0004232 0.0001439 0.0003799 0.0004884
-0.0007384 0.0053962 0.0002824 0.0000109 -0.0000099 -0.0001484 -0.0000013 0.0007523 0.0000068 0.0003648 0.0000865 -0.0002514 0.0003230 0.0003268 0.0002130 -0.0004336 0.0004267 0.0001928 0.0004077 0.0005025
0.0012967 -0.0013044 0.0002795 0.0000292 -0.0000179 -0.0001699 0.0000082 0.0006774 0.0000151 0.0003103 0.0000766 -0.0003519 0.0003263 0.0002248 0.0002110 -0.0005502 0.0004413 0.0001094 0.0003966 0.0003856
0.0065403 -0.0286260 0.0002604 -0.0001483 -0.0000341 -0.0003404 0.0000013 0.0005236 -0.0000094 0.0001223 0.0000689 -0.0005450 0.0003419 0.0001027 0.0002162 -0.0006745 0.0004422 0.0000129 0.0003681 0.0002899
-0.0016041 -0.0008553 0.0002287 -0.0003448 -0.0000774 -0.0005431 -0.0000322 0.0004408 -0.0000577 0.0000044 0.0000689 -0.0005846 0.0003538 0.0001294 0.0002253 -0.0006438 0.0004321 0.0000065 0.0003605 0.0002919
0.0010822 -0.0042198 0.0002351 -0.0003246 -0.0001201 -0.0006393 -0.0000562 0.0004353 -0.0000675 0.0000039 0.0000677 -0.0005418 0.0003505 0.0001796 0.0002324 -0.0005569 0.0004369 0.0000691 0.0003752 0.0004062
0.0027119 -0.0005904 0.0002644 -0.0001451 -0.0001410 -0.0005917 -0.0000683 0.0005043 -0.0000646 0.0000815 0.0000610 -0.0004601 0.0003317 0.0002623 0.0002376 -0.0004435 0.0004419 0.0001510 0.0004007 0.0004857
-0.0021582 0.0091792 0.0002641 -0.0001560 -0.0001464 -0.0006046 -0.0000695 0.0004846 -0.0000700 0.0000367 0.0000480 -0.0005616 0.0003172 0.0001910 0.0002450 -0.0005062 0.0004399 0.0000528 0.0004113 0.0003524
0.0007853 -0.0063461 0.0002551 -0.0003242 -0.0001490 -0.0007442 -0.0000613 0.0003378 -0.0000735 -0.0001087 0.0000389 -0.0007770 0.0003231 0.0000144 0.0002519 -0.0006572 0.0004421 -0.0000796 0.0004324 0.0002035
-0.0083232 0.0033697 0.0002276 -0.0004407 -0.0001622 -0.0008554 -0.0000667 0.0002698 -0.0000874 -0.0001731 0.0000397 -0.0008571 0.0003305 -0.0000253 0.0002477 -0.0006853 0.0004357 -0.0000697 0.0004431 0.0002061
-0.0076968 0.0093780 0.0001882 -0.0005028 -0.0001789 -0.0008835 -0.0000755 0.0002856 -0.0001130 -0.0001805 0.0000363 -0.0008337 0.0003255 0.0000195 0.0002412 -0.0006510 0.0004237 -0.0000227 0.0004241 0.0002590
-0.0080204 0.0117428 0.0001278 -0.0005123 -0.0002102 -0.0009246 -0.0000987 0.0002963 -0.0001432 -0.0001795 0.0000294 -0.0007524 0.0003331 0.0000781 0.0002331 -0.0005852 0.0004162 0.0000338 0.0003945 0.0003240
-0.0045122 0.0134352 0.0000470 -0.0004929 -0.0002438 -0.0009713 -0.0001254 0.0002903 -0.0001617 -0.0002215 0.0000208 -0.0007806 0.0003388 0.0000355 0.0002287 -0.0006742 0.0004086 -0.0000651 0.0003442 0.0002209
0.0026173 0.0040824 0.0000146 -0.0005740 -0.0002680 -0.0011153 -0.0001305 0.0001747 -0.0001688 -0.0003473 0.0000183 -0.0009523 0.0003384 -0.0001148 0.0002312 -0.0008658 0.0004023 -0.0002333 0.0003203 0.0000323
0.0052147 -0.0094894 0.0000626 -0.0006470 -0.0002813 -0.0012653 -0.0001344 0.0000641 -0.0001721 -0.0004227 0.0000228 -0.0010435 0.0003386 -0.0001769 0.0002340 -0.0009083 0.0003982 -0.0002642 0.0003473 -0.0000200
0.0018140 -0.0074850 0.0001084 -0.0006011 -0.0002859 -0.0012612 -0.0001431 0.0000817 -0.0001727 -0.0003914 0.0000178 -0.0010235 0.0003311 -0.0001335 0.0002353 -0.0008454 0.0003946 -0.0002170 0.0003701 0.0000339
-0.0021467 -0.0016007 0.0001491 -0.0005267 -0.0002862 -0.0011703 -0.0001395 0.0001630 -0.0001673 -0.0003141 0.0000050 -0.0009743 0.0003291 -0.0000806 0.0002403 -0.0007210 0.0003925 -0.0001364 0.0003806 0.0001708
0.0044803 -0.0023311 0.0001971 -0.0003536 -0.0002772 -0.0010114 -0.0001267 0.0002844 -0.0001551 -0.0002093 -0.0000201 -0.0009513 0.0003266 -0.0000755 0.0002451 -0.0006581 0.0003897 -0.0001311 0.0004039 0.0001713
0.0048742 -0.0045978 0.0002176 -0.0003284 -0.0002569 -0.0009654 -0.0000997 0.0002540 -0.0001481 -0.0002560 -0.0000441 -0.0011044 0.0003109 -0.0001911 0.0002440 -0.0007881 0.0003891 -0.0002438 0.0003959 0.0000482
-0.0018317 -0.0021222 0.0002208 -0.0004651 -0.0002417 -0.0010275 -0.0000864 0.0001477 -0.0001512 -0.0003846 -0.0000497 -0.0012691 0.0003065 -0.0003075 0.0002398 -0.0009155 0.0003925 -0.0002975 0.0003835 0.0000097
-0.0012386 -0.0084087 0.0002116 -0.0004692 -0.0002382 -0.0010124 -0.0000948 0.0001465 -0.0001555 -0.0004198 -0.0000502 -0.0012781 0.0003097 -0.0003154 0.0002361 -0.0009053 0.0003935 -0.0002530 0.0003808 0.0000629
0.0089056 -0.0269299 0.0002075 -0.0003853 -0.0002235 -0.0009317 -0.0001002 0.0002003 -0.0001631 -0.0004106 -0.0000730 -0.0012452 0.0002895 -0.0002651 0.0002679 -0.0006296 0.0003935 -0.0001652 0.0003989 0.0003068
0.0002178 -0.0026450 0.0002228 -0.0002079 -0.0002113 -0.0008163 -0.0000970 0.0003016 -0.0001551 -0.0003329 -0.0001125 -0.0011769 0.0002258 -0.0002603 0.0002669 -0.0003500 0.0003920 -0.0000595 0.0004515 0.0005633
-0.0039332 0.0043957 0.0002555 -0.0000333 -0.0001834 -0.0006892 -0.0000758 0.0003516 -0.0001383 -0.0003186 -0.0001412 -0.0012339 0.0001288 -0.0005075 0.0002015 -0.0004954 0.0003857 -0.0001505 0.0004791 0.0005341
-0.0056372 0.0116107 0.0002618 -0.0000711 -0.0001558 -0.0007102 -0.0000626 0.0002927 -0.0001356 -0.0004188 -0.0001445 -0.0013867 0.0000471 -0.0008483 0.0001389 -0.0007814 0.0003695 -0.0002912 0.0004637 0.0004561
0.0012246 0.0055610 0.0002332 -0.0002683 -0.0001539 -0.0008084 -0.0000656 0.0002546 -0.0001522 -0.0004804 -0.0001430 -0.0014618 0.0000113 -0.0009774 0.0001043 -0.0009013 0.0003567 -0.0002661 0.0004576 0.0004763
0.0072048 0.0006320 0.0002086 -0.0004023 -0.0001650 -0.0008714 -0.0000690 0.0002691 -0.0001661 -0.0004548 -0.0001506 -0.0014692 0.0000089 -0.0009699 0.0000915 -0.0009128 0.0003698 -0.0001732 0.0004574 0.0005381
-0.0014707 0.0120143 0.0002077 -0.0003391 -0.0001879 -0.0008826 -0.0000679 0.0003233 -0.0001537 -0.0003613 -0.0001568 -0.0014037 0.0000081 -0.0009208 0.0000796 -0.0008863 0.0003881 -0.0000247 0.0004320 0.0006705
-0.0044665 0.0057784 0.0002285 -0.0001473 -0.0002020 -0.0007962 -0.0000676 0.0004396 -0.0001419 -0.0002365 -0.0001610 -0.0013111 0.0000003 -0.0008454 0.0000800 -0.0008750 0.0004091 0.0000612 0.0004282 0.0007022
-0.0010407 0.0011560 0.0002394 -0.0001433 -0.0001957 -0.0008078 -0.0000656 0.0004193 -0.0001330 -0.0002619 -0.0001617 -0.0013575 0.0000162 -0.0008711 0.0000953 -0.0009192 0.0004318 0.0000109 0.0004298 0.0005738
-0.0134676 0.0174795 0.0002310 -0.0002893 -0.0001830 -0.0008828 -0.0000733 0.0003153 -0.0001291 -0.0003662 -0.0001572 -0.0014457 0.0000326 -0.0009211 0.0001106 -0.0009423 0.0004481 0.0000007 0.0004187 0.0005046
-0.0030425 0.0114356 0.0002307 -0.0003163 -0.0001873 -0.0008911 -0.0000723 0.0002964 -0.0001326 -0.0003512 -0.0001451 -0.0013871 0.0000308 -0.0008576 0.0001089 -0.0009158 0.0004608 0.0000973 0.0004365 0.0005620
-0.0027843 0.0103394 0.0002463 -0.0002512 -0.0001946 -0.0008493 -0.0000624 0.0003490 -0.0001332 -0.0002793 -0.0001347 -0.0012507 0.0000392 -0.0007259 0.0001102 -0.0008285 0.0004648 0.0002045 0.0004421 0.0006420
-0.0100378 0.0137968 0.0002517 -0.0001365 -0.0001958 -0.0007771 -0.0000690 0.0004460 -0.0001313 -0.0001796 -0.0001272 -0.0010817 0.0000629 -0.0005661 0.0001165 -0.0006740 0.0004602 0.0003168 0.0004451 0.0007058
0.0020419 -0.0076965 0.0002373 -0.0000611 -0.0001930 -0.0007182 -0.0000713 0.0004913 -0.0001235 -0.0001471 -0.0001241 -0.0010462 0.0000906 -0.0005237 0.0001324 -0.0006376 0.0004539 0.0002797 0.0004470 0.0006255
0.0031059 -0.0038523 0.0002257 -0.0001429 -0.0001923 -0.0007808 -0.0000637 0.0004288 -0.0001134 -0.0002046 -0.0001196 -0.0011138 0.0001209 -0.0005413 0.0001692 -0.0006320 0.0004469 0.0001752 0.0004286 0.0005142
-0.0044493 0.0100810 0.0002326 -0.0002163 -0.0001984 -0.0008647 -0.0000660 0.0003879 -0.0001059 -0.0002163 -0.0001100 -0.0010920 0.0001497 -0.0004831 0.0002007 -0.0005371 0.0004483 0.0001996 0.0004074 0.0005501
0.0057581 -0.0055145 0.0002362 -0.0001576 -0.0001982 -0.0008374 -0.0000752 0.0004383 -0.0001012 -0.0001546 -0.0000960 -0.0009822 0.0001638 -0.0003718 0.0002186 -0.0004193 0.0004545 0.0002756 0.0003831 0.0006433
0.0197973 -0.0349844 0.0002351 -0.0000713 -0.0001911 -0.0007688 -0.0000754 0.0005175 -0.0000944 -0.0000738 -0.0000780 -0.0008318 0.0001794 -0.0002322 0.0002355 -0.0002595 0.0004533 0.0003810 0.0003693 0.0007603
0.0204810 -0.0442315 0.0002335 0.0001124 -0.0001782 -0.0006326 -0.0000756 0.0006315 -0.0000792 0.0000442 -0.0000680 -0.0007042 0.0001918 -0.0001159 0.0002667 -0.0001414 0.0004559 0.0004142 0.0003858 0.0007364
0.0170890 -0.0329227 0.0002038 0.0002014 -0.0001300 -0.0005183 -0.0000544 0.0006209 -0.0000546 0.0000373 -0.0000750 -0.0008154 0.0001928 -0.0001904 0.0002996 -0.0001447 0.0004692 0.0003389 0.0003986 0.0006067
0.0002609 -0.0018084 0.0001905 0.0000787 -0.0000866 -0.0005195 -0.0000274 0.0005273 -0.0000444 -0.0000706 -0.0000893 -0.0010076 0.0001955 -0.0003017 0.0003321 -0.0001124 0.0004749 0.0003068 0.0003931 0.0005488
-0.0055445 0.0144701 0.0001978 0.0000149 -0.0000791 -0.0005278 -0.0000232 0.0005196 -0.0000504 -0.0000866 -0.0000981 -0.0010246 0.0002011 -0.0002739 0.0003561 0.0000076 0.0004680 0.0003562 0.0004101 0.0006175
0.0047055 -0.0002372 0.0001973 0.0000584 -0.0000736 -0.0004721 -0.0000228 0.0005579 -0.0000646 -0.0000703 -0.0001009 -0.0009642 0.0002044 -0.0002005 0.0003587 0.0001253 0.0004690 0.0004451 0.0004197 0.0007634
0.0010494 0.0025152 0.0002072 -0.0000505 -0.0000914 -0.0004777 -0.0000483 0.0005891 -0.0000909 -0.0000525 -0.0000935 -0.0008256 0.0002076 -0.0000779 0.0003545 0.0002433 0.0004676 0.0005424 0.0004102 0.0008671
-0.0156293 0.0265066 0.0002335 -0.0001241 -0.0001081 -0.0004855 -0.0000668 0.0005929 -0.0000995 -0.0000600 -0.0000887 -0.0007982 0.0002073 -0.0000757 0.0003617 0.0002200 0.0004654 0.0004852 0.0004080 0.0007798
-0.0219352 0.0263761 0.0002466 -0.0001721 -0.0000983 -0.0005382 -0.0000679 0.0005234 -0.0000935 -0.0001433 -0.0000902 -0.0009304 0.0002054 -0.0001833 0.0003721 0.0001177 0.0004693 0.0003656 0.0004017 0.0006613
-0.0068258 0.0009909 0.0002379 -0.0003049 -0.0000941 -0.0006407 -0.0000783 0.0004603 -0.0000939 -0.0001992 -0.0000847 -0.0009726 0.0002069 -0.0002041 0.0003741 0.0001062 0.0004742 0.0003626 0.0004114 0.0006857
0.0018290 -0.0169771 0.0002282 -0.0002672 -0.0000942 -0.0006343 -0.0000863 0.0004785 -0.0000938 -0.0001615 -0.0000735 -0.0008959 0.0002097 -0.0001454 0.0003788 0.0001581 0.0004794 0.0004226 0.0004214 0.0007529
-0.0027029 -0.0048458 0.0002422 -0.0001890 -0.0000884 -0.0005697 -0.0000903 0.0005283 -0.0000893 -0.0000878 -0.0000622 -0.0007747 0.0002112 -0.0000515 0.0003767 0.0002518 0.0004748 0.0005138 0.0004037 0.0008796
0.0017332 -0.0002450 0.0002495 -0.0000747 -0.0000830 -0.0004623 -0.0000907 0.0006145 -0.0000909 0.0000081 -0.0000517 -0.0006327 0.0002155 0.0000544 0.0003757 0.0003402 0.0004697 0.0005783 0.0004104 0.0009202
0.0032932 0.0102058 0.0002246 -0.0000670 -0.0000646 -0.0004080 -0.0000827 0.0005812 -0.0000910 -0.0000311 -0.0000484 -0.0006753 0.0002215 -0.0000074 0.0003849 0.0002816 0.0004716 0.0004917 0.0004208 0.0008004
0.0006922 0.0117051 0.0002089 -0.0001711 -0.0000332 -0.0004139 -0.0000645 0.0004603 -0.0000899 -0.0001659 -0.0000488 -0.0008074 0.0002353 -0.0001319 0.0003936 0.0002031 0.0004712 0.0003955 0.0004045 0.0007448
0.0054799 -0.0185291 0.0002081 -0.0001935 0.0000003 -0.0003354 -0.0000597 0.0004350 -0.0000990 -0.0002186 -0.0000437 -0.0007995 0.0002409 -0.0001168 0.0004001 0.0002448 0.0004684 0.0004190 0.0003912 0.0008043
0.0137967 -0.0438224 0.0002150 -0.0001478 0.0000316 -0.0001921 -0.0000669 0.0004820 -0.0001038 -0.0001935 -0.0000377 -0.0007101 0.0002397 -0.0000395 0.0004050 0.0003404 0.0004630 0.0004787 0.0003770 0.0009047
0.0112485 -0.0297821 0.0002214 -0.0000561 0.0000560 -0.0000451 -0.0000770 0.0005676 -0.0000987 -0.0001104 -0.0000268 -0.0005723 0.0002389 0.0000669 0.0004069 0.0004766 0.0004642 0.0005743 0.0003656 0.0010435
0.0104622 -0.0159751 0.0002163 0.0000914 0.0000783 0.0001181 -0.0000780 0.0006744 -0.0000840 -0.0000021 -0.0000188 -0.0004633 0.0002273 0.0001430 0.0004136 0.0005423 0.0004725 0.0006009 0.0003848 0.0010542
0.0012806 -0.0016578 0.0002071 0.0000799 0.0001061 0.0001552 -0.0000686 0.0006443 -0.0000625 -0.0000072 -0.0000203 -0.0005289 0.0002218 0.0000851 0.0004277 0.0005158 0.0004798 0.0005304 0.0004107 0.0009722
0.0057162 -0.0127855 0.0001956 0.0000202 0.0001335 0.0001548 -0.0000467 0.0005693 -0.0000235 -0.0000155 -0.0000185 -0.0006162 0.0002149 -0.0000242 0.0004517 0.0006047 0.0005120 0.0005606 0.0004704 0.0010282
0.0068562 -0.0124051 0.0001911 0.0000552 0.0001612 0.0002134 -0.0000196 0.0005845 0.0000014 0.0000219 -0.0000201 -0.0006103 0.0001952 -0.0000719 0.0004587 0.0007524 0.0005377 0.0006557 0.0004943 0.0011462
0.0021512 -0.0049571 0.0001610 0.0001726 0.0002063 0.0003614 0.0000212 0.0006590 0.0000234 0.0000886 -0.0000244 -0.0005672 0.0001564 -0.0000848 0.0004387 0.0008138 0.0005372 0.0007179 0.0004498 0.0011652
0.0038113 -0.0073702 0.0001180 0.0004022 0.0002421 0.0005654 0.0000625 0.0008001 0.0000566 0.0002464 -0.0000321 -0.0005017 0.0001280 -0.0000714 0.0004242 0.0008610 0.0005354 0.0008039 0.0004186 0.0011890
-0.0003652 0.0099587 0.0001008 0.0005051 0.0002498 0.0006083 0.0000759 0.0008644 0.0000765 0.0002953 -0.0000532 -0.0006066 0.0001202 -0.0001443 0.0004152 0.0007628 0.0005356 0.0007669 0.0003749 0.0011439
0.0007745 0.0067297 0.0000967 0.0004500 0.0002239 0.0004374 0.0000776 0.0008281 0.0000882 0.0002592 -0.0000774 -0.0007901 0.0001139 -0.0002644 0.0004027 0.0006077 0.0005370 0.0006997 0.0003349 0.0010300
0.0014881 -0.0067347 0.0000968 0.0003930 0.0001915 0.0002762 0.0000758 0.0008140 0.0000812 0.0002542 -0.0000901 -0.0008599 0.0001081 -0.0002908 0.0003822 0.0005089 0.0005291 0.0007332 0.0003321 0.0010042
-0.0074431 -0.0040793 0.0000957 0.0003773 0.0001799 0.0002575 0.0000681 0.0008466 0.0000706 0.0002802 -0.0000844 -0.0008033 0.0001037 -0.0002293 0.0003586 0.0004356 0.0005258 0.0007961 0.0003283 0.0010661
-0.0103757 0.0024563 0.0000752 0.0003985 0.0001651 0.0002737 0.0000556 0.0009012 0.0000627 0.0003374 -0.0000695 -0.0006717 0.0001154 -0.0001157 0.0003439 0.0004461 0.0005263 0.0008863 0.0003208 0.0011493
-0.0032092 0.0141108 0.0000630 0.0004486 0.0001422 0.0002904 0.0000431 0.0009812 0.0000592 0.0004196 -0.0000543 -0.0005338 0.0001349 -0.0000097 0.0003285 0.0003872 0.0005206 0.0008893 0.0003267 0.0010604
-0.0041059 0.0119372 0.0000544 0.0003017 0.0001092 0.0001464 0.0000581 0.0009255 0.0000661 0.0003818 -0.0000205 -0.0005361 0.0001718 -0.0000145 0.0003146 0.0001895 0.0005111 0.0007655 0.0003124 0.0008303
-0.0030487 0.0013376 0.0000304 0.0001381 0.0000768 -0.0000362 0.0000711 0.0008269 0.0000765 0.0002933 0.0000133 -0.0005984 0.0002178 -0.0000469 0.0003130 0.0000801 0.0005001 0.0007134 0.0002863 0.0007122
-0.0126653 0.0147206 0.0000313 0.0001785 0.0000738 -0.0000362 0.0000636 0.0008431 0.0000759 0.0002931 0.0000288 -0.0005585 0.0002484 0.0000235 0.0003259 0.0001538 0.0004916 0.0007700 0.0002626 0.0007629
-0.0033906 0.0068733 0.0000343 0.0002632 0.0000868 0.0000587 0.0000580 0.0008943 0.0000681 0.0003266 0.0000435 -0.0004551 0.0002714 0.0001512 0.0003394 0.0002919 0.0004862 0.0008451 0.0002369 0.0008710
0.0056357 -0.0109112 0.0000425 0.0003414 0.0000904 0.0001529 0.0000494 0.0009683 0.0000619 0.0003946 0.0000527 -0.0003172 0.0002832 0.0003005 0.0003490 0.0004517 0.0004804 0.0009408 0.0002214 0.0009753
-0.0005743 -0.0074252 0.0000528 0.0003913 0.0000878 0.0002196 0.0000343 0.0010290 0.0000604 0.0004297 0.0000546 -0.0002854 0.0002875 0.0003408 0.0003657 0.0004740 0.0004743 0.0008926 0.0002121 0.0008677
-0.0012048 -0.0038538 0.0000334 0.0002857 0.0000881 0.0001432 0.0000352 0.0009461 0.0000600 0.0003445 0.0000543 -0.0004124 0.0002913 0.0002546 0.0003801 0.0003959 0.0004714 0.0007492 0.0001857 0.0006948
-0.0016232 -0.0004346 0.0000079 0.0001510 0.0000809 0.0000100 0.0000413 0.0008249 0.0000557 0.0002701 0.0000593 -0.0004804 0.0003020 0.0002451 0.0003903 0.0004042 0.0004674 0.0007058 0.0001916 0.0006625
0.0040935 -0.0013308 -0.0000078 0.0001272 0.0000927 0.0000599 0.0000240 0.0008189 0.0000304 0.0002223 0.0000665 -0.0004182 0.0003098 0.0003296 0.0003936 0.0004681 0.0004527 0.0007295 0.0002040 0.0007112
0.0020597 -0.0017000 -0.0000080 0.0001470 0.0001281 0.0002193 0.0000280 0.0008576 0.0000110 0.0002141 0.0000697 -0.0003200 0.0003189 0.0004162 0.0003811 0.0005205 0.0004377 0.0007994 0.0001842 0.0007845
0.0024468 -0.0062551 -0.0000029 0.0002479 0.0001167 0.0002876 0.0000250 0.0009389 0.0000114 0.0003165 0.0000851 -0.0001607 0.0003369 0.0005572 0.0003673 0.0005559 0.0004410 0.0008957 0.0001921 0.0008423
-0.0001393 0.0105347 -0.0000248 0.0002276 0.0000854 0.0002172 0.0000150 0.0009218 0.0000064 0.0003017 0.0000910 -0.0001738 0.0003447 0.0005456 0.0003712 0.0004929 0.0004482 0.0008398 0.0002025 0.0008013
-0.0019019 0.0084599 -0.0000341 0.0001107 0.0000693 0.0000729 0.0000165 0.0008223 0.0000077 0.0002120 0.0000751 -0.0003346 0.0003377 0.0004136 0.0003857 0.0004296 0.0004469 0.0007288 0.0002034 0.0007355
0.0049799 -0.0222184 -0.0000169 0.0001368 0.0000471 -0.0000192 0.0000200 0.0008091 0.0000195 0.0002191 0.0000330 -0.0004599 0.0003148 0.0003861 0.0004367 0.0006220 0.0004491 0.0007346 0.0002154 0.0008327
-0.0058860 -0.0035932 -0.0000068 0.0002668 0.0000354 0.0000052 0.0000269 0.0008681 0.0000295 0.0002873 -0.0000073 -0.0005020 0.0002831 0.0004205 0.0004801 0.0008505 0.0004525 0.0008012 0.0002155 0.0009710
-0.0020499 -0.0079123 0.0000049 0.0004100 0.0000360 0.0000806 0.0000269 0.0009627 0.0000328 0.0003899 -0.0000081 -0.0004107 0.0002656 0.0004963 0.0004593 0.0009022 0.0004500 0.0009155 0.0002269 0.0010769
0.0105378 -0.0264844 0.0000206 0.0005400 0.0000453 0.0001889 0.0000273 0.0010643 0.0000417 0.0004543 -0.0000092 -0.0004006 0.0002595 0.0004728 0.0004443 0.0008297 0.0004472 0.0008844 0.0002586 0.0010229
0.0037155 -0.0143293 0.0000251 0.0004932 0.0000600 0.0001666 0.0000364 0.0010120 0.0000493 0.0003907 -0.0000195 -0.0005538 0.0002534 0.0003328 0.0004558 0.0007340 0.0004489 0.0007590 0.0002716 0.0009403
-0.0004315 -0.0116544 0.0000300 0.0003794 0.0000721 0.0000818 0.0000412 0.0009055 0.0000492 0.0003183 -0.0000301 -0.0006648 0.0002494 0.0002627 0.0004611 0.0007260 0.0004543 0.0007604 0.0002797 0.0010019
0.0028703 0.0126383 0.0000269 0.0003974 0.0000831 0.0001097 0.0000354 0.0009139 0.0000455 0.0003354 -0.0000311 -0.0006228 0.0002445 0.0003001 0.0004546 0.0007689 0.0004671 0.0008551 0.0002829 0.0011020
0.0046449 0.0151979 0.0000359 0.0004469 0.0000890 0.0001946 0.0000352 0.0009725 0.0000444 0.0003953 -0.0000216 -0.0005087 0.0002450 0.0003744 0.0004465 0.0008520 0.0004776 0.0009681 0.0002771 0.0012136
-0.0044426 0.0052786 0.0000486 0.0005364 0.0000935 0.0003000 0.0000352 0.0010597 0.0000445 0.0004810 -0.0000153 -0.0003749 0.0002481 0.0004695 0.0004475 0.0009441 0.0004813 0.0010300 0.0002709 0.0012397
-0.0244291 0.0209674 0.0000405 0.0004960 0.0001094 0.0003163 0.0000354 0.0010216 0.0000465 0.0004396 -0.0000199 -0.0004321 0.0002503 0.0004097 0.0004589 0.0008932 0.0004902 0.0009522 0.0002746 0.0010987
-0.0140935 0.0123014 0.0000243 0.0003676 0.0001236 0.0002363 0.0000382 0.0008936 0.0000494 0.0003215 -0.0000213 -0.0005962 0.0002530 0.0002894 0.0004792 0.0008412 0.0005029 0.0008805 0.0002986 0.0010003
-0.0024339 0.0098593 0.0000196 0.0003526 0.0001295 0.0002168 0.0000354 0.0008617 0.0000506 0.0002987 -0.0000150 -0.0006177 0.0002502 0.0003113 0.0004919 0.0009097 0.0005105 0.0009244 0.0003329 0.0010512
-0.0000380 0.0055837 0.0000415 0.0003990 0.0001396 0.0002809 0.0000365 0.0009075 0.0000499 0.0003372 -0.0000129 -0.0005504 0.0002423 0.0003792 0.0004930 0.0009996 0.0005026 0.0009830 0.0003530 0.0011411
-0.0037821 -0.0005524 0.0000466 0.0004670 0.0001448 0.0003599 0.0000475 0.0009670 0.0000487 0.0004081 -0.0000148 -0.0004553 0.0002388 0.0004535 0.0004925 0.0011238 0.0004907 0.0010592 0.0003560 0.0012251
-0.0097010 0.0109949 0.0000344 0.0005488 0.0001444 0.0004422 0.0000512 0.0010333 0.0000516 0.0004600 -0.0000207 -0.0004356 0.0002392 0.0004527 0.0004940 0.0011247 0.0004858 0.0010215 0.0003382 0.0011649
-0.0063462 0.0088618 0.0000231 0.0004649 0.0001489 0.0003900 0.0000529 0.0009683 0.0000562 0.0003881 -0.0000271 -0.0005650 0.0002380 0.0003298 0.0004979 0.0009917 0.0004886 0.0008897 0.0003297 0.0010162
-0.0063020 0.0146808 0.0000136 0.0003115 0.0001488 0.0002657 0.0000567 0.0008568 0.0000630 0.0002935 -0.0000390 -0.0007182 0.0002408 0.0002306 0.0005064 0.0009476 0.0004811 0.0008394 0.0002934 0.0008782
-0.0007116 0.0056380 -0.0000094 0.0003025 0.0001313 0.0002021 0.0000605 0.0008861 0.0000734 0.0003044 -0.0000524 -0.0007566 0.0002374 0.0002456 0.0005182 0.0010272 0.0004705 0.0008842 0.0002400 0.0008900
0.0044652 -0.0213727 -0.0000182 0.0003599 0.0001214 0.0002238 0.0000591 0.0009659 0.0000784 0.0003710 -0.0000518 -0.0006827 0.0002329 0.0003142 0.0005230 0.0011266 0.0004816 0.0009977 0.0002320 0.0010374
0.0035242 -0.0163138 -0.0000062 0.0004455 0.0001270 0.0003245 0.0000547 0.0010437 0.0000781 0.0004584 -0.0000446 -0.0005489 0.0002286 0.0004186 0.0005211 0.0012301 0.0004914 0.0011209 0.0002585 0.0011320
0.0068112 -0.0126645 -0.0000168 0.0004589 0.0001399 0.0003956 0.0000567 0.0010578 0.0000822 0.0004609 -0.0000463 -0.0005503 0.0002207 0.0004159 0.0005326 0.0012250 0.0005053 0.0010889 0.0002900 0.0010693
0.0020071 -0.0060045 -0.0000304 0.0003493 0.0001539 0.0003601 0.0000592 0.0009583 0.0000833 0.0003636 -0.0000513 -0.0006770 0.0002251 0.0002997 0.0005432 0.0011144 0.0005209 0.0009977 0.0003060 0.0009629
0.0030806 0.0039037 -0.0000171 0.0002623 0.0001645 0.0003130 0.0000520 0.0008757 0.0000805 0.0003026 -0.0000513 -0.0007231 0.0002280 0.0002596 0.0005341 0.0010769 0.0005261 0.0010153 0.0003204 0.0009702
0.0028324 0.0022086 -0.0000057 0.0002683 0.0001719 0.0003433 0.0000537 0.0008810 0.0000758 0.0003236 -0.0000433 -0.0006751 0.0002250 0.0003049 0.0005228 0.0011150 0.0005272 0.0010815 0.0003177 0.0010345
-0.0019864 -0.0014436 -0.0000094 0.0003143 0.0001727 0.0003976 0.0000503 0.0009372 0.0000719 0.0003787 -0.0000372 -0.0005651 0.0002267 0.0003882 0.0005126 0.0011828 0.0005219 0.0011733 0.0002941 0.0011031
-0.0068963 0.0009301 -0.0000109 0.0004311 0.0001838 0.0005034 0.0000413 0.0010040 0.0000685 0.0004466 -0.0000321 -0.0004212 0.0002321 0.0004721 0.0005072 0.0011951 0.0005220 0.0012042 0.0002634 0.0010589
-0.0097774 0.0053240 -0.0000056 0.0004030 0.0001982 0.0004991 0.0000376 0.0009236 0.0000671 0.0004023 -0.0000286 -0.0004579 0.0002351 0.0004104 0.0005080 0.0010769 0.0005334 0.0011032 0.0002526 0.0008842
-0.0056952 0.0071550 -0.0000014 0.0002446 0.0001988 0.0003740 0.0000244 0.0007800 0.0000588 0.0002819 -0.0000253 -0.0005895 0.0002302 0.0002937 0.0005047 0.0009465 0.0005252 0.0009775 0.0002400 0.0007173
0.0054914 -0.0156734 -0.0000008 0.0002000 0.0001977 0.0003289 0.0000146 0.0007512 0.0000526 0.0002415 -0.0000135 -0.0005844 0.0002309 0.0002987 0.0004934 0.0008911 0.0005043 0.0009544 0.0002208 0.0006732
0.0048023 -0.0290075 -0.0000005 0.0001896 0.0001988 0.0003548 0.0000175 0.0007829 0.0000486 0.0002474 0.0000025 -0.0005092 0.0002411 0.0003591 0.0004781 0.0008764 0.0004598 0.0009641 0.0002000 0.0006867
-0.0075551 -0.0021827 -0.0000237 0.0001239 0.0002028 0.0003971 0.0000144 0.0008414 0.0000319 0.0002849 0.0000090 -0.0004073 0.0002502 0.0004523 0.0004749 0.0009791 0.0004252 0.0010206 0.0002167 0.0008416
-0.0006729 0.0123982 -0.0000428 0.0001488 0.0002091 0.0004548 0.0000124 0.0008506 0.0000326 0.0002817 -0.0000062 -0.0004676 0.0002455 0.0003906 0.0004824 0.0009358 0.0004401 0.0009693 0.0002535 0.0008469
0.0009601 0.0052231 -0.0000364 0.0001506 0.0002085 0.0003830 0.0000286 0.0007491 0.0000368 0.0001669 -0.0000197 -0.0006759 0.0002429 0.0001934 0.0004844 0.0007325 0.0004531 0.0008196 0.0002536 0.0006809
0.0079641 -0.0313812 -0.0000249 0.0000446 0.0002057 0.0002575 0.0000280 0.0006825 0.0000306 0.0000831 -0.0000213 -0.0007704 0.0002375 0.0001303 0.0004873 0.0006839 0.0004476 0.0007733 0.0002511 0.0007161
0.0087562 -0.0176352 -0.0000143 0.0000617 0.0002092 0.0002638 0.0000153 0.0006968 0.0000340 0.0001061 -0.0000238 -0.0007543 0.0002336 0.0001552 0.0004896 0.0007330 0.0004585 0.0008578 0.0002560 0.0008363
0.0059923 -0.0079021 -0.0000115 0.0002139 0.0002106 0.0003335 0.0000109 0.0007419 0.0000380 0.0001610 -0.0000178 -0.0006709 0.0002358 0.0002368 0.0004914 0.0008166 0.0004895 0.0010171 0.0002662 0.0009285
0.0020612 0.0065517 -0.0000059 0.0002530 0.0002096 0.0004099 -0.0000044 0.0008239 0.0000254 0.0002156 -0.0000123 -0.0005318 0.0002276 0.0003560 0.0004911 0.0008846 0.0004857 0.0010488 0.0002719 0.0009097
-0.0040393 0.0157249 -0.0000142 0.0000929 0.0002403 0.0004458 0.0000018 0.0007643 0.0000117 0.0001089 -0.0000233 -0.0006154 0.0002195 0.0002801 0.0005077 0.0008494 0.0004734 0.0009212 0.0002642 0.0007888
0.0028279 0.0002330 -0.0000185 0.0000324 0.0002912 0.0004878 0.0000292 0.0006292 0.0000260 -0.0000137 -0.0000327 -0.0008255 0.0002164 0.0001104 0.0005245 0.0007990 0.0004904 0.0008616 0.0002786 0.0006776
0.0164523 -0.0272065 0.0000212 0.0001836 0.0003102 0.0005386 0.0000409 0.0006358 0.0000531 0.0000405 -0.0000299 -0.0008593 0.0002117 0.0000944 0.0005198 0.0008253 0.0005198 0.0009600 0.0002870 0.0006497
0.0061014 -0.0044008 0.0000613 0.0004186 0.0003155 0.0006126 0.0000479 0.0007138 0.0000669 0.0001210 -0.0000278 -0.0007800 0.0002086 0.0001776 0.0005162 0.0009023 0.0005380 0.0010838 0.0002738 0.0006937
-0.0060654 0.0157430 0.0000725 0.0006231 0.0003331 0.0007530 0.0000529 0.0008012 0.0000713 0.0002045 -0.0000238 -0.0006555 0.0002168 0.0002810 0.0005117 0.0010039 0.0005501 0.0012021 0.0002490 0.0007952
-0.0102826 0.0247656 0.0000793 0.0007775 0.0003404 0.0008944 0.0000569 0.0008985 0.0000741 0.0002763 -0.0000200 -0.0005918 0.0002261 0.0003117 0.0005125 0.0010038 0.0005619 0.0012117 0.0002167 0.0007789
-0.0089850 0.0221300 0.0000585 0.0007426 0.0003698 0.0009537 0.0000633 0.0008852 0.0000859 0.0002242 -0.0000323 -0.0007099 0.0002184 0.0002210 0.0005313 0.0009605 0.0005729 0.0011275 0.0002018 0.0005521
-0.0044268 0.0004520 0.0000550 0.0006764 0.0004290 0.0010343 0.0000831 0.0008367 0.0001141 0.0001741 -0.0000430 -0.0008327 0.0002028 0.0001476 0.0005576 0.0010212 0.0005967 0.0011086 0.0002345 0.0003749
-0.0002593 -0.0129566 0.0000848 0.0007118 0.0004650 0.0011247 0.0001083 0.0008663 0.0001298 0.0002169 -0.0000440 -0.0008330 0.0001934 0.0001564 0.0005574 0.0010649 0.0006133 0.0011627 0.0002469 0.0004508
-0.0045080 0.0025825 0.0000880 0.0007400 0.0004685 0.0011660 0.0001291 0.0009213 0.0001302 0.0002781 -0.0000418 -0.0007646 0.0001916 0.0002202 0.0005402 0.0010858 0.0006093 0.0012494 0.0002293 0.0006252
-0.0009643 0.0141762 0.0000924 0.0008093 0.0004579 0.0012086 0.0001371 0.0010077 0.0001353 0.0003811 -0.0000374 -0.0006459 0.0001910 0.0003148 0.0005272 0.0011170 0.0006008 0.0012981 0.0002354 0.0006869
-0.0012859 0.0116683 0.0000767 0.0007236 0.0004493 0.0011480 0.0001420 0.0009799 0.0001447 0.0003672 -0.0000431 -0.0007076 0.0001839 0.0002516 0.0005150 0.0010031 0.0005919 0.0012051 0.0002085 0.0006241
0.0034263 -0.0164323 0.0000403 0.0005580 0.0004331 0.0010071 0.0001416 0.0008868 0.0001516 0.0002955 -0.0000414 -0.0008305 0.0001831 0.0001493 0.0005036 0.0008744 0.0005870 0.0011238 0.0001820 0.0006003
0.0198989 -0.0603215 0.0000287 0.0005105 0.0004150 0.0009426 0.0001407 0.0008726 0.0001488 0.0003027 -0.0000344 -0.0007994 0.0001854 0.0001822 0.0004946 0.0008860 0.0005805 0.0011613 0.0001680 0.0006995
0.0110985 -0.0404165 0.0000206 0.0005251 0.0004063 0.0009452 0.0001330 0.0009198 0.0001462 0.0003505 -0.0000336 -0.0007050 0.0001833 0.0002687 0.0004907 0.0009640 0.0005663 0.0012266 0.0001433 0.0008297
0.0031322 -0.0117653 0.0000133 0.0005525 0.0003956 0.0009710 0.0001156 0.0009984 0.0001449 0.0004314 -0.0000307 -0.0005723 0.0001791 0.0003900 0.0004875 0.0010844 0.0005497 0.0013029 0.0001389 0.0009707
0.0065624 -0.0121580 0.0000210 0.0005492 0.0004015 0.0010653 0.0001033 0.0010564 0.0001448 0.0004616 -0.0000328 -0.0005434 0.0001761 0.0003930 0.0004883 0.0010642 0.0005410 0.0012440 0.0001467 0.0008984
-0.0025810 -0.0008016 0.0000044 0.0004197 0.0004116 0.0010115 0.0000975 0.0009745 0.0001470 0.0003847 -0.0000321 -0.0006674 0.0001765 0.0002745 0.0004909 0.0009336 0.0005422 0.0011143 0.0001414 0.0007474
-0.0053236 0.0039677 -0.0000195 0.0002826 0.0003997 0.0008705 0.0001020 0.0008698 0.0001519 0.0003326 -0.0000279 -0.0007250 0.0001799 0.0002316 0.0004880 0.0008980 0.0005401 0.0011018 0.0001381 0.0007523
0.0052503 -0.0013419 -0.0000305 0.0002818 0.0003861 0.0008471 0.0001050 0.0008773 0.0001518 0.0003762 -0.0000243 -0.0006675 0.0001818 0.0002803 0.0004843 0.0009393 0.0005320 0.0011513 0.0001358 0.0007839
0.0107626 -0.0109052 -0.0000339 0.0003055 0.0003766 0.0008720 0.0001049 0.0009222 0.0001481 0.0004304 -0.0000221 -0.0005723 0.0001871 0.0003610 0.0004817 0.0010151 0.0005221 0.0012192 0.0001090 0.0008545
0.0144878 -0.0336869 -0.0000405 0.0003626 0.0003897 0.0009986 0.0001039 0.0010099 0.0001317 0.0004633 -0.0000246 -0.0004480 0.0001908 0.0004528 0.0004801 0.0010750 0.0005172 0.0012653 0.0000906 0.0008688
0.0031638 -0.0093433 -0.0000514 0.0003017 0.0004182 0.0010540 0.0001053 0.0009907 0.0001215 0.0003851 -0.0000307 -0.0005153 0.0001912 0.0003859 0.0004809 0.0009912 0.0005181 0.0011672 0.0000919 0.0007233
0.0041207 -0.0063043 -0.0000464 0.0001240 0.0004257 0.0009596 0.0001024 0.0008815 0.0001251 0.0002662 -0.0000332 -0.0006644 0.0001870 0.0002630 0.0004807 0.0008679 0.0005202 0.0010648 0.0000921 0.0006193
0.0051142 -0.0036026 -0.0000607 0.0000719 0.0004353 0.0009641 0.0000962 0.0008594 0.0001118 0.0002202 -0.0000314 -0.0006590 0.0001779 0.0002866 0.0004932 0.0009268 0.0005149 0.0010913 0.0000923 0.0006865
0.0001454 0.0000325 -0.0001044 0.0000339 0.0005642 0.0014123 0.0001245 0.0009591 0.0001792 0.0004357 -0.0000333 -0.0005932 0.0001743 0.0003865 0.0005171 0.0011126 0.0005022 0.0011482 0.0000955 0.0008107
-0.0009744 0.0033472 -0.0001363 -0.0000046 0.0007238 0.0019473 0.0001662 0.0010989 0.0002975 0.0008000 -0.0000324 -0.0004838 0.0001772 0.0005078 0.0005311 0.0013067 0.0004909 0.0012275 0.0001120 0.0008904
-0.0020054 0.0108130 -0.0001299 0.0000928 0.0007383 0.0020600 0.0001731 0.0011850 0.0003413 0.0009674 -0.0000319 -0.0004085 0.0001785 0.0005519 0.0005348 0.0013439 0.0004895 0.0012019 0.0001070 0.0007931
-0.0094887 0.0174017 -0.0001249 0.0000781 0.0006943 0.0018928 0.0001829 0.0011165 0.0003401 0.0008975 -0.0000346 -0.0004820 0.0001828 0.0004769 0.0005356 0.0012686 0.0004900 0.0010915 0.0000906 0.0006440
-0.0158807 0.0241715 -0.0001423 -0.0000648 0.0007198 0.0018743 0.0002021 0.0010191 0.0003636 0.0008701 -0.0000312 -0.0005189 0.0001959 0.0004462 0.0005408 0.0013036 0.0004867 0.0010745 0.0000758 0.0006295
-0.0062524 0.0174827 -0.0001576 -0.0000868 0.0007418 0.0019463 0.0002120 0.0010170 0.0003885 0.0009567 -0.0000212 -0.0004130 0.0001949 0.0005256 0.0005352 0.0013811 0.0004913 0.0011523 0.0000361 0.0006933
-0.0018805 0.0057990 -0.0001337 0.0000486 0.0006629 0.0017458 0.0001964 0.0010467 0.0003785 0.0009896 -0.0000108 -0.0002889 0.0001899 0.0006170 0.0005184 0.0014222 0.0005019 0.0012601 0.0000049 0.0007869
-0.0018012 -0.0141744 -0.0001132 0.0002057 0.0005215 0.0013733 0.0001627 0.0010817 0.0003686 0.0010478 -0.0000084 -0.0001577 0.0001835 0.0007129 0.0005076 0.0015035 0.0005014 0.0013246 0.0000138 0.0008339
-0.0085156 0.0009483 -0.0001496 0.0000157 0.0004141 0.0010334 0.0001345 0.0009745 0.0003417 0.0009572 -0.0000192 -0.0002090 0.0001710 0.0006594 0.0005029 0.0014478 0.0004620 0.0011525 -0.0000045 0.0007131
-0.0063990 0.0068749 -0.0001498 -0.0002217 0.0003726 0.0007862 0.0001360 0.0007935 0.0003253 0.0007959 -0.0000329 -0.0004031 0.0001590 0.0004952 0.0004948 0.0012749 0.0004350 0.0009641 0.0000023 0.0006598
0.0074467 -0.0070990 -0.0001006 -0.0000807 0.0003412 0.0006310 0.0001514 0.0007711 0.0003416 0.0007976 -0.0000336 -0.0004676 0.0001444 0.0004476 0.0004828 0.0012252 0.0004503 0.0009874 0.0000694 0.0007696
0.0076651 -0.0072123 -0.0000810 0.0001479 0.0003233 0.0006406 0.0001710 0.0008424 0.0003368 0.0008448 -0.0000324 -0.0004187 0.0001327 0.0004913 0.0004701 0.0012496 0.0004526 0.0010464 0.0000882 0.0008616
0.0036395 -0.0088632 -0.0000807 0.0002479 0.0003215 0.0007310 0.0001721 0.0009182 0.0003132 0.0008703 -0.0000365 -0.0003356 0.0001340 0.0005608 0.0004598 0.0012987 0.0004438 0.0011147 0.0000647 0.0009457
-0.0017704 -0.0058134 -0.0001056 0.0001214 0.0003115 0.0007862 0.0001309 0.0009695 0.0002678 0.0008408 -0.0000467 -0.0002691 0.0001448 0.0006171 0.0004642 0.0013247 0.0004309 0.0010856 0.0000455 0.0008635
0.0031656 -0.0140501 -0.0001529 -0.0002378 0.0002877 0.0006311 0.0000848 0.0008283 0.0002246 0.0006604 -0.0000567 -0.0003856 0.0001427 0.0005188 0.0004591 0.0011793 0.0004151 0.0009223 0.0000254 0.0006477
0.0079182 -0.0263785 -0.0001379 -0.0004077 0.0002562 0.0003951 0.0000634 0.0006539 0.0002180 0.0005262 -0.0000502 -0.0005289 0.0001383 0.0003899 0.0004368 0.0009743 0.0004102 0.0008164 0.0000149 0.0005073
-0.0001359 -0.0129266 -0.0000948 -0.0002909 0.0002166 0.0002928 0.0000577 0.0006532 0.0002298 0.0005729 -0.0000373 -0.0005073 0.0001426 0.0003923 0.0004220 0.0008940 0.0004087 0.0008303 0.0000208 0.0004704
-0.0016756 -0.0178926 -0.0000678 -0.0001693 0.0001897 0.0003005 0.0000627 0.0007192 0.0002350 0.0006396 -0.0000275 -0.0004273 0.0001461 0.0004504 0.0004125 0.0009103 0.0004007 0.0008883 0.0000033 0.0005272
-0.0052332 -0.0048095 -0.0000617 -0.0000355 0.0001811 0.0003625 0.0000707 0.0007941 0.0002310 0.0007133 -0.0000210 -0.0003078 0.0001461 0.0005440 0.0004002 0.0009781 0.0003918 0.0009740 0.0000071 0.0006289
0.0005491 0.0089755 -0.0000733 0.0000992 0.0001753 0.0004266 0.0000722 0.0008479 0.0002292 0.0007454 -0.0000189 -0.0002810 0.0001470 0.0005427 0.0003971 0.0009342 0.0003891 0.0009292 0.0000264 0.0005378
0.0084272 -0.0037836 -0.0000706 0.0000273 0.0001719 0.0003576 0.0000847 0.0007571 0.0002302 0.0006547 -0.0000221 -0.0004075 0.0001580 0.0004186 0.0004022 0.0008026 0.0003944 0.0007969 0.0000186 0.0003755
0.0137044 -0.0242349 -0.0000592 -0.0000974 0.0001675 0.0002341 0.0000918 0.0006538 0.0002332 0.0005788 -0.0000208 -0.0004817 0.0001677 0.0003572 0.0004055 0.0007800 0.0004000 0.0007767 0.0000234 0.0003779
-0.0026395 0.0055350 -0.0000616 -0.0000647 0.0001664 0.0002274 0.0000803 0.0006721 0.0002304 0.0005954 -0.0000163 -0.0004276 0.0001647 0.0004054 0.0004109 0.0008628 0.0003980 0.0008220 0.0000306 0.0004405
-0.0123485 0.0153658 -0.0000506 -0.0000004 0.0001710 0.0002818 0.0000697 0.0007314 0.0002282 0.0006446 -0.0000159 -0.0003592 0.0001620 0.0004881 0.0004248 0.0009986 0.0003927 0.0008878 0.0000086 0.0005325
0.0131306 -0.0246342 -0.0000326 0.0000995 0.0001729 0.0003562 0.0000650 0.0008198 0.0002279 0.0007147 -0.0000220 -0.0002832 0.0001521 0.0005908 0.0004377 0.0011640 0.0003856 0.0009676 0.0000090 0.0006165
0.0078336 -0.0158511 -0.0000406 0.0001173 0.0001890 0.0003809 0.0000706 0.0008235 0.0002261 0.0006891 -0.0000276 -0.0003447 0.0001333 0.0005303 0.0004285 0.0010772 0.0003857 0.0009024 0.0000263 0.0005192
-0.0081433 0.0053468 -0.0000311 0.0000291 0.0002015 0.0003046 0.0000804 0.0007289 0.0002226 0.0005972 -0.0000248 -0.0004957 0.0001360 0.0003742 0.0004145 0.0008748 0.0003857 0.0007970 0.0000461 0.0003671
0.0064888 -0.0135757 -0.0000203 -0.0000455 0.0001976 0.0002302 0.0000720 0.0006750 0.0002094 0.0005526 -0.0000220 -0.0005361 0.0001420 0.0003465 0.0004074 0.0008502 0.0003858 0.0008260 0.0000551 0.0004148
0.0079837 -0.0154889 -0.0000254 -0.0000389 0.0002164 0.0002957 0.0000658 0.0006886 0.0001877 0.0005292 -0.0000220 -0.0004973 0.0001432 0.0003831 0.0003967 0.0008714 0.0003856 0.0008972 0.0000562 0.0005262
0.0002677 -0.0033197 -0.0000205 0.0000097 0.0002663 0.0004982 0.0000672 0.0007394 0.0001601 0.0004971 -0.0000203 -0.0004046 0.0001483 0.0004472 0.0003837 0.0009135 0.0003798 0.0009850 0.0000497 0.0006432
0.0016952 0.0035679 -0.0000153 0.0000808 0.0003022 0.0006748 0.0000615 0.0008229 0.0001540 0.0005360 -0.0000205 -0.0003111 0.0001450 0.0004933 0.0003741 0.0008940 0.0003803 0.0009945 0.0000230 0.0006496
0.0037072 -0.0000851 -0.0000244 0.0000301 0.0002875 0.0005786 0.0000599 0.0007765 0.0001759 0.0005396 -0.0000219 -0.0003881 0.0001380 0.0004124 0.0003706 0.0007717 0.0003825 0.0008991 0.0000106 0.0005241
0.0012579 -0.0024156 -0.0000249 -0.0000967 0.0002594 0.0003917 0.0000627 0.0006585 0.0001812 0.0004741 -0.0000187 -0.0005074 0.0001352 0.0003195 0.0003706 0.0006919 0.0003839 0.0008451 0.0000286 0.0004724
-0.0026123 -0.0045184 -0.0000226 -0.0001159 0.0002566 0.0003628 0.0000557 0.0006522 0.0001718 0.0004560 -0.0000140 -0.0004867 0.0001304 0.0003473 0.0003661 0.0007107 0.0003799 0.0008815 0.0000444 0.0005274
-0.0136189 0.0044694 -0.0000295 -0.0000879 0.0002636 0.0004233 0.0000563 0.0006822 0.0001645 0.0004685 -0.0000065 -0.0004112 0.0001339 0.0004122 0.0003560 0.0007711 0.0003714 0.0009487 0.0000432 0.0006108
-0.0088531 0.0206212 -0.0000172 -0.0000391 0.0002687 0.0005142 0.0000570 0.0007361 0.0001578 0.0005295 0.0000003 -0.0002921 0.0001429 0.0004914 0.0003440 0.0008487 0.0003638 0.0010263 0.0000534 0.0006742
-0.0056469 0.0169685 -0.0000098 -0.0000376 0.0002746 0.0005722 0.0000583 0.0007510 0.0001566 0.0005241 -0.0000028 -0.0003013 0.0001394 0.0004612 0.0003388 0.0007763 0.0003605 0.0009571 0.0000518 0.0005773
-0.0043978 -0.0004634 -0.0000218 -0.0001333 0.0002787 0.0005003 0.0000647 0.0006456 0.0001554 0.0004074 -0.0000084 -0.0004498 0.0001376 0.0003366 0.0003400 0.0006301 0.0003635 0.0008301 0.0000472 0.0004415
0.0005443 -0.0096285 -0.0000320 -0.0002221 0.0002916 0.0004350 0.0000657 0.0005559 0.0001483 0.0003148 -0.0000080 -0.0005204 0.0001425 0.0002824 0.0003374 0.0005882 0.0003692 0.0008287 0.0000438 0.0004429
0.0115733 -0.0264337 -0.0000249 -0.0002495 0.0002993 0.0004584 0.0000549 0.0005767 0.0001443 0.0003241 -0.0000043 -0.0004840 0.0001424 0.0003089 0.0003352 0.0006279 0.0003663 0.0008762 0.0000314 0.0005138
0.0097378 -0.0186280 -0.0000112 -0.0001955 0.0003101 0.0005351 0.0000471 0.0006233 0.0001534 0.0003881 -0.0000010 -0.0004234 0.0001321 0.0003708 0.0003410 0.0007366 0.0003568 0.0009297 0.0000420 0.0006267
0.0028047 -0.0005051 -0.0000047 -0.0000544 0.0003943 0.0008610 0.0000587 0.0007170 0.0001686 0.0004644 -0.0000123 -0.0003893 0.0001212 0.0004040 0.0003701 0.0008580 0.0003559 0.0009227 0.0000727 0.0006313
0.0028213 -0.0025044 0.0000022 -0.0000744 0.0004782 0.0010558 0.0000835 0.0007025 0.0001871 0.0004240 -0.0000247 -0.0005268 0.0001163 0.0002993 0.0003919 0.0008217 0.0003629 0.0008176 0.0000754 0.0005238
0.0063874 -0.0137073 0.0000117 -0.0002138 0.0004930 0.0009784 0.0001011 0.0005950 0.0001988 0.0003315 -0.0000247 -0.0006911 0.0001230 0.0001768 0.0003920 0.0007131 0.0003762 0.0007687 0.0000843 0.0004689
0.0039602 0.0087963 0.0000042 -0.0002629 0.0005098 0.0010176 0.0001194 0.0005752 0.0001948 0.0003126 -0.0000208 -0.0006848 0.0001296 0.0001860 0.0003923 0.0007045 0.0003895 0.0008229 0.0000978 0.0004760
0.0025364 0.0120059 -0.0000295 -0.0003356 0.0005941 0.0013150 0.0001439 0.0006535 0.0002312 0.0004354 -0.0000115 -0.0005988 0.0001479 0.0002696 0.0003922 0.0007690 0.0003856 0.0008717 0.0000595 0.0004859
-0.0017546 0.0080865 -0.0000730 -0.0004112 0.0006465 0.0015597 0.0001590 0.0007535 0.0002891 0.0006518 0.0000006 -0.0004481 0.0001683 0.0004051 0.0003941 0.0008807 0.0003720 0.0009217 0.0000258 0.0005069
-0.0089225 0.0199203 -0.0001089 -0.0004359 0.0006625 0.0016817 0.0001748 0.0007979 0.0003397 0.0007654 0.0000116 -0.0003739 0.0001785 0.0004424 0.0003989 0.0008686 0.0003614 0.0008326 0.0000334 0.0003868
-0.0009761 -0.0021369 -0.0001125 -0.0004692 0.0006828 0.0016855 0.0001927 0.0007517 0.0003766 0.0007355 0.0000324 -0.0004056 0.0001940 0.0003936 0.0004059 0.0007822 0.0003569 0.0006823 0.0000493 0.0002236
0.0158900 -0.0283927 -0.0000891 -0.0004155 0.0006648 0.0015659 0.0002185 0.0006941 0.0003857 0.0006855 0.0000543 -0.0003813 0.0002020 0.0004073 0.0004247 0.0008554 0.0003558 0.0006611 0.0000897 0.0002300
0.0076966 -0.0063024 -0.0000263 -0.0000885 0.0006204 0.0014582 0.0002492 0.0007477 0.0003920 0.0007226 0.0000729 -0.0002214 0.0001709 0.0004409 0.0004226 0.0010463 0.0003571 0.0007323 0.0001491 0.0004591
0.0106314 -0.0186065 0.0000562 0.0005037 0.0005685 0.0013734 0.0002739 0.0008966 0.0003957 0.0008120 0.0001035 0.0000351 0.0000924 0.0003791 0.0003392 0.0011021 0.0003658 0.0008897 0.0002015 0.0007792
0.0072878 -0.0196888 0.0000937 0.0009058 0.0005639 0.0014656 0.0002855 0.0010694 0.0003978 0.0009216 0.0001206 0.0002321 0.0000109 0.0002890 0.0002492 0.0010287 0.0003759 0.0009732 0.0002028 0.0008551
-0.0051138 0.0050478 0.0000479 0.0006812 0.0005631 0.0014122 0.0002823 0.0010210 0.0003933 0.0008435 0.0001162 0.0001425 -0.0000359 0.0001168 0.0002244 0.0009053 0.0003751 0.0008563 0.0001692 0.0007112
-0.0004761 0.0069212 0.0000012 0.0002522 0.0005583 0.0012412 0.0002689 0.0008461 0.0003756 0.0006628 0.0001080 -0.0000604 -0.0000537 -0.0001036 0.0002183 0.0007797 0.0003584 0.0006956 0.0001375 0.0006104
0.0050969 -0.0013494 -0.0000331 -0.0000513 0.0005706 0.0012057 0.0002452 0.0007681 0.0003604 0.0005980 0.0000939 -0.0001575 -0.0000701 -0.0001738 0.0002113 0.0007493 0.0003314 0.0006171 0.0001082 0.0006239
0.0049255 -0.0062210 -0.0000987 -0.0004607 0.0005479 0.0011259 0.0002093 0.0007027 0.0003249 0.0005453 0.0000777 -0.0002036 -0.0000837 -0.0001725 0.0002067 0.0007763 0.0003023 0.0006093 0.0000988 0.0006987
-0.0004297 0.0016438 -0.0001182 -0.0006497 0.0004925 0.0010122 0.0001714 0.0006800 0.0002808 0.0005318 0.0000590 -0.0001924 -0.0001057 -0.0001557 0.0001863 0.0007797 0.0002577 0.0005763 0.0000991 0.0007216
-0.0026097 0.0063612 -0.0001185 -0.0006670 0.0004512 0.0009099 0.0001509 0.0006229 0.0002747 0.0004907 0.0000275 -0.0003521 -0.0001340 -0.0002818 0.0001617 0.0006093 0.0002426 0.0004977 0.0001150 0.0006209
-0.0054827 0.0000032 -0.0001288 -0.0007045 0.0004351 0.0007777 0.0001511 0.0004857 0.0002741 0.0003721 -0.0000002 -0.0005922 -0.0001349 -0.0004522 0.0001481 0.0004019 0.0002772 0.0004969 0.0001321 0.0005496
-0.0020050 -0.0079867 -0.0001076 -0.0006130 0.0004278 0.0006935 0.0001577 0.0004379 0.0002758 0.0003622 -0.0000118 -0.0006771 -0.0001303 -0.0004983 0.0001359 0.0003259 0.0002807 0.0005168 0.0001187 0.0005421
0.0002903 0.0005435 -0.0000703 -0.0004583 0.0004116 0.0006902 0.0001603 0.0004899 0.0002897 0.0004458 -0.0000206 -0.0006736 -0.0001364 -0.0004890 0.0001352 0.0003648 0.0002586 0.0005269 0.0001020 0.0006254
-0.0029861 0.0040973 -0.0000454 -0.0003237 0.0004010 0.0007579 0.0001571 0.0005739 0.0003003 0.0005344 -0.0000260 -0.0005924 -0.0001457 -0.0004209 0.0001362 0.0004696 0.0002537 0.0006058 0.0000961 0.0007916
