-0.0000000 -0.0000000 -0.0000000 -0.0000000 -0.0000000 -0.0000000 -0.0000000 -0.0000000 -0.0000000 -0.0000000 -0.0000000 -0.0000000 -0.0000000 -0.0000000 -0.0000000 -0.0000000 -0.0000000 -0.0000000 -0.0000000 -0.0000000
-0.0000000 -0.0000000 -0.0000000 -0.0000000 -0.0000000 -0.0000000 -0.0000000 -0.0000000 -0.0000000 -0.0000000 -0.0000000 -0.0000000 -0.0000000 -0.0000000 -0.0000000 -0.0000000 -0.0000000 -0.0000000 -0.0000000 -0.0000000
-0.0005136 0.0006275 0.0000008 0.0000734 -0.0000052 0.0001962 0.0000312 0.0002239 -0.0000018 0.0002627 0.0000028 0.0001024 -0.0000080 0.0001069 0.0000163 0.0000772 0.0000025 0.0000717 -0.0000269 0.0000495
-0.0005637 0.0007131 -0.0000093 0.0000402 -0.0000042 0.0000686 0.0000196 0.0000257 0.0000046 0.0000107 0.0000051 0.0000042 0.0000044 -0.0000331 0.0000355 -0.0000408 0.0000026 -0.0001989 -0.0000479 -0.0002681
0.0001186 -0.0004815 0.0000094 -0.0002444 0.0000112 -0.0005791 0.0000319 -0.0007180 0.0000264 -0.0007069 0.0000051 -0.0002867 0.0000439 -0.0002985 0.0000330 -0.0002183 0.0000057 -0.0003079 -0.0000407 -0.0003022
0.0006102 -0.0009799 0.0000282 -0.0002922 0.0000276 -0.0005722 0.0000743 -0.0006455 0.0000481 -0.0005693 0.0000173 -0.0002559 0.0000547 -0.0001915 0.0000460 -0.0001933 0.0000223 -0.0001475 0.0000152 -0.0001354
-0.0001969 -0.0001141 0.0000319 -0.0001507 0.0000416 -0.0002511 0.0001151 -0.0002831 0.0000661 -0.0002052 0.0000286 -0.0001125 0.0000492 -0.0000026 0.0000777 -0.0001061 0.0000241 0.0001151 0.0000697 0.0001145
0.0001233 0.0001572 0.0000343 0.0000432 0.0000368 0.0002221 0.0001328 0.0001212 0.0000727 0.0000872 0.0000338 0.0000152 0.0000467 0.0000415 0.0000858 -0.0000535 0.0000108 0.0000036 0.0000592 -0.0000675
0.0001386 -0.0000936 0.0000252 -0.0000928 0.0000296 -0.0000693 0.0001201 -0.0003157 0.0000703 -0.0003686 0.0000342 -0.0001713 0.0000784 -0.0002480 0.0001055 -0.0002370 0.0000050 -0.0003875 0.0000050 -0.0004435
-0.0005444 0.0001152 0.0000246 -0.0003808 0.0000443 -0.0007162 0.0001409 -0.0010086 0.0000760 -0.0008941 0.0000304 -0.0003809 0.0000776 -0.0003790 0.0001490 -0.0003685 0.0000112 -0.0004074 -0.0000216 -0.0003893
-0.0000469 -0.0002359 0.0000356 -0.0003667 0.0000826 -0.0005784 0.0002038 -0.0008143 0.0000925 -0.0006923 0.0000346 -0.0003221 0.0000777 -0.0002173 0.0001578 -0.0002498 0.0000193 -0.0002254 0.0000142 -0.0001979
0.0003011 -0.0004647 0.0000364 -0.0001909 0.0001021 -0.0001668 0.0002278 -0.0004353 0.0000958 -0.0002755 0.0000497 -0.0001157 0.0001069 -0.0000698 0.0001590 -0.0000807 0.0000337 0.0000770 0.0000810 0.0001277
0.0005282 0.0002409 0.0000291 0.0000693 0.0001043 0.0004059 0.0002119 -0.0000114 0.0000799 0.0002052 0.0000404 0.0001263 0.0000872 0.0000064 0.0001322 -0.0000083 0.0000382 0.0000639 0.0000334 -0.0000097
-0.0000161 0.0003952 -0.0000105 -0.0000686 0.0000870 0.0001468 0.0001811 -0.0003471 0.0000646 -0.0001721 0.0000169 -0.0000388 0.0000677 -0.0001778 0.0000880 -0.0001865 0.0000274 -0.0002889 -0.0000721 -0.0003976
0.0002105 -0.0001625 -0.0000279 -0.0003396 0.0000708 -0.0006122 0.0001545 -0.0011501 0.0000723 -0.0008511 0.0000161 -0.0002775 0.0000504 -0.0003682 0.0000853 -0.0003465 0.0000362 -0.0003218 0.0000037 -0.0003464
-0.0004155 0.0006988 -0.0000151 -0.0002984 0.0000397 -0.0006265 0.0001389 -0.0011496 0.0000802 -0.0007034 0.0000300 -0.0001903 0.0000361 -0.0002698 0.0000735 -0.0002910 0.0000547 -0.0001107 0.0001024 -0.0001348
-0.0011954 0.0011726 -0.0000281 -0.0001351 -0.0000023 -0.0002986 0.0001450 -0.0007197 0.0000760 -0.0002298 0.0000338 0.0000221 0.0000069 -0.0000571 0.0000464 -0.0001450 0.0000555 0.0002117 0.0001363 0.0002126
-0.0002468 0.0003384 -0.0000493 0.0001073 -0.0000287 0.0002431 0.0001320 -0.0001121 0.0000559 0.0003786 0.0000190 0.0002892 -0.0000179 0.0001531 0.0000445 -0.0000059 0.0000447 0.0002496 0.0001004 0.0001087
0.0000668 0.0003063 -0.0000787 0.0000414 -0.0000402 0.0000818 0.0001019 -0.0003451 0.0000355 0.0000324 0.0000020 0.0001610 0.0000092 0.0000426 0.0000062 -0.0001020 0.0000290 -0.0000974 0.0000272 -0.0002701
-0.0000007 0.0002435 -0.0000948 -0.0001856 -0.0000382 -0.0004970 0.0000955 -0.0009777 0.0000362 -0.0006189 -0.0000106 -0.0000963 -0.0000085 -0.0000902 0.0000203 -0.0002440 0.0000156 -0.0002061 -0.0000080 -0.0002803
0.0001912 0.0002099 -0.0000804 -0.0002018 -0.0000465 -0.0004492 0.0001341 -0.0008627 0.0000435 -0.0004545 -0.0000182 -0.0000410 -0.0000102 0.0000519 0.0000325 -0.0001246 0.0000255 -0.0000467 0.0000246 -0.0000851
0.0002572 0.0000917 -0.0000837 -0.0000628 -0.0000510 -0.0000806 0.0001777 -0.0004555 0.0000471 -0.0000231 -0.0000171 0.0001409 0.0000198 0.0002504 0.0000142 0.0000723 0.0000359 0.0002455 0.0000805 0.0001731
0.0000234 0.0002754 -0.0001163 0.0001412 -0.0000579 0.0003385 0.0001680 -0.0001421 0.0000557 0.0000937 -0.0000180 0.0002271 -0.0000010 0.0003262 0.0000313 0.0000868 0.0000307 0.0000984 0.0000623 -0.0000144
0.0000775 0.0003654 -0.0001182 0.0000184 -0.0000800 0.0000351 0.0001267 -0.0005092 0.0000479 -0.0003456 -0.0000305 0.0000666 -0.0000101 0.0001772 0.0000379 -0.0000690 0.0000283 -0.0002521 -0.0000036 -0.0002919
-0.0002813 -0.0000790 -0.0000974 -0.0001707 -0.0001010 -0.0003552 0.0001238 -0.0007781 0.0000404 -0.0004547 -0.0000336 0.0000056 -0.0000286 0.0001946 0.0000106 -0.0000354 0.0000318 -0.0001619 -0.0000106 -0.0001813
-0.0005824 0.0002442 -0.0000876 -0.0000723 -0.0001009 -0.0001038 0.0001482 -0.0004344 0.0000469 -0.0000612 -0.0000328 0.0001656 -0.0000635 0.0004232 -0.0000296 0.0001750 0.0000369 0.0001137 0.0000099 0.0000646
-0.0003161 0.0009539 -0.0000998 0.0001032 -0.0001076 0.0003581 0.0001423 0.0001240 0.0000379 0.0005488 -0.0000395 0.0004365 -0.0000964 0.0006819 -0.0000375 0.0003671 0.0000321 0.0004818 -0.0000335 0.0004008
-0.0008794 0.0015526 -0.0001214 0.0001730 -0.0001120 0.0004835 0.0001069 0.0000806 0.0000276 0.0003365 -0.0000517 0.0003936 -0.0001666 0.0005733 -0.0000668 0.0001951 0.0000137 0.0001279 -0.0001023 0.0000524
-0.0000998 0.0001841 -0.0001330 -0.0000807 -0.0001099 -0.0001088 0.0000857 -0.0006399 0.0000271 -0.0004611 -0.0000655 0.0000800 -0.0002109 0.0002324 -0.0000686 -0.0001916 0.0000080 -0.0004438 -0.0001305 -0.0003831
0.0001556 -0.0006532 -0.0001255 -0.0002739 -0.0000929 -0.0004324 0.0001245 -0.0008452 0.0000266 -0.0005381 -0.0000673 0.0000019 -0.0001626 0.0001344 -0.0000289 -0.0003178 0.0000168 -0.0004012 -0.0001087 -0.0003280
-0.0002841 -0.0004701 -0.0001065 -0.0002004 -0.0000958 -0.0001981 0.0001584 -0.0004843 0.0000290 -0.0001507 -0.0000609 0.0001403 -0.0001360 0.0002537 -0.0000010 -0.0003518 0.0000199 -0.0001499 -0.0001144 -0.0001315
0.0000232 -0.0002445 -0.0000910 -0.0000395 -0.0001226 0.0002059 0.0001670 0.0000781 0.0000339 0.0004606 -0.0000504 0.0004010 -0.0001532 0.0004536 -0.0000406 -0.0002100 0.0000157 0.0001003 -0.0001228 -0.0000554
0.0001735 -0.0005607 -0.0000912 -0.0000426 -0.0001191 0.0000675 0.0001503 -0.0001097 0.0000310 0.0002096 -0.0000511 0.0003132 -0.0001904 0.0002899 -0.0000554 -0.0003291 0.0000069 -0.0002276 -0.0001340 -0.0004259
0.0004469 -0.0011221 -0.0000805 -0.0002921 -0.0001201 -0.0005542 0.0001259 -0.0008116 0.0000298 -0.0005209 -0.0000516 -0.0000035 -0.0001946 -0.0000076 -0.0000214 -0.0006343 0.0000107 -0.0006310 -0.0000689 -0.0007058
-0.0005845 0.0001853 -0.0000413 -0.0003990 -0.0001258 -0.0006911 0.0001498 -0.0008495 0.0000355 -0.0004979 -0.0000400 -0.0000470 -0.0001302 -0.0000375 0.0000273 -0.0006319 0.0000290 -0.0005429 0.0000251 -0.0005955
-0.0008104 0.0003105 -0.0000070 -0.0002832 -0.0001157 -0.0003834 0.0001853 -0.0003967 0.0000378 -0.0000720 -0.0000392 0.0001064 -0.0000957 0.0001175 0.0000432 -0.0005309 0.0000347 -0.0002611 -0.0000546 -0.0002269
0.0000541 -0.0003309 0.0000104 -0.0000948 -0.0001098 0.0001288 0.0001832 0.0002328 0.0000279 0.0005859 -0.0000374 0.0003817 -0.0000986 0.0003123 -0.0000270 -0.0003893 0.0000248 0.0000699 -0.0000754 -0.0000439
-0.0000022 -0.0000159 0.0000054 -0.0000731 -0.0001027 0.0001278 0.0001341 0.0000792 0.0000098 0.0003717 -0.0000424 0.0003313 -0.0001265 0.0001208 -0.0000531 -0.0006022 0.0000159 -0.0002199 -0.0000778 -0.0003970
-0.0001229 -0.0003253 0.0000055 -0.0003212 -0.0001000 -0.0004315 0.0000982 -0.0006222 -0.0000001 -0.0003421 -0.0000522 0.0000542 -0.0001400 -0.0001989 -0.0000019 -0.0009598 0.0000177 -0.0006212 -0.0000936 -0.0006905
-0.0003259 -0.0007791 0.0000250 -0.0004402 -0.0000995 -0.0005915 0.0001145 -0.0006980 -0.0000004 -0.0003273 -0.0000449 0.0000172 -0.0001129 -0.0002036 0.0000752 -0.0009962 0.0000333 -0.0005031 -0.0000836 -0.0005663
-0.0003518 -0.0003836 0.0000407 -0.0003276 -0.0000985 -0.0002861 0.0001284 -0.0002801 -0.0000059 0.0000971 -0.0000431 0.0001640 -0.0000759 -0.0000361 0.0000899 -0.0007879 0.0000463 -0.0002094 -0.0000463 -0.0002771
0.0000270 -0.0002193 0.0000465 -0.0001476 -0.0001126 0.0002271 0.0001052 0.0003507 -0.0000255 0.0007444 -0.0000505 0.0004128 -0.0000763 0.0002305 0.0000591 -0.0005262 0.0000430 0.0000825 -0.0000307 -0.0001204
0.0000597 -0.0001374 0.0000361 -0.0001241 -0.0000993 0.0002431 0.0000752 0.0002071 -0.0000489 0.0005365 -0.0000561 0.0003522 -0.0000854 0.0000998 0.0000737 -0.0006343 0.0000334 -0.0001902 -0.0000731 -0.0004622
-0.0000862 -0.0002831 0.0000358 -0.0003267 -0.0000882 -0.0002266 0.0000517 -0.0004132 -0.0000653 -0.0001041 -0.0000583 0.0001115 -0.0000813 -0.0001971 0.0000948 -0.0008456 0.0000285 -0.0005149 -0.0000971 -0.0006199
-0.0001934 -0.0009049 0.0000442 -0.0003943 -0.0000836 -0.0002985 0.0000358 -0.0003861 -0.0000729 -0.0000598 -0.0000585 0.0001060 -0.0000895 -0.0001601 0.0000772 -0.0007920 0.0000285 -0.0003916 -0.0000827 -0.0003475
0.0001766 -0.0008986 0.0000543 -0.0002696 -0.0000880 0.0000266 0.0000395 -0.0000052 -0.0000822 0.0003196 -0.0000573 0.0002581 -0.0000986 -0.0000051 0.0000771 -0.0006535 0.0000271 -0.0001052 -0.0000509 -0.0000323
0.0003011 -0.0000712 0.0000520 -0.0000634 -0.0001063 0.0005297 0.0000312 0.0004895 -0.0000951 0.0006994 -0.0000572 0.0004142 -0.0001119 0.0000661 0.0000967 -0.0006307 0.0000225 -0.0001947 -0.0001041 -0.0001608
0.0002049 0.0002458 0.0000509 -0.0001686 -0.0000871 0.0002774 -0.0000275 0.0001304 -0.0001143 0.0002963 -0.0000568 0.0002920 -0.0001377 -0.0001683 0.0001013 -0.0008322 0.0000248 -0.0005165 -0.0000968 -0.0004241
-0.0003990 0.0001689 0.0000836 -0.0003838 -0.0000489 -0.0002128 -0.0000479 -0.0005025 -0.0001280 -0.0001553 -0.0000446 0.0001493 -0.0001313 -0.0003134 0.0001383 -0.0010253 0.0000378 -0.0004310 0.0000062 -0.0003518
-0.0000770 -0.0005269 0.0000989 -0.0003583 -0.0000267 -0.0000354 0.0000079 -0.0002774 -0.0001266 0.0001090 -0.0000224 0.0002639 -0.0000814 -0.0001174 0.0001437 -0.0008917 0.0000535 -0.0001682 -0.0000137 -0.0001002
0.0004972 -0.0011903 0.0000979 -0.0001885 -0.0000448 0.0003332 0.0000294 0.0002017 -0.0001367 0.0006308 -0.0000122 0.0005107 -0.0000322 0.0000920 0.0001033 -0.0005576 0.0000494 0.0002410 -0.0000681 0.0002910
-0.0001279 -0.0001641 0.0000943 -0.0000462 -0.0000443 0.0005857 -0.0000048 0.0003026 -0.0001434 0.0005729 -0.0000175 0.0005263 -0.0000326 -0.0000101 0.0001180 -0.0006029 0.0000339 0.0000083 -0.0001376 0.0000004
0.0001046 -0.0001960 0.0000875 -0.0002871 -0.0000390 0.0001036 -0.0000354 -0.0002646 -0.0001483 -0.0000599 -0.0000207 0.0002548 -0.0000070 -0.0002759 0.0001115 -0.0008471 0.0000305 -0.0005458 -0.0001563 -0.0005868
0.0007532 -0.0014448 0.0001071 -0.0005103 -0.0000590 -0.0004042 0.0000018 -0.0006152 -0.0001559 -0.0002683 -0.0000073 0.0001575 0.0000497 -0.0003072 0.0001253 -0.0008600 0.0000403 -0.0005287 -0.0000628 -0.0006978
0.0004220 -0.0012209 0.0001366 -0.0004750 -0.0000511 -0.0002730 0.0000543 -0.0003421 -0.0001551 -0.0000181 0.0000038 0.0002692 0.0000890 -0.0001599 0.0001605 -0.0007693 0.0000499 -0.0002721 0.0000048 -0.0004381
0.0001749 -0.0006584 0.0001520 -0.0003204 -0.0000345 0.0001555 0.0000635 0.0001534 -0.0001577 0.0004977 -0.0000071 0.0004855 0.0000628 0.0000813 0.0001184 -0.0005602 0.0000391 0.0000169 -0.0000642 -0.0002450
0.0002865 -0.0008203 0.0001451 -0.0003010 -0.0000229 0.0001462 0.0000488 0.0000105 -0.0001595 0.0002989 -0.0000187 0.0004242 0.0000119 -0.0000078 0.0001575 -0.0007078 0.0000216 -0.0002451 -0.0001800 -0.0004560
0.0001891 -0.0013556 0.0001436 -0.0005258 -0.0000126 -0.0003639 0.0000573 -0.0006286 -0.0001573 -0.0003011 -0.0000187 0.0001703 0.0000729 -0.0003281 0.0001751 -0.0009359 0.0000145 -0.0005791 -0.0001622 -0.0006417
-0.0000148 -0.0011867 0.0001654 -0.0006325 -0.0000083 -0.0004688 0.0001002 -0.0006900 -0.0001516 -0.0002896 -0.0000109 0.0001587 0.0001320 -0.0003436 0.0001713 -0.0008647 0.0000114 -0.0004164 -0.0001125 -0.0005164
0.0000541 -0.0011421 0.0001865 -0.0005183 0.0000032 -0.0001864 0.0001287 -0.0002978 -0.0001515 0.0000880 -0.0000117 0.0003177 0.0001444 -0.0001601 0.0001944 -0.0007099 0.0000073 -0.0000945 -0.0000451 -0.0002170
0.0000967 -0.0011486 0.0001746 -0.0003011 0.0000048 0.0002957 0.0001187 0.0002642 -0.0001545 0.0006960 -0.0000269 0.0005837 0.0001254 0.0001359 0.0001271 -0.0003901 -0.0000050 0.0002949 -0.0000762 0.0000741
0.0001283 -0.0010530 0.0001503 -0.0002275 0.0000249 0.0003920 0.0000961 0.0001998 -0.0001480 0.0005448 -0.0000474 0.0005671 0.0000636 0.0001280 0.0000917 -0.0003847 -0.0000297 0.0000831 -0.0001717 -0.0001881
0.0002856 -0.0015248 0.0001370 -0.0004360 0.0000115 -0.0000789 0.0000866 -0.0003777 -0.0001519 -0.0000527 -0.0000715 0.0003395 0.0000747 -0.0000714 0.0001150 -0.0005664 -0.0000440 -0.0002813 -0.0001887 -0.0005664
0.0007060 -0.0018171 0.0001382 -0.0005586 -0.0000081 -0.0002704 0.0001229 -0.0004991 -0.0001579 -0.0000542 -0.0000929 0.0003039 0.0000978 -0.0000080 0.0001578 -0.0005431 -0.0000483 -0.0001623 -0.0001777 -0.0004523
0.0009204 -0.0017559 0.0001381 -0.0004569 0.0000124 -0.0000461 0.0001610 -0.0001797 -0.0001538 0.0002737 -0.0001068 0.0004370 0.0001012 0.0001771 0.0001533 -0.0003673 -0.0000575 0.0001106 -0.0001627 -0.0001849
0.0007574 -0.0014418 0.0001243 -0.0002725 0.0000123 0.0003790 0.0001358 0.0004115 -0.0001627 0.0008189 -0.0001290 0.0006732 0.0000983 0.0004102 0.0000927 -0.0000561 -0.0000762 0.0002927 -0.0002647 -0.0001023
0.0006693 -0.0014661 0.0001032 -0.0002731 0.0000166 0.0002757 0.0001215 0.0002138 -0.0001756 0.0005694 -0.0001497 0.0005974 0.0000521 0.0003407 0.0000517 -0.0000657 -0.0001028 0.0000360 -0.0002679 -0.0003796
-0.0002040 -0.0010535 0.0000960 -0.0004926 0.0000168 -0.0002270 0.0001118 -0.0004306 -0.0001771 -0.0000339 -0.0001660 0.0003771 0.0000401 0.0001572 0.0000656 -0.0002970 -0.0001250 -0.0001511 -0.0002004 -0.0004778
-0.0005396 -0.0007867 0.0001041 -0.0005435 0.0000175 -0.0002391 0.0001198 -0.0003857 -0.0001707 0.0000630 -0.0001803 0.0004048 0.0000669 0.0001985 0.0000994 -0.0003296 -0.0001365 0.0000419 -0.0001757 -0.0003695
-0.0000404 -0.0011590 0.0001201 -0.0004036 0.0000264 0.0000875 0.0001646 0.0000056 -0.0001722 0.0004849 -0.0001976 0.0005745 0.0000248 0.0004661 0.0000928 -0.0001288 -0.0001458 0.0003899 -0.0001260 -0.0000523
0.0008495 -0.0017400 0.0001105 -0.0001673 0.0000263 0.0006388 0.0001619 0.0006209 -0.0001825 0.0011176 -0.0002155 0.0008600 -0.0000166 0.0008228 0.0000439 0.0001887 -0.0001551 0.0005286 -0.0002337 0.0000745
0.0012335 -0.0016925 0.0000902 -0.0001951 0.0000333 0.0004683 0.0001168 0.0003124 -0.0001841 0.0007244 -0.0002280 0.0007506 0.0000250 0.0006056 0.0000124 0.0000892 -0.0001746 0.0001525 -0.0003253 -0.0002940
0.0006463 -0.0016580 0.0001002 -0.0004823 0.0000557 -0.0002351 0.0001280 -0.0005419 -0.0001804 -0.0001022 -0.0002353 0.0004354 -0.0000064 0.0003268 0.0000079 -0.0001419 -0.0001931 -0.0001302 -0.0002846 -0.0004807
0.0004828 -0.0020473 0.0001228 -0.0005644 0.0000724 -0.0003450 0.0001735 -0.0005784 -0.0001732 -0.0000872 -0.0002487 0.0004232 -0.0000617 0.0004445 0.0000140 -0.0001115 -0.0001977 -0.0000106 -0.0002874 -0.0002899
0.0004989 -0.0019837 0.0001339 -0.0004178 0.0000845 -0.0000668 0.0001970 -0.0002078 -0.0001724 0.0002773 -0.0002591 0.0005574 -0.0000826 0.0006451 0.0000326 0.0000335 -0.0002047 0.0002727 -0.0002811 0.0000002
0.0005148 -0.0014323 0.0001119 -0.0001862 0.0000877 0.0003694 0.0001972 0.0003114 -0.0001911 0.0008379 -0.0002665 0.0007777 -0.0000849 0.0008481 -0.0000095 0.0002819 -0.0002220 0.0005761 -0.0002466 0.0000970
-0.0003227 -0.0000003 0.0000797 -0.0001671 0.0001102 0.0003122 0.0001573 0.0001774 -0.0002016 0.0005982 -0.0002852 0.0006921 -0.0001046 0.0007165 -0.0000332 0.0001680 -0.0002372 0.0002700 -0.0002963 -0.0001933
0.0005023 -0.0014611 0.0000734 -0.0004121 0.0001159 -0.0002465 0.0001341 -0.0005252 -0.0001973 -0.0001037 -0.0003043 0.0003968 -0.0001384 0.0004377 0.0000068 -0.0001462 -0.0002353 -0.0001704 -0.0002816 -0.0004828
0.0009187 -0.0022042 0.0000927 -0.0005205 0.0001098 -0.0004582 0.0001604 -0.0007091 -0.0001915 -0.0001697 -0.0003053 0.0003246 -0.0001019 0.0003858 0.0000152 -0.0001701 -0.0002245 -0.0001133 -0.0002400 -0.0003809
0.0005160 -0.0013183 0.0001090 -0.0004103 0.0001365 -0.0002605 0.0001628 -0.0003551 -0.0001896 0.0001623 -0.0002990 0.0004331 -0.0001086 0.0005475 -0.0000222 -0.0000119 -0.0002162 0.0001445 -0.0002991 -0.0000400
0.0009063 -0.0016503 0.0000984 -0.0002150 0.0001560 0.0001567 0.0001386 0.0002183 -0.0001999 0.0007320 -0.0003075 0.0006579 -0.0001978 0.0008257 -0.0000345 0.0002164 -0.0002096 0.0005542 -0.0003127 0.0003955
0.0001230 -0.0011454 0.0000591 0.0000115 0.0001463 0.0006795 0.0000930 0.0006693 -0.0002048 0.0009528 -0.0003140 0.0007636 -0.0002277 0.0008618 -0.0000240 0.0001678 -0.0002158 0.0003716 -0.0003391 0.0001619
0.0001090 -0.0016857 0.0000331 -0.0001544 0.0001353 0.0003032 0.0000519 0.0001706 -0.0002199 0.0004124 -0.0003258 0.0005438 -0.0002325 0.0006109 -0.0000115 -0.0001233 -0.0002162 -0.0001161 -0.0003792 -0.0003231
-0.0004021 -0.0015309 0.0000437 -0.0004413 0.0001476 -0.0003623 0.0000643 -0.0004570 -0.0002321 0.0000171 -0.0003267 0.0003386 -0.0002670 0.0004996 0.0000005 -0.0002853 -0.0001980 -0.0001425 -0.0003601 -0.0002946
-0.0002497 -0.0013900 0.0000719 -0.0004256 0.0001573 -0.0002559 0.0000875 -0.0002773 -0.0002206 0.0002204 -0.0003094 0.0003898 -0.0002461 0.0006206 -0.0000056 -0.0002121 -0.0001759 0.0000671 -0.0003531 -0.0000425
0.0009566 -0.0019181 0.0000766 -0.0002752 0.0001615 0.0001389 0.0001030 0.0001763 -0.0002212 0.0006899 -0.0002891 0.0005677 -0.0002052 0.0007532 0.0000067 0.0000226 -0.0001638 0.0004172 -0.0003321 0.0003148
0.0005607 -0.0012792 0.0000653 -0.0000536 0.0001531 0.0006837 0.0000886 0.0006377 -0.0002144 0.0009387 -0.0002733 0.0006727 -0.0002555 0.0008120 -0.0000175 0.0000765 -0.0001640 0.0002668 -0.0003140 0.0000510
-0.0000539 -0.0011847 0.0000585 -0.0001704 0.0001540 0.0003661 0.0000192 0.0003013 -0.0002191 0.0004393 -0.0002762 0.0004738 -0.0003186 0.0006633 -0.0000535 -0.0001483 -0.0001529 -0.0001410 -0.0003464 -0.0003030
0.0008053 -0.0022051 0.0000655 -0.0003811 0.0001600 -0.0001892 -0.0000022 -0.0001871 -0.0002406 0.0000451 -0.0002746 0.0002794 -0.0003135 0.0005182 -0.0000263 -0.0003129 -0.0001334 -0.0001548 -0.0003153 -0.0002374
0.0001498 -0.0012830 0.0000860 -0.0003369 0.0001565 -0.0000520 0.0000156 -0.0000068 -0.0002424 0.0002537 -0.0002607 0.0003459 -0.0002763 0.0005831 -0.0000238 -0.0002800 -0.0001148 0.0000528 -0.0003081 -0.0000023
-0.0003668 -0.0005907 0.0000903 -0.0001884 0.0001568 0.0003185 0.0000183 0.0004679 -0.0002399 0.0007550 -0.0002451 0.0005632 -0.0002755 0.0007841 -0.0000489 -0.0000652 -0.0001090 0.0003574 -0.0003284 0.0002565
0.0000351 -0.0012264 0.0000811 -0.0001301 0.0001618 0.0003681 0.0000043 0.0004022 -0.0002327 0.0005578 -0.0002339 0.0005009 -0.0003470 0.0007502 0.0000139 -0.0001658 -0.0001054 0.0000808 -0.0003838 0.0000322
-0.0003202 -0.0012651 0.0000876 -0.0003367 0.0001707 -0.0001369 -0.0000199 -0.0002269 -0.0002189 -0.0001362 -0.0002218 0.0002105 -0.0003299 0.0004543 0.0000560 -0.0004763 -0.0000890 -0.0003223 -0.0003621 -0.0002859
0.0000004 -0.0014415 0.0001057 -0.0004567 0.0001682 -0.0003337 -0.0000119 -0.0003556 -0.0002019 -0.0001766 -0.0001924 0.0001487 -0.0002476 0.0003764 0.0000752 -0.0004907 -0.0000626 -0.0002418 -0.0002202 -0.0002814
-0.0007500 -0.0007641 0.0001186 -0.0003506 0.0001863 -0.0000992 0.0000014 0.0000107 -0.0001847 0.0002058 -0.0001627 0.0002835 -0.0002142 0.0004982 0.0001067 -0.0003290 -0.0000467 0.0000294 -0.0002739 0.0000543
-0.0007792 0.0001963 0.0001177 -0.0001534 0.0001910 0.0003615 0.0000129 0.0005840 -0.0001780 0.0008286 -0.0001465 0.0005404 -0.0001757 0.0007051 0.0001230 -0.0000827 -0.0000500 0.0003882 -0.0003414 0.0003665
0.0000678 -0.0000567 0.0001048 -0.0000930 0.0001835 0.0004202 -0.0000014 0.0004805 -0.0001698 0.0005660 -0.0001388 0.0004560 -0.0002129 0.0006299 0.0001546 -0.0001869 -0.0000465 0.0000459 -0.0002747 -0.0000398
0.0011527 -0.0020975 0.0001033 -0.0003266 0.0001916 -0.0001963 -0.0000234 -0.0002628 -0.0001557 -0.0002590 -0.0001284 0.0001045 -0.0002186 0.0002414 0.0001440 -0.0004749 -0.0000353 -0.0004794 -0.0001964 -0.0005388
0.0012486 -0.0028348 0.0001118 -0.0004733 0.0001947 -0.0005287 0.0000066 -0.0005527 -0.0001327 -0.0003901 -0.0001025 -0.0000128 -0.0001314 0.0000748 0.0001535 -0.0005308 -0.0000146 -0.0004419 -0.0001535 -0.0004770
0.0006259 -0.0014622 0.0001231 -0.0003637 0.0002062 -0.0003411 0.0000443 -0.0002688 -0.0001071 -0.0000779 -0.0000737 0.0000754 -0.0000875 0.0002007 0.0001687 -0.0004158 0.0000046 -0.0001882 -0.0001688 -0.0001960
0.0009539 -0.0013731 0.0001278 -0.0001659 0.0002126 0.0000776 0.0000475 0.0003109 -0.0000994 0.0004520 -0.0000560 0.0002812 -0.0000893 0.0004489 0.0001489 -0.0002039 0.0000137 0.0001875 -0.0001538 0.0001194
0.0001765 -0.0010594 0.0001129 0.0000192 0.0002123 0.0004675 0.0000299 0.0005528 -0.0000903 0.0004611 -0.0000476 0.0003036 -0.0001071 0.0004154 0.0001871 -0.0002897 0.0000106 -0.0000545 -0.0001656 -0.0001719
-0.0007541 0.0000232 0.0000962 -0.0001451 0.0002065 -0.0000014 0.0000181 -0.0000310 -0.0000741 -0.0001640 -0.0000463 0.0000334 -0.0000658 0.0000648 0.0002324 -0.0006000 0.0000078 -0.0005479 -0.0002059 -0.0005988
0.0002177 -0.0011594 0.0001028 -0.0003754 0.0001940 -0.0005852 0.0000355 -0.0005143 -0.0000582 -0.0004322 -0.0000295 -0.0001364 -0.0000376 -0.0000873 0.0002628 -0.0007259 0.0000226 -0.0005206 -0.0002561 -0.0004238
-0.0000236 -0.0010256 0.0001154 -0.0002998 0.0002049 -0.0004190 0.0000426 -0.0002491 -0.0000491 -0.0001361 -0.0000077 -0.0000564 -0.0000345 0.0000021 0.0002593 -0.0006155 0.0000387 -0.0002282 -0.0002494 -0.0001328
-0.0003289 -0.0002518 0.0000938 -0.0000870 0.0002104 0.0000480 0.0000285 0.0003440 -0.0000538 0.0004352 -0.0000014 0.0001641 -0.0000041 0.0002025 0.0002138 -0.0003796 0.0000384 0.0001802 -0.0001707 0.0001952
0.0005965 -0.0007000 0.0000524 0.0001849 0.0001759 0.0006933 0.0000045 0.0010160 -0.0000636 0.0009810 -0.0000002 0.0003749 -0.0000376 0.0003615 0.0002179 -0.0003338 0.0000262 0.0001078 -0.0001887 0.0000255
0.0005191 -0.0007022 0.0000358 0.0000893 0.0001736 0.0003843 -0.0000308 0.0006135 -0.0000746 0.0004855 -0.0000063 0.0001869 -0.0000568 0.0001351 0.0002061 -0.0005550 0.0000133 -0.0003074 -0.0001694 -0.0004620
0.0000801 -0.0011880 0.0000318 -0.0001764 0.0001821 -0.0003117 -0.0000286 -0.0001371 -0.0000724 -0.0002168 -0.0000001 -0.0000911 -0.0000491 -0.0000820 0.0001922 -0.0007112 0.0000105 -0.0003908 -0.0001639 -0.0004115
-0.0006794 -0.0003729 0.0000273 -0.0001609 0.0001795 -0.0002480 -0.0000080 -0.0000213 -0.0000666 -0.0000752 0.0000235 -0.0000778 -0.0000424 -0.0000140 0.0002140 -0.0006774 0.0000251 -0.0002123 -0.0001913 -0.0001270
-0.0005237 0.0002196 0.0000161 0.0000107 0.0001791 0.0001148 -0.0000077 0.0004307 -0.0000667 0.0003560 0.0000381 0.0000760 -0.0000224 0.0001622 0.0002077 -0.0004649 0.0000273 0.0001079 -0.0002480 0.0002228
0.0003850 -0.0000988 -0.0000010 0.0001920 0.0001721 0.0005222 -0.0000331 0.0007443 -0.0000606 0.0004408 0.0000404 0.0001273 -0.0000290 0.0001680 0.0002223 -0.0004698 0.0000173 -0.0000561 -0.0002434 -0.0000027
0.0004600 -0.0007203 -0.0000057 0.0000597 0.0001630 0.0002043 -0.0000657 0.0003259 -0.0000579 -0.0000584 0.0000381 -0.0000764 0.0000123 -0.0001410 0.0002270 -0.0007010 0.0000181 -0.0004190 -0.0001112 -0.0004098
0.0001107 -0.0015356 -0.0000078 -0.0000908 0.0001427 -0.0001984 -0.0000801 0.0000114 -0.0000581 -0.0002332 0.0000407 -0.0001776 0.0000467 -0.0002389 0.0002148 -0.0007481 0.0000229 -0.0003542 -0.0000787 -0.0002871
0.0000186 -0.0012572 -0.0000022 0.0000095 0.0001278 0.0000232 -0.0000863 0.0003163 -0.0000541 0.0000845 0.0000542 -0.0000627 0.0000587 -0.0001028 0.0002398 -0.0006367 0.0000338 -0.0001066 -0.0001576 0.0000075
-0.0004080 -0.0001338 -0.0000148 0.0001995 0.0001128 0.0004691 -0.0000967 0.0008729 -0.0000603 0.0006571 0.0000702 0.0001626 0.0000459 0.0001575 0.0002205 -0.0004049 0.0000371 0.0001780 -0.0002196 0.0001545
-0.0003736 0.0005312 -0.0000378 0.0002251 0.0001192 0.0004190 -0.0001252 0.0007372 -0.0000587 0.0003601 0.0000704 0.0000577 0.0000157 0.0000761 0.0002178 -0.0005610 0.0000285 -0.0001498 -0.0002283 -0.0002105
0.0006816 -0.0008650 -0.0000393 -0.0000149 0.0001212 -0.0001895 -0.0001478 -0.0000098 -0.0000429 -0.0004654 0.0000777 -0.0002922 0.0000172 -0.0002786 0.0002598 -0.0008841 0.0000310 -0.0005751 -0.0001789 -0.0005396
0.0002968 -0.0009419 -0.0000308 -0.0001140 0.0001167 -0.0003782 -0.0001434 -0.0001482 -0.0000290 -0.0005274 0.0000997 -0.0003835 0.0000359 -0.0003165 0.0002582 -0.0008650 0.0000464 -0.0004918 -0.0000676 -0.0005150
-0.0003776 -0.0003642 -0.0000181 -0.0000170 0.0001252 -0.0001525 -0.0001178 0.0001817 -0.0000130 -0.0001950 0.0001216 -0.0002834 0.0000667 -0.0001639 0.0002644 -0.0007195 0.0000660 -0.0002427 -0.0001112 -0.0002061
-0.0004253 -0.0001141 -0.0000245 0.0001738 0.0001131 0.0003010 -0.0000990 0.0007219 -0.0000092 0.0003428 0.0001396 -0.0000822 0.0000782 0.0000266 0.0002604 -0.0005557 0.0000746 -0.0001672 -0.0001670 -0.0002558
-0.0009899 0.0005465 -0.0000400 0.0001364 0.0001153 0.0001246 -0.0001080 0.0004540 -0.0000005 -0.0000196 0.0001410 -0.0002408 0.0000708 -0.0001492 0.0002437 -0.0006976 0.0000658 -0.0005152 -0.0002633 -0.0006232
-0.0004005 -0.0007440 -0.0000225 -0.0001341 0.0001315 -0.0005131 -0.0001122 -0.0002923 0.0000282 -0.0007978 0.0001467 -0.0005735 0.0000891 -0.0004897 0.0003217 -0.0010100 0.0000661 -0.0007501 -0.0002851 -0.0007209
-0.0004002 -0.0011637 0.0000084 -0.0002020 0.0001409 -0.0006131 -0.0000773 -0.0003618 0.0000546 -0.0008105 0.0001740 -0.0006240 0.0001400 -0.0005631 0.0003675 -0.0010038 0.0000811 -0.0006316 -0.0001226 -0.0006629
-0.0004620 -0.0006857 0.0000163 -0.0000578 0.0001467 -0.0003410 -0.0000232 -0.0000400 0.0000732 -0.0004629 0.0001940 -0.0005066 0.0001424 -0.0004160 0.0003790 -0.0008579 0.0000909 -0.0003393 -0.0000636 -0.0003758
0.0003602 -0.0011615 0.0000016 0.0001706 0.0001358 0.0001534 -0.0000035 0.0005157 0.0000753 0.0001183 0.0002003 -0.0002803 0.0001343 -0.0001716 0.0003772 -0.0006891 0.0000952 -0.0002059 -0.0000732 -0.0004004
0.0001693 -0.0012079 -0.0000150 0.0001356 0.0001324 0.0000354 -0.0000234 0.0002800 0.0000762 -0.0001667 0.0001963 -0.0003988 0.0001562 -0.0003704 0.0003481 -0.0007783 0.0000819 -0.0004778 -0.0001369 -0.0006978
-0.0007565 -0.0006754 -0.0000062 -0.0001079 0.0001300 -0.0005080 -0.0000337 -0.0004088 0.0000878 -0.0008529 0.0001980 -0.0006912 0.0001970 -0.0007011 0.0003362 -0.0009699 0.0000714 -0.0006455 -0.0001974 -0.0006862
-0.0007607 -0.0009658 0.0000035 -0.0001330 0.0001281 -0.0005484 -0.0000181 -0.0004300 0.0001006 -0.0008072 0.0002178 -0.0007107 0.0002316 -0.0006516 0.0003344 -0.0009264 0.0000782 -0.0004782 -0.0001202 -0.0005533
-0.0005438 -0.0005753 0.0000047 0.0000117 0.0001268 -0.0002424 0.0000248 -0.0000828 0.0001046 -0.0004308 0.0002287 -0.0005688 0.0002352 -0.0004768 0.0003520 -0.0007747 0.0000797 -0.0001834 -0.0000606 -0.0003229
-0.0006915 0.0004843 -0.0000094 0.0002173 0.0001182 0.0002403 0.0000555 0.0004465 0.0001012 0.0001093 0.0002308 -0.0003464 0.0002336 -0.0002839 0.0003196 -0.0005788 0.0000692 -0.0001090 -0.0001866 -0.0002989
-0.0003267 0.0002035 -0.0000194 0.0001859 0.0001250 0.0001045 0.0000301 0.0002506 0.0001037 -0.0001852 0.0002269 -0.0004568 0.0002497 -0.0004524 0.0003036 -0.0006898 0.0000486 -0.0003623 -0.0002169 -0.0005592
-0.0001356 -0.0006078 -0.0000052 -0.0000034 0.0001401 -0.0003941 0.0000357 -0.0003407 0.0001135 -0.0007741 0.0002325 -0.0007039 0.0002806 -0.0007291 0.0002927 -0.0007790 0.0000380 -0.0004610 -0.0001998 -0.0005896
0.0000881 -0.0007852 -0.0000019 0.0000143 0.0001467 -0.0004067 0.0000744 -0.0003617 0.0001276 -0.0007060 0.0002428 -0.0006846 0.0002945 -0.0006676 0.0002916 -0.0007073 0.0000368 -0.0002805 -0.0001810 -0.0004162
-0.0001630 -0.0001734 -0.0000097 0.0001629 0.0001360 -0.0000992 0.0001028 -0.0000004 0.0001343 -0.0003306 0.0002446 -0.0005226 0.0002985 -0.0004388 0.0003099 -0.0005802 0.0000303 0.0000701 -0.0000710 -0.0001832
-0.0004379 0.0000724 -0.0000272 0.0003722 0.0001286 0.0003114 0.0001029 0.0003046 0.0001470 -0.0002263 0.0002486 -0.0004679 0.0003225 -0.0003617 0.0002798 -0.0004778 0.0000237 -0.0000983 -0.0001791 -0.0005227
0.0001720 -0.0006984 -0.0000561 0.0002068 0.0000981 -0.0000810 0.0000842 -0.0001041 0.0001816 -0.0006971 0.0002802 -0.0006038 0.0002892 -0.0005766 0.0001956 -0.0007965 0.0000189 -0.0005679 -0.0002705 -0.0010052
0.0005831 -0.0015174 -0.0000611 -0.0000813 0.0000911 -0.0007453 0.0001131 -0.0005599 0.0002279 -0.0009201 0.0003382 -0.0006070 0.0002413 -0.0008240 0.0000691 -0.0012034 0.0000042 -0.0005984 -0.0002478 -0.0009184
0.0007227 -0.0017484 -0.0000381 -0.0000208 0.0001180 -0.0007452 0.0001059 -0.0004158 0.0002686 -0.0007159 0.0003750 -0.0004560 0.0002384 -0.0009031 -0.0000055 -0.0013365 -0.0000121 -0.0003997 -0.0002761 -0.0006531
0.0001108 -0.0010177 -0.0000262 0.0001634 0.0001180 -0.0004450 0.0001477 -0.0000680 0.0002874 -0.0003273 0.0003791 -0.0002922 0.0002338 -0.0007018 0.0000167 -0.0011620 -0.0000206 -0.0001417 -0.0002049 -0.0005284
0.0000970 -0.0005655 -0.0000246 0.0002250 0.0001288 -0.0004395 0.0002163 -0.0001872 0.0002983 -0.0004705 0.0003745 -0.0004273 0.0002812 -0.0007086 0.0000795 -0.0011259 -0.0000259 -0.0003615 -0.0001776 -0.0008032
0.0003319 -0.0007589 -0.0000229 0.0000586 0.0001219 -0.0008387 0.0002394 -0.0007028 0.0003204 -0.0009667 0.0003747 -0.0007082 0.0003301 -0.0009500 0.0000728 -0.0012557 -0.0000308 -0.0006555 -0.0002455 -0.0009067
-0.0001930 -0.0005051 -0.0000170 0.0000111 0.0001185 -0.0009208 0.0002845 -0.0007748 0.0003497 -0.0009707 0.0003788 -0.0007195 0.0002980 -0.0009292 0.0000590 -0.0012687 -0.0000307 -0.0005801 -0.0003024 -0.0007632
-0.0002401 -0.0003210 -0.0000196 0.0001608 0.0001185 -0.0006783 0.0003108 -0.0004339 0.0003584 -0.0006555 0.0003891 -0.0005791 0.0002286 -0.0007011 0.0000754 -0.0012220 -0.0000221 -0.0003855 -0.0002763 -0.0006269
0.0001935 -0.0009597 -0.0000406 0.0003257 0.0000911 -0.0002580 0.0003149 0.0000800 0.0003605 -0.0002450 0.0003931 -0.0004021 0.0002433 -0.0005814 0.0000928 -0.0011828 -0.0000200 -0.0004162 -0.0002767 -0.0007553
0.0001810 -0.0013417 -0.0000556 0.0002541 0.0000791 -0.0003742 0.0002965 -0.0000910 0.0003559 -0.0004769 0.0003801 -0.0004906 0.0002801 -0.0007248 0.0000873 -0.0013271 -0.0000249 -0.0007064 -0.0002981 -0.0011390
-0.0005601 -0.0004599 -0.0000662 0.0000782 0.0000588 -0.0008100 0.0002864 -0.0005882 0.0003427 -0.0008757 0.0003630 -0.0006627 0.0002828 -0.0008013 0.0000388 -0.0013573 -0.0000206 -0.0007706 -0.0003216 -0.0012434
-0.0001570 -0.0006067 -0.0000770 0.0000736 0.0000415 -0.0007856 0.0002944 -0.0005184 0.0003443 -0.0007870 0.0003567 -0.0006256 0.0002751 -0.0006529 0.0000331 -0.0012387 -0.0000097 -0.0006478 -0.0003464 -0.0010986
0.0006985 -0.0010073 -0.0000923 0.0001661 0.0000171 -0.0005639 0.0002972 -0.0002459 0.0003416 -0.0005541 0.0003573 -0.0004993 0.0002414 -0.0004305 0.0000523 -0.0011216 0.0000062 -0.0005840 -0.0003926 -0.0010854
0.0006934 -0.0016125 -0.0001296 0.0000684 0.0000005 -0.0006238 0.0002735 -0.0003188 0.0003310 -0.0006921 0.0003398 -0.0005515 0.0002026 -0.0004863 0.0000633 -0.0011987 0.0000107 -0.0008001 -0.0003403 -0.0013670
0.0002500 -0.0017260 -0.0001615 -0.0001506 -0.0000145 -0.0009360 0.0002298 -0.0006766 0.0003238 -0.0010402 0.0003201 -0.0007284 0.0002178 -0.0006232 0.0000640 -0.0013037 0.0000120 -0.0009784 -0.0002117 -0.0015680
-0.0004779 -0.0004535 -0.0001736 -0.0001564 -0.0000380 -0.0009624 0.0002003 -0.0006411 0.0003189 -0.0010011 0.0003114 -0.0007283 0.0002211 -0.0004592 0.0000497 -0.0011608 0.0000228 -0.0009070 -0.0002901 -0.0014229
-0.0009781 0.0003828 -0.0001860 -0.0000153 -0.0000648 -0.0007498 0.0002123 -0.0003051 0.0003164 -0.0007487 0.0002957 -0.0006212 0.0001989 -0.0001361 0.0000787 -0.0009648 0.0000284 -0.0007400 -0.0002964 -0.0013619
0.0000634 -0.0004953 -0.0002063 0.0000219 -0.0000736 -0.0006948 0.0002209 -0.0002231 0.0003094 -0.0007848 0.0002818 -0.0006471 0.0002396 -0.0001391 0.0001128 -0.0010032 0.0000310 -0.0009112 -0.0002007 -0.0017004
0.0009547 -0.0023371 -0.0002128 -0.0001773 -0.0000604 -0.0009614 0.0002204 -0.0005077 0.0003036 -0.0011186 0.0002705 -0.0008153 0.0002637 -0.0003501 0.0001229 -0.0012264 0.0000409 -0.0012163 -0.0003112 -0.0018492
0.0002964 -0.0019553 -0.0002039 -0.0002964 -0.0000833 -0.0010700 0.0002327 -0.0005414 0.0003056 -0.0011408 0.0002631 -0.0008469 0.0002759 -0.0002755 0.0001506 -0.0012395 0.0000557 -0.0011694 -0.0003517 -0.0018267
-0.0005460 -0.0009949 -0.0001986 -0.0001850 -0.0000891 -0.0008800 0.0002472 -0.0002426 0.0002944 -0.0008786 0.0002417 -0.0007796 0.0002777 0.0000095 0.0001537 -0.0009348 0.0000789 -0.0009262 -0.0002896 -0.0016310
-0.0011576 -0.0004256 -0.0001991 -0.0000419 -0.0000922 -0.0006255 0.0002349 -0.0000536 0.0002773 -0.0007707 0.0002001 -0.0008123 0.0002555 0.0002129 0.0001876 -0.0006488 0.0000955 -0.0009488 -0.0003521 -0.0016357
-0.0015152 -0.0002681 -0.0002114 -0.0001523 -0.0001168 -0.0007875 0.0001769 -0.0002885 0.0002554 -0.0010095 0.0001634 -0.0009925 0.0002154 0.0001135 0.0002118 -0.0005988 0.0001078 -0.0012097 -0.0003187 -0.0019437
-0.0010506 -0.0010190 -0.0002131 -0.0002998 -0.0001339 -0.0010535 0.0001577 -0.0005071 0.0002313 -0.0011165 0.0001387 -0.0010734 0.0001811 0.0001120 0.0002067 -0.0005126 0.0001242 -0.0011959 -0.0002446 -0.0019350
-0.0001529 -0.0015625 -0.0001991 -0.0002211 -0.0001377 -0.0009280 0.0001641 -0.0003642 0.0002106 -0.0009390 0.0001260 -0.0009814 0.0001599 0.0002795 0.0002256 -0.0003890 0.0001292 -0.0010099 -0.0002152 -0.0017863
0.0000680 -0.0013940 -0.0002007 -0.0000445 -0.0001551 -0.0006317 0.0001207 0.0000272 0.0001900 -0.0006621 0.0001119 -0.0008503 0.0001271 0.0003979 0.0002431 -0.0003523 0.0001235 -0.0010016 -0.0002236 -0.0018158
0.0000660 -0.0014193 -0.0002167 -0.0000803 -0.0001648 -0.0007038 0.0000694 -0.0000880 0.0001660 -0.0008138 0.0000834 -0.0008949 0.0000522 0.0003384 0.0002177 -0.0004993 0.0001002 -0.0011909 -0.0001870 -0.0020649
0.0007906 -0.0020225 -0.0002353 -0.0002342 -0.0001664 -0.0010197 0.0000571 -0.0004651 0.0001362 -0.0010971 0.0000624 -0.0009875 -0.0000213 0.0002525 0.0001295 -0.0006022 0.0000837 -0.0012346 -0.0000845 -0.0022179
0.0009234 -0.0018425 -0.0002547 -0.0001866 -0.0001679 -0.0009619 0.0000542 -0.0002855 0.0001136 -0.0009792 0.0000499 -0.0009080 -0.0000522 0.0003258 0.0000531 -0.0005933 0.0000725 -0.0011127 -0.0001389 -0.0020904
0.0005658 -0.0014588 -0.0002641 -0.0000264 -0.0001734 -0.0006990 0.0000268 0.0000980 0.0000797 -0.0006500 0.0000351 -0.0007117 -0.0001070 0.0005398 0.0000089 -0.0005875 0.0000706 -0.0009876 -0.0002238 -0.0020073
0.0003068 -0.0007524 -0.0002606 0.0000215 -0.0002047 -0.0007128 -0.0000239 -0.0000062 0.0000521 -0.0007094 0.0000275 -0.0006779 -0.0001518 0.0004689 -0.0000473 -0.0007214 0.0000620 -0.0011619 -0.0002306 -0.0022337
-0.0000275 -0.0007379 -0.0002725 -0.0001107 -0.0002318 -0.0010654 -0.0000882 -0.0004739 0.0000284 -0.0010707 0.0000198 -0.0007931 -0.0002004 0.0002070 -0.0001025 -0.0009087 0.0000516 -0.0013398 -0.0002828 -0.0023070
-0.0001088 -0.0015064 -0.0002727 -0.0001411 -0.0002456 -0.0011710 -0.0001187 -0.0005273 0.0000002 -0.0010787 0.0000057 -0.0007499 -0.0002678 0.0002322 -0.0001489 -0.0008889 0.0000585 -0.0012193 -0.0002086 -0.0021649
0.0001044 -0.0016396 -0.0002751 0.0000110 -0.0002702 -0.0009938 -0.0001404 -0.0002467 -0.0000367 -0.0008758 -0.0000074 -0.0005754 -0.0003140 0.0004180 -0.0002078 -0.0007635 0.0000495 -0.0009600 -0.0001262 -0.0018903
0.0009032 -0.0021143 -0.0003023 0.0002550 -0.0002847 -0.0006384 -0.0001907 0.0001773 -0.0000606 -0.0006994 -0.0000179 -0.0004187 -0.0003880 0.0005145 -0.0002287 -0.0007822 0.0000257 -0.0010025 -0.0001908 -0.0019116
0.0008785 -0.0020635 -0.0003220 0.0001674 -0.0002864 -0.0007873 -0.0002312 -0.0000144 -0.0000627 -0.0009278 -0.0000254 -0.0004871 -0.0004592 0.0003643 -0.0002207 -0.0009844 0.0000047 -0.0013018 -0.0002624 -0.0021412
0.0002670 -0.0015060 -0.0003285 -0.0000485 -0.0003002 -0.0012028 -0.0002558 -0.0003884 -0.0000747 -0.0011091 -0.0000415 -0.0005655 -0.0004973 0.0002963 -0.0002271 -0.0010429 -0.0000112 -0.0012908 -0.0002835 -0.0021369
-0.0002995 -0.0007860 -0.0003313 0.0000106 -0.0003001 -0.0010346 -0.0002569 -0.0001310 -0.0000703 -0.0008140 -0.0000681 -0.0004704 -0.0005086 0.0003951 -0.0002441 -0.0009404 -0.0000196 -0.0010641 -0.0002883 -0.0019161
-0.0008594 -0.0004498 -0.0003522 0.0001925 -0.0003078 -0.0006437 -0.0002706 0.0003085 -0.0000732 -0.0003256 -0.0000880 -0.0002901 -0.0005135 0.0005795 -0.0002258 -0.0007711 -0.0000274 -0.0007300 -0.0002990 -0.0015520
-0.0005286 0.0000977 -0.0003842 0.0003626 -0.0003273 -0.0003475 -0.0003394 0.0005150 -0.0000837 -0.0001992 -0.0001037 -0.0002326 -0.0005350 0.0005831 -0.0002386 -0.0007288 -0.0000510 -0.0007935 -0.0003157 -0.0017174
-0.0001624 0.0003500 -0.0004178 0.0002786 -0.0003439 -0.0005385 -0.0004111 0.0002751 -0.0001056 -0.0004731 -0.0001291 -0.0003537 -0.0005519 0.0003956 -0.0003304 -0.0007977 -0.0000699 -0.0010947 -0.0003100 -0.0020480
-0.0010058 -0.0001110 -0.0004320 0.0001880 -0.0003754 -0.0007786 -0.0004577 0.0001655 -0.0001304 -0.0005267 -0.0001380 -0.0003808 -0.0005761 0.0003890 -0.0003709 -0.0008249 -0.0000831 -0.0010417 -0.0003104 -0.0019117
-0.0005908 -0.0006707 -0.0004388 0.0003100 -0.0004070 -0.0006067 -0.0004808 0.0004127 -0.0001416 -0.0002844 -0.0001355 -0.0002755 -0.0006068 0.0005454 -0.0003424 -0.0007931 -0.0000989 -0.0008175 -0.0004203 -0.0015869
-0.0000501 -0.0003914 -0.0004727 0.0005015 -0.0004354 -0.0002564 -0.0005200 0.0008230 -0.0001573 0.0000572 -0.0001390 -0.0001504 -0.0006074 0.0006592 -0.0003369 -0.0006712 -0.0001158 -0.0008095 -0.0004233 -0.0017155
-0.0006220 0.0003633 -0.0005182 0.0004622 -0.0004412 -0.0003362 -0.0005730 0.0007483 -0.0001739 -0.0001076 -0.0001508 -0.0002114 -0.0006036 0.0005355 -0.0003636 -0.0007149 -0.0001366 -0.0010097 -0.0004894 -0.0019163
-0.0006270 -0.0002243 -0.0005368 0.0002903 -0.0004478 -0.0006480 -0.0006253 0.0004493 -0.0001921 -0.0004105 -0.0001709 -0.0003193 -0.0006484 0.0004493 -0.0003225 -0.0008260 -0.0001475 -0.0010170 -0.0005510 -0.0018562
-0.0006921 -0.0003550 -0.0005447 0.0003424 -0.0004859 -0.0005499 -0.0006750 0.0006522 -0.0002062 -0.0002379 -0.0001695 -0.0002655 -0.0006279 0.0005367 -0.0003854 -0.0006366 -0.0001567 -0.0008344 -0.0004506 -0.0018197
-0.0006385 0.0002753 -0.0005771 0.0005471 -0.0005224 -0.0002308 -0.0006973 0.0010747 -0.0002210 0.0001152 -0.0001718 -0.0001198 -0.0006089 0.0007412 -0.0004778 -0.0003550 -0.0001706 -0.0006386 -0.0004779 -0.0018111
-0.0011637 0.0009999 -0.0006136 0.0005745 -0.0005320 -0.0002017 -0.0007394 0.0010722 -0.0002279 0.0000047 -0.0001767 -0.0001605 -0.0006668 0.0007236 -0.0004723 -0.0004439 -0.0001925 -0.0008209 -0.0005158 -0.0020222
-0.0015985 0.0008324 -0.0006327 0.0003769 -0.0005456 -0.0005351 -0.0007854 0.0006865 -0.0002286 -0.0004156 -0.0001687 -0.0003686 -0.0006681 0.0004642 -0.0004619 -0.0007020 -0.0002045 -0.0010714 -0.0005266 -0.0021016
-0.0012541 0.0003304 -0.0006418 0.0003581 -0.0005649 -0.0005882 -0.0008070 0.0006983 -0.0002286 -0.0003889 -0.0001534 -0.0004013 -0.0006146 0.0004254 -0.0004520 -0.0007136 -0.0002014 -0.0009927 -0.0005486 -0.0019671
-0.0009822 0.0002971 -0.0006416 0.0005162 -0.0005626 -0.0003342 -0.0008021 0.0010464 -0.0002303 -0.0000858 -0.0001355 -0.0002891 -0.0006053 0.0006052 -0.0004821 -0.0005462 -0.0001978 -0.0007675 -0.0005390 -0.0017727
-0.0012230 0.0005090 -0.0006522 0.0006545 -0.0005583 -0.0000912 -0.0008272 0.0012820 -0.0002217 -0.0000202 -0.0001251 -0.0002641 -0.0005437 0.0005508 -0.0004773 -0.0005403 -0.0001976 -0.0008351 -0.0004998 -0.0019285
-0.0010148 0.0006511 -0.0006678 0.0005714 -0.0005664 -0.0002491 -0.0008788 0.0010859 -0.0002158 -0.0002574 -0.0001112 -0.0003876 -0.0005043 0.0003247 -0.0004644 -0.0007057 -0.0002028 -0.0010381 -0.0004376 -0.0021627
0.0001184 -0.0000400 -0.0006619 0.0004656 -0.0005806 -0.0004055 -0.0008919 0.0009653 -0.0002186 -0.0002611 -0.0000889 -0.0004194 -0.0005499 0.0003651 -0.0004417 -0.0007831 -0.0001913 -0.0009469 -0.0004980 -0.0019977
-0.0009244 0.0009661 -0.0006479 0.0005623 -0.0005845 -0.0001923 -0.0009041 0.0012154 -0.0002157 0.0000082 -0.0000636 -0.0003036 -0.0005369 0.0004807 -0.0004623 -0.0006117 -0.0001752 -0.0006759 -0.0005086 -0.0017168
-0.0022955 0.0024212 -0.0006681 0.0007658 -0.0006045 0.0002109 -0.0009428 0.0016608 -0.0002113 0.0003657 -0.0000515 -0.0001794 -0.0005466 0.0005530 -0.0004778 -0.0004969 -0.0001718 -0.0006468 -0.0004842 -0.0017659
-0.0016038 0.0012670 -0.0006869 0.0007413 -0.0006214 0.0001165 -0.0009849 0.0014940 -0.0002171 0.0002275 -0.0000547 -0.0002540 -0.0005318 0.0004168 -0.0004876 -0.0006417 -0.0001675 -0.0008542 -0.0004518 -0.0019874
-0.0004913 0.0000599 -0.0006730 0.0005904 -0.0006120 -0.0001787 -0.0010056 0.0011442 -0.0002264 -0.0000057 -0.0000396 -0.0003348 -0.0004864 0.0002383 -0.0005135 -0.0007526 -0.0001669 -0.0008018 -0.0003927 -0.0018866
-0.0007395 0.0009530 -0.0006559 0.0006510 -0.0005892 -0.0000047 -0.0010187 0.0013357 -0.0002288 0.0001880 -0.0000134 -0.0002490 -0.0005165 0.0002801 -0.0005113 -0.0006822 -0.0001749 -0.0005958 -0.0004470 -0.0015722
-0.0013394 0.0019932 -0.0006418 0.0007905 -0.0005764 0.0003415 -0.0010264 0.0016946 -0.0002309 0.0004987 -0.0000004 -0.0001374 -0.0005008 0.0002856 -0.0005095 -0.0006284 -0.0001711 -0.0006194 -0.0004876 -0.0015710
-0.0014388 0.0018893 -0.0006338 0.0007632 -0.0005728 0.0002268 -0.0010177 0.0014741 -0.0002440 0.0002718 0.0000101 -0.0002043 -0.0004866 0.0001139 -0.0004849 -0.0007971 -0.0001644 -0.0008162 -0.0004509 -0.0017024
-0.0014123 0.0013674 -0.0006075 0.0006496 -0.0005626 -0.0001255 -0.0010347 0.0010768 -0.0002541 -0.0001027 0.0000219 -0.0003052 -0.0004873 -0.0000231 -0.0004648 -0.0008731 -0.0001583 -0.0007953 -0.0003361 -0.0015658
-0.0004694 0.0010094 -0.0005643 0.0007045 -0.0005421 -0.0000221 -0.0010332 0.0012505 -0.0002467 0.0000911 0.0000269 -0.0002217 -0.0004561 0.0000641 -0.0004626 -0.0007645 -0.0001422 -0.0005983 -0.0002811 -0.0012803
-0.0006441 0.0016204 -0.0005484 0.0008785 -0.0005317 0.0002922 -0.0010233 0.0016097 -0.0002432 0.0004499 0.0000343 -0.0001010 -0.0004701 0.0002595 -0.0004473 -0.0006613 -0.0001332 -0.0006108 -0.0003429 -0.0012458
-0.0006666 0.0011185 -0.0005592 0.0008351 -0.0005142 0.0001747 -0.0010475 0.0014936 -0.0002394 0.0002684 0.0000322 -0.0001853 -0.0004680 0.0001650 -0.0003760 -0.0008230 -0.0001218 -0.0008760 -0.0004236 -0.0015046
-0.0002577 0.0006295 -0.0005577 0.0006095 -0.0005007 -0.0002691 -0.0010453 0.0009692 -0.0002313 -0.0001907 0.0000379 -0.0003442 -0.0004568 -0.0000400 -0.0003210 -0.0010031 -0.0001000 -0.0009499 -0.0003749 -0.0015962
-0.0004011 0.0008181 -0.0005708 0.0005997 -0.0005030 -0.0002768 -0.0010289 0.0008752 -0.0002107 -0.0001511 0.0000650 -0.0002625 -0.0004593 -0.0000579 -0.0003856 -0.0010179 -0.0000893 -0.0007644 -0.0001846 -0.0014819
-0.0010448 0.0011415 -0.0006414 0.0006186 -0.0005406 0.0001771 -0.0010885 0.0013137 -0.0003607 0.0003254 0.0000776 -0.0001231 -0.0004300 0.0000302 -0.0003901 -0.0010337 -0.0000795 -0.0007272 -0.0002654 -0.0014080
-0.0008309 0.0012879 -0.0006695 0.0005051 -0.0004525 0.0003421 -0.0010782 0.0012510 -0.0005322 0.0000624 0.0000645 -0.0002370 -0.0003882 0.0000076 -0.0002991 -0.0010582 -0.0000426 -0.0009621 -0.0004723 -0.0014987
-0.0004467 0.0004364 -0.0006436 0.0003731 -0.0003136 0.0000546 -0.0009751 0.0007456 -0.0005234 -0.0006725 0.0000665 -0.0004308 -0.0003261 -0.0000519 -0.0002199 -0.0010441 0.0000071 -0.0010202 -0.0004103 -0.0014334
-0.0008615 0.0008036 -0.0006078 0.0004292 -0.0002959 0.0000325 -0.0009093 0.0008188 -0.0005017 -0.0006536 0.0000838 -0.0004176 -0.0002852 0.0000973 -0.0001521 -0.0009281 0.0000406 -0.0008229 -0.0001999 -0.0012822
-0.0004904 0.0010818 -0.0005765 0.0006453 -0.0002644 0.0003477 -0.0007887 0.0011656 -0.0004816 -0.0003842 0.0000933 -0.0002911 -0.0002775 0.0002129 -0.0001240 -0.0008862 0.0000542 -0.0008080 -0.0001492 -0.0013408
-0.0002539 0.0005969 -0.0005585 0.0006291 -0.0002189 0.0003281 -0.0007229 0.0011082 -0.0004643 -0.0005045 0.0001025 -0.0003193 -0.0002537 0.0000883 -0.0001096 -0.0010240 0.0000571 -0.0009594 -0.0002353 -0.0014500
-0.0002138 0.0002464 -0.0005397 0.0004579 -0.0001849 0.0000379 -0.0007069 0.0007694 -0.0004446 -0.0008244 0.0001016 -0.0004097 -0.0002043 -0.0000210 -0.0000686 -0.0011582 0.0000577 -0.0009502 -0.0001672 -0.0014275
-0.0008129 0.0011600 -0.0005251 0.0004889 -0.0001777 0.0001127 -0.0006581 0.0008343 -0.0004304 -0.0007254 0.0001041 -0.0003382 -0.0001391 0.0000702 -0.0000292 -0.0011179 0.0000641 -0.0007689 -0.0001074 -0.0012504
-0.0012891 0.0017332 -0.0005181 0.0006721 -0.0001795 0.0004356 -0.0006211 0.0011358 -0.0004304 -0.0004346 0.0001060 -0.0002027 -0.0001714 0.0001972 -0.0000713 -0.0010003 0.0000629 -0.0007389 -0.0001190 -0.0012377
-0.0009631 0.0009592 -0.0005100 0.0006606 -0.0001671 0.0003981 -0.0005876 0.0009863 -0.0004335 -0.0005436 0.0000966 -0.0002303 -0.0002420 0.0001097 -0.0000841 -0.0010997 0.0000583 -0.0009084 -0.0001948 -0.0013889
-0.0009915 0.0009077 -0.0004881 0.0005340 -0.0001561 0.0001072 -0.0005848 0.0006080 -0.0004304 -0.0008476 0.0000889 -0.0003364 -0.0001911 -0.0000754 -0.0000473 -0.0012346 0.0000625 -0.0009577 -0.0002118 -0.0014266
-0.0007747 0.0011615 -0.0004621 0.0005713 -0.0001522 0.0001537 -0.0005639 0.0006704 -0.0004323 -0.0007447 0.0000917 -0.0002650 -0.0001687 0.0000639 -0.0000363 -0.0011088 0.0000600 -0.0007932 -0.0002545 -0.0011732
-0.0004517 0.0009582 -0.0004653 0.0006785 -0.0001531 0.0004249 -0.0005509 0.0009700 -0.0004248 -0.0005237 0.0000944 -0.0001524 -0.0002018 0.0002080 -0.0000101 -0.0010287 0.0000600 -0.0007790 -0.0002736 -0.0011144
-0.0003294 0.0004600 -0.0004763 0.0006026 -0.0001415 0.0003319 -0.0005399 0.0007836 -0.0004144 -0.0006770 0.0000893 -0.0001797 -0.0002018 0.0000355 -0.0000182 -0.0010795 0.0000629 -0.0009328 -0.0001868 -0.0012880
-0.0000010 0.0003072 -0.0004461 0.0004716 -0.0001059 0.0000260 -0.0004914 0.0003709 -0.0004064 -0.0009510 0.0000938 -0.0002312 -0.0002152 -0.0000887 -0.0000561 -0.0010809 0.0000772 -0.0008770 -0.0000491 -0.0013033
0.0003636 -0.0001258 -0.0004114 0.0005152 -0.0001055 0.0001041 -0.0004933 0.0004683 -0.0004006 -0.0008491 0.0001027 -0.0001400 -0.0002158 0.0000224 -0.0000434 -0.0009571 0.0000947 -0.0006514 0.0000301 -0.0010874
-0.0003854 0.0006523 -0.0003925 0.0006613 -0.0001165 0.0003622 -0.0004967 0.0006846 -0.0003922 -0.0006977 0.0001034 -0.0000511 -0.0002114 0.0001062 -0.0000336 -0.0008668 0.0000945 -0.0006722 0.0000434 -0.0010877
-0.0004092 0.0007835 -0.0003879 0.0006179 -0.0000943 0.0002210 -0.0004821 0.0005136 -0.0003861 -0.0008661 0.0001007 -0.0001113 -0.0001939 -0.0000010 -0.0000343 -0.0009289 0.0000994 -0.0008783 0.0000168 -0.0013301
-0.0001676 0.0003383 -0.0003579 0.0004431 -0.0000734 -0.0000920 -0.0004365 0.0001730 -0.0003913 -0.0010607 0.0000969 -0.0001644 -0.0002077 -0.0000946 -0.0000225 -0.0009700 0.0001058 -0.0008464 -0.0000188 -0.0011871
0.0001225 0.0004353 -0.0003214 0.0004811 -0.0000555 0.0000151 -0.0003811 0.0002475 -0.0003914 -0.0009100 0.0000884 -0.0000619 -0.0002270 0.0000410 -0.0000071 -0.0008039 0.0001101 -0.0006477 0.0000531 -0.0009760
0.0004687 0.0003974 -0.0003160 0.0005797 -0.0000233 0.0001547 -0.0003625 0.0003420 -0.0003763 -0.0008822 0.0000823 -0.0000323 -0.0002237 0.0001077 0.0000021 -0.0007612 0.0001123 -0.0007208 0.0000518 -0.0010346
0.0000534 0.0002266 -0.0002943 0.0004999 -0.0000283 -0.0000903 -0.0003603 0.0000439 -0.0003628 -0.0010708 0.0000800 -0.0001480 -0.0001817 0.0000588 0.0000196 -0.0007691 0.0001362 -0.0009060 0.0000419 -0.0011000
0.0004261 -0.0003466 -0.0002431 0.0004325 -0.0000448 -0.0003512 -0.0003462 -0.0001322 -0.0003563 -0.0010894 0.0000874 -0.0000483 -0.0003017 -0.0001504 -0.0000135 -0.0009256 0.0000932 -0.0006488 0.0000503 -0.0007264
0.0009442 -0.0001123 -0.0002114 0.0005852 0.0000494 0.0000725 -0.0003046 0.0001827 -0.0003499 -0.0007862 0.0000711 0.0000856 -0.0002989 0.0000828 -0.0000698 -0.0006763 0.0000801 -0.0003928 0.0001062 -0.0005365
0.0004792 0.0007158 -0.0002222 0.0006324 0.0000962 0.0002684 -0.0002639 0.0002726 -0.0003462 -0.0007391 0.0000397 0.0000985 -0.0002793 0.0002142 -0.0000582 -0.0005368 0.0000932 -0.0005317 0.0000635 -0.0007208
-0.0001697 0.0010850 -0.0002360 0.0005108 0.0000264 -0.0000999 -0.0002602 -0.0000073 -0.0003581 -0.0009451 0.0000209 0.0000736 -0.0003686 0.0000299 -0.0000548 -0.0007504 0.0000584 -0.0005984 -0.0000174 -0.0007359
0.0003169 0.0002510 -0.0002194 0.0004200 0.0000851 -0.0000600 -0.0002193 0.0000026 -0.0003710 -0.0008872 0.0000010 0.0000453 -0.0003285 0.0001272 -0.0001292 -0.0005555 0.0000681 -0.0005198 0.0000228 -0.0007005
0.0002376 0.0002642 -0.0002245 0.0004801 0.0000965 0.0001060 -0.0001859 0.0002559 -0.0003796 -0.0006522 -0.0000214 0.0001914 -0.0003426 0.0002206 -0.0001732 -0.0003957 0.0000560 -0.0003745 0.0000428 -0.0006638
-0.0000939 0.0009673 -0.0002361 0.0005646 0.0000410 0.0000279 -0.0002037 0.0001866 -0.0003929 -0.0006924 -0.0000561 0.0002015 -0.0003537 0.0002912 -0.0001468 -0.0003504 0.0000352 -0.0004864 0.0000385 -0.0008211
0.0001580 0.0006404 -0.0002315 0.0003928 0.0000680 -0.0002156 -0.0002099 -0.0001932 -0.0003965 -0.0009957 -0.0000720 0.0000848 -0.0003939 0.0001438 -0.0001887 -0.0004243 0.0000231 -0.0006931 0.0000264 -0.0009804
0.0003714 -0.0005155 -0.0002299 0.0002726 0.0000654 -0.0003563 -0.0001982 -0.0003007 -0.0004025 -0.0009969 -0.0000769 0.0001181 -0.0003648 0.0001180 -0.0002157 -0.0003797 0.0000277 -0.0005690 0.0000955 -0.0008268
0.0008333 -0.0011671 -0.0002210 0.0004049 0.0000678 -0.0001450 -0.0001672 -0.0000186 -0.0004068 -0.0007446 -0.0000781 0.0002683 -0.0003416 0.0002971 -0.0002667 -0.0002057 0.0000239 -0.0003593 0.0001421 -0.0006269
0.0001348 0.0006557 -0.0002229 0.0004245 0.0001053 -0.0000265 -0.0001511 0.0000049 -0.0003987 -0.0007845 -0.0000685 0.0003039 -0.0003847 0.0002498 -0.0002983 -0.0002361 0.0000100 -0.0004784 0.0001145 -0.0006720
-0.0006031 0.0012848 -0.0002322 0.0001988 0.0001499 -0.0002315 -0.0001620 -0.0004253 -0.0003906 -0.0011408 -0.0000625 0.0001949 -0.0003625 -0.0000876 -0.0002406 -0.0005443 0.0000067 -0.0007978 0.0001301 -0.0008252
0.0002048 -0.0002553 -0.0002295 -0.0000076 0.0001991 -0.0004231 -0.0001662 -0.0007479 -0.0003807 -0.0013221 -0.0000577 0.0001695 -0.0003793 -0.0002160 -0.0002608 -0.0006300 0.0000117 -0.0008097 0.0000889 -0.0006335
0.0005728 -0.0002651 -0.0002256 0.0000158 0.0002359 -0.0002981 -0.0001438 -0.0006647 -0.0003726 -0.0012289 -0.0000532 0.0002785 -0.0004476 -0.0000699 -0.0003001 -0.0004723 0.0000161 -0.0006433 0.0000496 -0.0003483
0.0008581 -0.0005207 -0.0002497 0.0000856 0.0002772 -0.0001133 -0.0001264 -0.0006243 -0.0003656 -0.0012254 -0.0000618 0.0003022 -0.0004657 -0.0000822 -0.0003656 -0.0004229 0.0000055 -0.0007012 0.0000526 -0.0004563
0.0001447 -0.0000385 -0.0002708 -0.0000528 0.0002921 -0.0002308 -0.0001107 -0.0008921 -0.0003532 -0.0014204 -0.0000773 0.0002009 -0.0004399 -0.0002793 -0.0003655 -0.0006001 0.0000000 -0.0008932 0.0000069 -0.0006622
-0.0007899 0.0003111 -0.0002643 -0.0001929 0.0002839 -0.0003727 -0.0001177 -0.0010599 -0.0003478 -0.0014854 -0.0000829 0.0001708 -0.0004285 -0.0003375 -0.0003384 -0.0006997 -0.0000058 -0.0008297 0.0000274 -0.0006125
-0.0000574 -0.0000776 -0.0002572 -0.0000908 0.0002828 -0.0002265 -0.0001295 -0.0009627 -0.0003412 -0.0013363 -0.0000785 0.0002570 -0.0005034 -0.0002132 -0.0004082 -0.0005477 -0.0000074 -0.0006338 0.0000686 -0.0003605
-0.0003063 0.0009546 -0.0002575 0.0001955 0.0002429 0.0000720 -0.0001796 -0.0007759 -0.0003449 -0.0011047 -0.0001561 0.0002525 -0.0004026 0.0003526 -0.0001016 0.0006767 0.0000383 -0.0004077 0.0002097 0.0001105
-0.0008509 0.0015587 -0.0002668 0.0002256 0.0003284 0.0003885 -0.0001705 -0.0006011 -0.0003390 -0.0011014 -0.0002037 0.0001345 -0.0003249 0.0005603 0.0000209 0.0011186 0.0000520 -0.0003721 0.0003074 0.0001419
-0.0001148 0.0004698 -0.0002547 0.0001606 0.0003936 0.0004006 -0.0001146 -0.0005896 -0.0003097 -0.0011762 -0.0001915 0.0000525 -0.0003246 0.0004849 -0.0000242 0.0010767 0.0000380 -0.0003259 0.0003480 0.0000865
0.0001964 0.0001411 -0.0002254 0.0003720 0.0003346 0.0004019 -0.0000959 -0.0004419 -0.0002972 -0.0010146 -0.0002127 0.0002037 -0.0002423 0.0009822 0.0002106 0.0020375 0.0000603 -0.0000016 0.0004874 0.0004091
0.0004247 0.0009020 -0.0002111 0.0006162 0.0003245 0.0007852 -0.0000536 0.0000666 -0.0003102 -0.0006252 -0.0002103 0.0004859 -0.0002570 0.0013880 0.0002353 0.0024839 0.0000691 0.0001823 0.0004752 0.0003385
0.0001157 0.0009878 -0.0002008 0.0007168 0.0002771 0.0006822 -0.0000696 0.0000460 -0.0003073 -0.0007274 -0.0002063 0.0003669 -0.0002433 0.0013454 0.0001748 0.0023769 0.0000605 -0.0000849 0.0003350 -0.0002983
0.0004003 -0.0002541 -0.0002087 0.0005926 0.0002372 0.0002650 -0.0000969 -0.0003240 -0.0002845 -0.0010906 -0.0001688 0.0001936 -0.0003013 0.0009867 0.0000018 0.0016274 -0.0000119 -0.0002440 0.0001383 -0.0009720
0.0007678 -0.0003496 -0.0002226 0.0005809 0.0002294 0.0003675 -0.0000580 -0.0001510 -0.0002666 -0.0009140 -0.0001339 0.0003171 -0.0003709 0.0007971 -0.0002334 0.0009625 -0.0000807 -0.0002451 0.0001386 -0.0003263
0.0000639 0.0008355 -0.0002275 0.0007352 0.0001774 0.0007536 -0.0000332 0.0004283 -0.0002660 -0.0004699 -0.0001308 0.0005152 -0.0003409 0.0008819 -0.0003314 0.0008724 -0.0001121 -0.0001409 0.0001454 0.0008241
-0.0004984 0.0016210 -0.0002658 0.0007971 0.0001490 0.0011005 -0.0000396 0.0007713 -0.0002535 -0.0004007 -0.0001250 0.0005829 -0.0003565 0.0007825 -0.0003921 0.0005043 -0.0001043 -0.0003003 0.0000543 0.0003941
-0.0011052 0.0017364 -0.0002942 0.0005593 0.0001216 0.0007289 -0.0000751 0.0003269 -0.0002371 -0.0008541 -0.0001065 0.0004329 -0.0004159 0.0004545 -0.0004489 0.0000115 -0.0000520 -0.0006837 0.0001256 -0.0004115
-0.0004701 0.0005872 -0.0002686 0.0003233 0.0000867 0.0002125 -0.0001069 -0.0001283 -0.0002361 -0.0010936 -0.0000828 0.0003552 -0.0004854 0.0002947 -0.0004816 -0.0001409 -0.0000286 -0.0006521 0.0001332 -0.0003863
0.0004853 0.0000929 -0.0002417 0.0003516 0.0000929 0.0002844 -0.0000906 -0.0001065 -0.0002251 -0.0010173 -0.0000582 0.0004382 -0.0005245 0.0003559 -0.0004721 -0.0001468 -0.0000134 -0.0004361 0.0001247 -0.0000847
-0.0000054 0.0010037 -0.0002397 0.0004561 0.0001325 0.0006127 -0.0001010 0.0000327 -0.0002110 -0.0007981 -0.0000174 0.0006383 -0.0006213 0.0001282 -0.0004748 -0.0003355 -0.0000405 -0.0002649 0.0001112 0.0001096
-0.0003215 0.0014244 -0.0002793 0.0003062 0.0002148 0.0007229 -0.0001597 -0.0002993 -0.0002038 -0.0010051 0.0000051 0.0005424 -0.0006559 -0.0001878 -0.0005191 -0.0005811 -0.0000586 -0.0005015 0.0001146 -0.0000104
0.0004693 0.0005443 -0.0002969 0.0001641 0.0001923 0.0004297 -0.0002153 -0.0007002 -0.0001924 -0.0013505 0.0000129 0.0002747 -0.0005621 -0.0002207 -0.0004900 -0.0006572 -0.0000187 -0.0006551 0.0002684 -0.0001067
0.0008185 0.0002117 -0.0002576 0.0003256 0.0001383 0.0003810 -0.0002327 -0.0005688 -0.0001746 -0.0012364 0.0000236 0.0003011 -0.0005114 -0.0002084 -0.0004696 -0.0006368 0.0000136 -0.0003936 0.0003142 0.0001761
0.0009197 0.0005447 -0.0002388 0.0005117 0.0001733 0.0008174 -0.0002149 -0.0002085 -0.0001736 -0.0008667 0.0000302 0.0004759 -0.0005426 -0.0001435 -0.0004801 -0.0004834 0.0000197 0.0000408 0.0002848 0.0006879
0.0019664 0.0004391 -0.0002564 0.0007970 0.0002172 0.0015873 -0.0002016 0.0003369 -0.0001768 -0.0005011 0.0000235 0.0005661 -0.0005549 -0.0000260 -0.0004733 -0.0003482 0.0000223 0.0000906 0.0002895 0.0007097
0.0017637 0.0008278 -0.0002464 0.0008596 0.0002161 0.0015222 -0.0002172 0.0002296 -0.0001862 -0.0006867 -0.0000071 0.0004325 -0.0005696 -0.0000591 -0.0004673 -0.0004122 0.0000294 -0.0002143 0.0002671 0.0003068
-0.0002723 0.0015849 -0.0002024 0.0007824 0.0001747 0.0008922 -0.0002315 -0.0002866 -0.0001846 -0.0010184 -0.0000215 0.0003298 -0.0006215 -0.0002830 -0.0004620 -0.0006319 -0.0000295 -0.0001616 -0.0002277 -0.0009394
-0.0005177 0.0019069 -0.0001727 0.0009195 0.0001606 0.0008869 -0.0002350 -0.0002695 -0.0001647 -0.0009061 0.0000027 0.0004011 -0.0006492 -0.0003601 -0.0005323 -0.0006062 -0.0001479 0.0000780 -0.0009534 -0.0019248
-0.0000304 0.0024833 -0.0001608 0.0011681 0.0001768 0.0012762 -0.0002353 0.0001715 -0.0001600 -0.0004664 0.0000379 0.0006048 -0.0006984 -0.0003212 -0.0006251 -0.0004619 -0.0002159 0.0003624 -0.0011489 -0.0016231
0.0005210 0.0021802 -0.0001486 0.0012843 0.0002143 0.0013733 -0.0002631 0.0001640 -0.0001612 -0.0005462 0.0000479 0.0006188 -0.0007969 -0.0005337 -0.0006492 -0.0007371 -0.0002461 0.0003207 -0.0012436 -0.0016039
0.0007883 0.0018329 -0.0001385 0.0011750 0.0002415 0.0010653 -0.0002894 -0.0002764 -0.0001586 -0.0009529 0.0000414 0.0004886 -0.0008166 -0.0007684 -0.0006157 -0.0010023 -0.0002752 0.0001831 -0.0011848 -0.0014751
0.0005463 0.0018674 -0.0001399 0.0011831 0.0002445 0.0010477 -0.0002766 -0.0002426 -0.0001472 -0.0008899 0.0000481 0.0005282 -0.0007658 -0.0007085 -0.0006076 -0.0009304 -0.0002752 0.0003545 -0.0008344 -0.0008382
0.0004482 0.0021234 -0.0001506 0.0013254 0.0002327 0.0013136 -0.0002230 0.0001591 -0.0001416 -0.0005396 0.0000347 0.0006372 -0.0006711 -0.0002765 -0.0005525 -0.0005209 -0.0002256 0.0005133 -0.0004257 -0.0004496
-0.0000173 0.0027350 -0.0002010 0.0015085 0.0001405 0.0016429 -0.0001806 0.0008072 -0.0001367 -0.0001993 -0.0000168 0.0006653 -0.0005097 0.0002219 -0.0004454 -0.0001618 -0.0001844 0.0002121 -0.0003641 -0.0007144
0.0004179 0.0015364 -0.0002702 0.0012353 0.0000591 0.0011641 -0.0001728 0.0006800 -0.0001287 -0.0005141 -0.0000446 0.0005321 -0.0004961 0.0000973 -0.0003885 -0.0003466 -0.0001986 -0.0002789 -0.0003778 -0.0011742
0.0000580 0.0007626 -0.0002968 0.0007196 0.0001073 0.0004827 -0.0001803 0.0000103 -0.0001351 -0.0009664 -0.0000500 0.0003991 -0.0005399 -0.0003236 -0.0004438 -0.0005066 -0.0001995 -0.0003906 -0.0003122 -0.0012508
-0.0004151 0.0011709 -0.0002816 0.0005941 0.0001449 0.0004479 -0.0001792 -0.0001124 -0.0001352 -0.0009706 -0.0000534 0.0003841 -0.0005071 -0.0003765 -0.0004842 -0.0004187 -0.0001714 -0.0002729 -0.0002770 -0.0010611
0.0001229 0.0010950 -0.0002772 0.0007190 0.0001343 0.0006217 -0.0001531 0.0001284 -0.0001300 -0.0007470 -0.0000534 0.0005040 -0.0005157 -0.0001365 -0.0004480 -0.0002528 -0.0001480 0.0000010 -0.0001833 -0.0008615
0.0009268 0.0009214 -0.0002893 0.0008617 0.0001517 0.0007493 -0.0001563 0.0002069 -0.0001233 -0.0007649 -0.0000641 0.0005199 -0.0005025 -0.0000949 -0.0004405 -0.0003002 -0.0001378 -0.0001427 -0.0002123 -0.0010617
0.0005063 0.0010282 -0.0002946 0.0007009 0.0001611 0.0004351 -0.0001552 -0.0001522 -0.0001144 -0.0011081 -0.0000655 0.0003625 -0.0004185 -0.0003215 -0.0004184 -0.0005219 -0.0001169 -0.0004622 -0.0003146 -0.0013673
-0.0006813 0.0012973 -0.0002878 0.0005397 0.0001456 0.0001401 -0.0001488 -0.0004010 -0.0001049 -0.0012340 -0.0000554 0.0002953 -0.0003826 -0.0003202 -0.0003881 -0.0004717 -0.0000722 -0.0004138 -0.0002432 -0.0014768
0.0000378 0.0009302 -0.0002873 0.0006342 0.0001319 0.0001657 -0.0001568 -0.0002710 -0.0000987 -0.0010780 -0.0000603 0.0003798 -0.0003465 -0.0001114 -0.0003196 -0.0003092 -0.0000277 -0.0001609 -0.0001591 -0.0013639
0.0007171 0.0009741 -0.0003075 0.0008174 0.0000910 0.0004316 -0.0001566 0.0000953 -0.0001062 -0.0006787 -0.0000784 0.0005588 -0.0002994 0.0002164 -0.0003397 0.0000048 -0.0000030 0.0002257 -0.0001740 -0.0012281
0.0006026 0.0015212 -0.0003435 0.0008386 0.0000495 0.0004639 -0.0002043 0.0001073 -0.0001155 -0.0007145 -0.0001093 0.0005481 -0.0002645 0.0003002 -0.0003569 0.0000702 0.0000078 0.0000544 -0.0001962 -0.0015801
0.0007285 0.0008983 -0.0003836 0.0006235 0.0000049 0.0000303 -0.0002584 -0.0002829 -0.0001308 -0.0010977 -0.0001467 0.0003736 -0.0002237 0.0002108 -0.0003423 -0.0000524 0.0000179 -0.0002788 -0.0003238 -0.0018488
0.0017057 -0.0006448 -0.0004238 0.0005151 -0.0000680 -0.0001709 -0.0002778 -0.0003601 -0.0001376 -0.0010935 -0.0001690 0.0003349 -0.0002202 0.0003650 -0.0003573 0.0000667 0.0000329 -0.0001877 -0.0003213 -0.0019289
0.0013437 0.0000507 -0.0004712 0.0005990 -0.0001532 -0.0000194 -0.0003016 -0.0000526 -0.0001458 -0.0007931 -0.0001953 0.0004341 -0.0002027 0.0005903 -0.0003594 0.0002988 0.0000463 0.0000722 -0.0003838 -0.0017472
0.0003968 0.0013976 -0.0005249 0.0007863 -0.0002189 0.0003272 -0.0003136 0.0004147 -0.0001561 -0.0004787 -0.0002238 0.0005278 -0.0001780 0.0007352 -0.0003913 0.0004559 0.0000330 -0.0000558 -0.0003827 -0.0019163
0.0005235 0.0011750 -0.0005504 0.0007245 -0.0002406 0.0000871 -0.0003595 0.0001820 -0.0001703 -0.0007474 -0.0002520 0.0003907 -0.0002123 0.0005483 -0.0004046 0.0002910 -0.0000076 -0.0004175 -0.0003461 -0.0022117
-0.0001366 0.0013030 -0.0005361 0.0006259 -0.0002246 -0.0002474 -0.0003658 -0.0001499 -0.0001854 -0.0010077 -0.0002588 0.0002815 -0.0002209 0.0003503 -0.0004277 0.0001377 -0.0000383 -0.0003940 -0.0003977 -0.0019841
-0.0010867 0.0027609 -0.0004968 0.0008173 -0.0001984 0.0000194 -0.0003333 0.0001102 -0.0001877 -0.0007735 -0.0002505 0.0003668 -0.0002850 0.0004676 -0.0004812 0.0002098 -0.0000597 -0.0001464 -0.0003962 -0.0015310
-0.0007214 0.0028529 -0.0004840 0.0010535 -0.0002015 0.0004581 -0.0003498 0.0005602 -0.0002023 -0.0003681 -0.0002469 0.0005024 -0.0003239 0.0005404 -0.0005163 0.0003113 -0.0000850 -0.0001151 -0.0003798 -0.0014754
-0.0005315 0.0021615 -0.0004981 0.0010551 -0.0002074 0.0003867 -0.0003725 0.0004082 -0.0002094 -0.0005640 -0.0002507 0.0004173 -0.0002646 0.0003029 -0.0005005 0.0001315 -0.0000996 -0.0004136 -0.0003436 -0.0017813
-0.0005435 0.0017168 -0.0004992 0.0008806 -0.0001871 -0.0000645 -0.0003773 -0.0001030 -0.0002026 -0.0010464 -0.0002625 0.0002385 -0.0003444 0.0001555 -0.0005061 -0.0000511 -0.0001087 -0.0004859 -0.0003418 -0.0017030
-0.0005729 0.0014752 -0.0004883 0.0008951 -0.0001738 -0.0000112 -0.0003435 -0.0000494 -0.0001925 -0.0009653 -0.0002570 0.0002640 -0.0004086 0.0002537 -0.0005350 0.0000324 -0.0001147 -0.0002927 -0.0002758 -0.0015544
-0.0003865 0.0015580 -0.0004793 0.0010593 -0.0001787 0.0002930 -0.0003214 0.0002700 -0.0001888 -0.0006480 -0.0002418 0.0003834 -0.0003947 0.0003855 -0.0005433 0.0001433 -0.0001028 -0.0001764 -0.0002465 -0.0015760
0.0001421 0.0015358 -0.0004712 0.0010506 -0.0001736 0.0002062 -0.0003325 0.0001445 -0.0001860 -0.0008156 -0.0002427 0.0003162 -0.0003506 0.0001963 -0.0005426 0.0000217 -0.0001040 -0.0003919 -0.0002144 -0.0017860
0.0001231 0.0010833 -0.0004634 0.0008713 -0.0001810 -0.0001970 -0.0003401 -0.0003725 -0.0001692 -0.0012890 -0.0002449 0.0001121 -0.0003280 -0.0000735 -0.0005314 -0.0001520 -0.0001096 -0.0005675 -0.0002027 -0.0018705
0.0000388 0.0003373 -0.0004517 0.0008492 -0.0001897 -0.0002396 -0.0003315 -0.0004141 -0.0001487 -0.0012866 -0.0002362 0.0000961 -0.0003291 -0.0000166 -0.0005129 -0.0001129 -0.0001057 -0.0004297 -0.0002109 -0.0017753
-0.0000752 0.0003950 -0.0004487 0.0010012 -0.0001781 0.0000348 -0.0002877 -0.0001221 -0.0001318 -0.0009994 -0.0002270 0.0002169 -0.0003244 0.0001573 -0.0004974 0.0000400 -0.0001098 -0.0001486 -0.0002162 -0.0015074
-0.0008398 0.0011837 -0.0004571 0.0010907 -0.0001645 0.0001575 -0.0002861 -0.0001092 -0.0001255 -0.0010208 -0.0002225 0.0002146 -0.0003763 0.0001141 -0.0004769 -0.0000239 -0.0001144 -0.0002459 -0.0002073 -0.0015676
-0.0012616 0.0016638 -0.0004491 0.0009663 -0.0001616 -0.0001240 -0.0003146 -0.0005308 -0.0001211 -0.0013829 -0.0002261 0.0000644 -0.0003610 -0.0001872 -0.0004945 -0.0002023 -0.0001147 -0.0004894 -0.0001636 -0.0017520
-0.0008713 0.0014087 -0.0004350 0.0009016 -0.0001774 -0.0002593 -0.0002759 -0.0007156 -0.0001121 -0.0014195 -0.0002189 0.0000382 -0.0003178 -0.0002555 -0.0004815 -0.0002754 -0.0001111 -0.0003883 -0.0001625 -0.0016205
-0.0010056 0.0017944 -0.0004202 0.0010210 -0.0001636 -0.0000495 -0.0002353 -0.0005151 -0.0001057 -0.0011750 -0.0002110 0.0001568 -0.0003427 -0.0001183 -0.0005026 -0.0001549 -0.0001106 -0.0001500 -0.0000933 -0.0014125
-0.0008819 0.0021260 -0.0004105 0.0011266 -0.0001221 0.0001297 -0.0002261 -0.0004615 -0.0000909 -0.0011737 -0.0002012 0.0001891 -0.0003139 -0.0002079 -0.0005081 -0.0001867 -0.0001219 -0.0002168 -0.0001444 -0.0013474
-0.0000101 0.0012376 -0.0003865 0.0010164 -0.0001007 -0.0000452 -0.0002173 -0.0007743 -0.0000765 -0.0014497 -0.0001840 0.0000864 -0.0003006 -0.0004560 -0.0004884 -0.0004112 -0.0001266 -0.0004479 -0.0001466 -0.0015206
-0.0000858 0.0007360 -0.0003598 0.0009041 -0.0000952 -0.0002201 -0.0002152 -0.0009300 -0.0000765 -0.0015158 -0.0001784 0.0000530 -0.0002944 -0.0005770 -0.0004934 -0.0004628 -0.0001149 -0.0004246 -0.0000778 -0.0015156
-0.0006557 0.0015440 -0.0003472 0.0009615 -0.0000882 -0.0000579 -0.0001814 -0.0007311 -0.0000767 -0.0013242 -0.0001930 0.0001196 -0.0003274 -0.0004461 -0.0004747 -0.0003822 -0.0001181 -0.0002824 -0.0001771 -0.0013113
-0.0002091 0.0011391 -0.0003446 0.0009790 -0.0000699 0.0000111 -0.0001723 -0.0006835 -0.0000723 -0.0013679 -0.0002114 0.0000714 -0.0003470 -0.0004523 -0.0004335 -0.0004245 -0.0001127 -0.0004377 -0.0001447 -0.0015370
-0.0002020 0.0002682 -0.0003490 0.0008223 -0.0000656 -0.0002734 -0.0001757 -0.0009818 -0.0000644 -0.0016753 -0.0002194 -0.0001080 -0.0002870 -0.0006936 -0.0004188 -0.0005760 -0.0000917 -0.0007557 -0.0000983 -0.0018648
-0.0003621 0.0003616 -0.0003305 0.0006759 -0.0000739 -0.0005280 -0.0001294 -0.0012027 -0.0000481 -0.0017574 -0.0002168 -0.0001586 -0.0002643 -0.0007902 -0.0004382 -0.0006262 -0.0000928 -0.0007276 -0.0001282 -0.0017470
-0.0001741 0.0009168 -0.0003116 0.0006828 -0.0000180 -0.0002972 -0.0000857 -0.0009911 -0.0000308 -0.0015402 -0.0002116 -0.0000832 -0.0002425 -0.0007386 -0.0004445 -0.0006061 -0.0000919 -0.0005665 -0.0001357 -0.0015495
0.0003449 0.0006575 -0.0003063 0.0007785 0.0000133 -0.0000862 -0.0000619 -0.0009761 -0.0000140 -0.0015139 -0.0002009 -0.0000923 -0.0002419 -0.0008002 -0.0004701 -0.0006263 -0.0000750 -0.0006888 -0.0001775 -0.0016206
0.0001642 -0.0001600 -0.0002636 0.0006651 0.0000113 -0.0004250 -0.0000507 -0.0015029 0.0000015 -0.0018591 -0.0001922 -0.0002414 -0.0002742 -0.0010925 -0.0004511 -0.0008938 -0.0000622 -0.0009463 -0.0001014 -0.0018577
-0.0006333 0.0004900 -0.0002025 0.0004633 0.0000574 -0.0007152 -0.0000034 -0.0018054 0.0000164 -0.0020079 -0.0001864 -0.0003028 -0.0002899 -0.0011987 -0.0004292 -0.0010082 -0.0000458 -0.0009392 -0.0000305 -0.0018033
-0.0010520 0.0010687 -0.0001636 0.0005053 0.0001022 -0.0005902 0.0000582 -0.0016697 0.0000352 -0.0018342 -0.0001725 -0.0002238 -0.0002534 -0.0010760 -0.0003972 -0.0008942 -0.0000191 -0.0007730 -0.0000560 -0.0015532
-0.0002276 0.0001599 -0.0001435 0.0006285 0.0001221 -0.0003356 0.0001020 -0.0015152 0.0000614 -0.0017576 -0.0001691 -0.0002094 -0.0001853 -0.0011262 -0.0003431 -0.0009446 -0.0000031 -0.0008542 -0.0001031 -0.0016229
0.0008527 -0.0011288 -0.0001167 0.0004899 0.0001376 -0.0005530 0.0001241 -0.0018011 0.0000796 -0.0020146 -0.0001766 -0.0003540 -0.0001097 -0.0014103 -0.0002997 -0.0011770 0.0000125 -0.0011554 -0.0000464 -0.0019611
0.0004204 -0.0014529 -0.0000910 0.0002467 0.0001449 -0.0009794 0.0001829 -0.0021318 0.0000911 -0.0021696 -0.0001881 -0.0004721 -0.0000467 -0.0014082 -0.0002332 -0.0012286 0.0000573 -0.0012349 -0.0000525 -0.0020299
0.0004660 -0.0015697 -0.0000754 0.0001888 0.0001376 -0.0010375 0.0002459 -0.0021430 0.0001181 -0.0020665 -0.0001778 -0.0004071 -0.0000652 -0.0013641 -0.0002070 -0.0011986 0.0000788 -0.0010724 -0.0000751 -0.0018681
0.0000910 -0.0008635 -0.0000661 0.0001714 0.0001965 -0.0009003 0.0002393 -0.0021149 0.0001465 -0.0020533 -0.0001591 -0.0003647 -0.0000802 -0.0015634 -0.0002069 -0.0013954 0.0000886 -0.0011349 0.0000002 -0.0019637
0.0006208 -0.0006949 -0.0000563 -0.0000266 0.0002656 -0.0011008 0.0002416 -0.0024350 0.0001645 -0.0022874 -0.0001497 -0.0004689 -0.0000341 -0.0017400 -0.0001669 -0.0016472 0.0001177 -0.0013787 -0.0000359 -0.0020963
0.0007828 -0.0010929 -0.0000296 -0.0002926 0.0002936 -0.0014372 0.0002865 -0.0028352 0.0001816 -0.0024500 -0.0001312 -0.0005011 0.0000102 -0.0018303 -0.0001341 -0.0017016 0.0001408 -0.0013716 0.0000249 -0.0020062
0.0005832 -0.0012428 0.0000028 -0.0003057 0.0003276 -0.0013506 0.0003196 -0.0028071 0.0002039 -0.0023456 -0.0001121 -0.0003902 0.0000784 -0.0018182 -0.0001203 -0.0016245 0.0001651 -0.0012241 0.0000544 -0.0017541
0.0014236 -0.0012188 0.0000316 -0.0001463 0.0003659 -0.0011269 0.0002993 -0.0026511 0.0002150 -0.0021664 -0.0000845 -0.0002510 0.0000853 -0.0017553 -0.0000986 -0.0016468 0.0001804 -0.0012559 0.0000430 -0.0017666
0.0008878 -0.0005618 0.0000424 -0.0002507 0.0004030 -0.0012191 0.0003183 -0.0029563 0.0002255 -0.0023356 -0.0000659 -0.0002785 0.0000754 -0.0019457 -0.0000449 -0.0019433 0.0001902 -0.0014932 0.0001125 -0.0020191
0.0001817 -0.0007960 0.0000439 -0.0005637 0.0004444 -0.0015346 0.0003541 -0.0034293 0.0002413 -0.0026491 -0.0000570 -0.0003800 0.0001064 -0.0022195 -0.0000253 -0.0021357 0.0002007 -0.0015776 0.0000545 -0.0019323
-0.0001224 -0.0008536 0.0000518 -0.0006476 0.0004845 -0.0015756 0.0003628 -0.0035278 0.0002482 -0.0026460 -0.0000408 -0.0003581 0.0001342 -0.0022495 -0.0000808 -0.0020637 0.0002114 -0.0014963 -0.0000122 -0.0016976
-0.0000747 -0.0006352 0.0000601 -0.0005655 0.0004987 -0.0013996 0.0003893 -0.0034157 0.0002473 -0.0024809 -0.0000397 -0.0002533 0.0001914 -0.0021820 -0.0000845 -0.0019844 0.0002185 -0.0013988 -0.0000294 -0.0016481
0.0003564 -0.0008478 0.0000615 -0.0005913 0.0005260 -0.0014042 0.0004035 -0.0034999 0.0002483 -0.0025251 -0.0000511 -0.0002623 0.0001978 -0.0022700 -0.0000511 -0.0021071 0.0002153 -0.0015427 -0.0000383 -0.0018726
0.0006620 -0.0015049 0.0000528 -0.0007972 0.0005572 -0.0016634 0.0004250 -0.0038360 0.0002500 -0.0027403 -0.0000538 -0.0003798 0.0001675 -0.0024400 -0.0000262 -0.0023298 0.0002253 -0.0017263 0.0000369 -0.0019515
0.0011898 -0.0025429 0.0000591 -0.0008659 0.0005479 -0.0017212 0.0004386 -0.0038684 0.0002544 -0.0027359 -0.0000502 -0.0003908 0.0002131 -0.0024726 -0.0000172 -0.0023132 0.0002437 -0.0016688 0.0000668 -0.0018588
0.0007534 -0.0016827 0.0000691 -0.0007347 0.0005379 -0.0015373 0.0004421 -0.0036304 0.0002477 -0.0025394 -0.0000505 -0.0003065 0.0002272 -0.0023552 -0.0000320 -0.0021570 0.0002433 -0.0014944 0.0000120 -0.0016323
0.0009836 -0.0012949 0.0000574 -0.0005766 0.0005559 -0.0012857 0.0004444 -0.0034438 0.0002417 -0.0024294 -0.0000546 -0.0002772 0.0002038 -0.0023236 -0.0000233 -0.0021704 0.0002276 -0.0016156 -0.0000642 -0.0016543
0.0015287 -0.0022594 0.0000588 -0.0007503 0.0005622 -0.0014654 0.0004403 -0.0037243 0.0002375 -0.0026286 -0.0000678 -0.0003891 0.0001717 -0.0025628 0.0000202 -0.0024304 0.0002076 -0.0019378 -0.0000265 -0.0019360
0.0013719 -0.0022580 0.0000809 -0.0010058 0.0005534 -0.0017991 0.0004757 -0.0040599 0.0002313 -0.0027696 -0.0000699 -0.0004579 0.0001491 -0.0026543 0.0000613 -0.0025619 0.0001970 -0.0019709 0.0000620 -0.0020164
0.0012784 -0.0019545 0.0000899 -0.0009391 0.0005796 -0.0017175 0.0005301 -0.0039225 0.0002362 -0.0026369 -0.0000601 -0.0003855 0.0001697 -0.0024925 0.0000839 -0.0024870 0.0001993 -0.0018332 0.0000946 -0.0018086
0.0010244 -0.0014166 0.0000939 -0.0007374 0.0005972 -0.0014307 0.0005487 -0.0035842 0.0002308 -0.0023701 -0.0000673 -0.0002466 0.0001801 -0.0022773 0.0000880 -0.0023545 0.0001467 -0.0018512 0.0001442 -0.0012602
0.0012221 -0.0015547 0.0000897 -0.0007562 0.0005944 -0.0013881 0.0005511 -0.0035961 0.0002205 -0.0024024 -0.0000887 -0.0002645 0.0001660 -0.0023400 0.0000840 -0.0024630 0.0000728 -0.0021650 0.0000954 -0.0005302
0.0005077 -0.0019923 0.0000706 -0.0010358 0.0006021 -0.0016526 0.0005613 -0.0039180 0.0002129 -0.0026651 -0.0001041 -0.0003908 0.0001787 -0.0026139 0.0001118 -0.0027106 0.0000820 -0.0023100 0.0000674 0.0000042
0.0007134 -0.0025178 0.0000743 -0.0011650 0.0006054 -0.0017012 0.0005798 -0.0039865 0.0002077 -0.0026591 -0.0001026 -0.0003756 0.0002049 -0.0026555 0.0000903 -0.0026521 0.0001102 -0.0020990 0.0001559 0.0005090
0.0015591 -0.0025102 0.0000795 -0.0010811 0.0006021 -0.0014760 0.0005985 -0.0037706 0.0001916 -0.0024287 -0.0000986 -0.0002406 0.0002160 -0.0024710 0.0000813 -0.0024820 0.0001277 -0.0017360 0.0002630 0.0010525
0.0016704 -0.0022556 0.0000666 -0.0009134 0.0005893 -0.0011372 0.0005748 -0.0033879 0.0001716 -0.0021337 -0.0000953 -0.0000811 0.0001977 -0.0023291 0.0001284 -0.0023887 0.0001424 -0.0016764 0.0003109 0.0010203
0.0006786 -0.0015856 0.0000446 -0.0009853 0.0005788 -0.0011716 0.0005480 -0.0034910 0.0001608 -0.0022330 -0.0000945 -0.0001017 0.0001664 -0.0024211 0.0001280 -0.0024514 0.0001451 -0.0019111 0.0002977 0.0007442
0.0004640 -0.0021835 0.0000387 -0.0012288 0.0005691 -0.0014515 0.0005442 -0.0038261 0.0001469 -0.0024745 -0.0001005 -0.0001738 0.0001878 -0.0025120 0.0000989 -0.0024966 0.0001751 -0.0018739 0.0001989 0.0006870
0.0010577 -0.0028969 0.0000429 -0.0012801 0.0005552 -0.0014216 0.0005403 -0.0037636 0.0001245 -0.0023822 -0.0001023 -0.0000977 0.0002176 -0.0024199 0.0000722 -0.0023690 0.0002261 -0.0015983 0.0002790 0.0005652
0.0005713 -0.0016629 0.0000082 -0.0011669 0.0005466 -0.0011697 0.0005293 -0.0034980 0.0000996 -0.0021464 -0.0001027 0.0000400 0.0001792 -0.0021665 0.0000336 -0.0021821 0.0002417 -0.0013170 0.0003737 0.0006935
0.0009049 -0.0013372 -0.0000266 -0.0009527 0.0005160 -0.0008099 0.0004911 -0.0031199 0.0000859 -0.0019042 -0.0001159 0.0001632 0.0001681 -0.0020415 0.0000376 -0.0020882 0.0002184 -0.0013920 0.0003205 0.0006330
0.0013121 -0.0021097 -0.0000406 -0.0010081 0.0004857 -0.0008706 0.0004433 -0.0031808 0.0000628 -0.0019953 -0.0001357 0.0001261 0.0001246 -0.0021069 0.0000146 -0.0021423 0.0002029 -0.0016580 0.0002983 0.0003118
0.0013376 -0.0029077 -0.0000521 -0.0011943 0.0004512 -0.0011319 0.0004299 -0.0034094 0.0000272 -0.0021523 -0.0001456 0.0000495 0.0000237 -0.0020849 -0.0000374 -0.0021437 0.0002001 -0.0016686 0.0002411 0.0003531
0.0011697 -0.0023042 -0.0000557 -0.0011269 0.0004209 -0.0010512 0.0004191 -0.0032455 0.0000005 -0.0020265 -0.0001579 0.0001139 -0.0000132 -0.0019462 -0.0000707 -0.0019891 0.0002009 -0.0014622 0.0002664 0.0005256
0.0000751 -0.0007946 -0.0000683 -0.0009184 0.0003991 -0.0007733 0.0003632 -0.0028530 -0.0000333 -0.0017518 -0.0001832 0.0002793 -0.0000327 -0.0017115 -0.0001182 -0.0017790 0.0002009 -0.0011270 0.0003041 0.0007597
-0.0003497 -0.0002035 -0.0000981 -0.0006744 0.0003583 -0.0003513 0.0003194 -0.0024536 -0.0000633 -0.0015086 -0.0002064 0.0003884 -0.0000770 -0.0015264 -0.0001512 -0.0016301 0.0001940 -0.0011369 0.0003701 0.0005641
0.0004015 -0.0011436 -0.0001368 -0.0007112 0.0003259 -0.0003784 0.0003070 -0.0024791 -0.0000992 -0.0015633 -0.0002493 0.0002841 -0.0001115 -0.0014626 -0.0001542 -0.0014781 0.0001898 -0.0012928 0.0004246 0.0003079
0.0001067 -0.0012881 -0.0001612 -0.0008307 0.0002865 -0.0005858 0.0002802 -0.0025949 -0.0001465 -0.0016147 -0.0002906 0.0002045 -0.0001108 -0.0013799 -0.0001279 -0.0013598 0.0001972 -0.0011790 0.0004538 0.0002937
-0.0004748 -0.0007072 -0.0001662 -0.0006994 0.0002385 -0.0004635 0.0002284 -0.0024024 -0.0001834 -0.0014373 -0.0003065 0.0003020 -0.0001002 -0.0011933 -0.0001379 -0.0012026 0.0002090 -0.0009615 0.0003922 0.0004074
-0.0003369 -0.0008891 -0.0001833 -0.0004755 0.0001903 -0.0001937 0.0001710 -0.0019938 -0.0002247 -0.0011218 -0.0003328 0.0004683 -0.0001375 -0.0008623 -0.0001565 -0.0009091 0.0002034 -0.0006823 0.0003396 0.0006091
-0.0001559 -0.0011445 -0.0002164 -0.0004016 0.0001783 -0.0000569 0.0001322 -0.0018265 -0.0002600 -0.0010543 -0.0003579 0.0004952 -0.0002112 -0.0007864 -0.0001828 -0.0008125 0.0001793 -0.0007959 0.0003747 0.0003808
0.0001984 -0.0009554 -0.0002506 -0.0005185 0.0001553 -0.0001837 0.0000793 -0.0019502 -0.0002922 -0.0012014 -0.0003742 0.0004164 -0.0002424 -0.0008833 -0.0002532 -0.0008774 0.0001587 -0.0009950 0.0003891 0.0001323
0.0001593 -0.0006948 -0.0002783 -0.0005311 0.0000989 -0.0001739 0.0000145 -0.0018568 -0.0003292 -0.0011289 -0.0003800 0.0004454 -0.0002805 -0.0007548 -0.0003268 -0.0008113 0.0001388 -0.0008663 0.0003684 0.0002173
-0.0001505 -0.0004276 -0.0002984 -0.0003914 0.0000526 0.0000562 -0.0000504 -0.0015241 -0.0003675 -0.0008704 -0.0003882 0.0005869 -0.0003355 -0.0005681 -0.0004052 -0.0006017 0.0001262 -0.0006246 0.0002936 0.0005035
0.0006408 -0.0008932 -0.0003409 -0.0001858 0.0000287 0.0003461 -0.0001219 -0.0012231 -0.0003868 -0.0007376 -0.0003968 0.0006747 -0.0004128 -0.0005089 -0.0004101 -0.0006099 0.0001026 -0.0007388 0.0002482 0.0003619
0.0005608 -0.0006475 -0.0003759 -0.0002638 0.0000106 0.0001937 -0.0001713 -0.0014043 -0.0004061 -0.0009323 -0.0004024 0.0005827 -0.0004691 -0.0007146 -0.0003892 -0.0008949 0.0000660 -0.0010616 0.0001974 0.0000524
0.0002165 -0.0003484 -0.0003829 -0.0004669 -0.0000140 -0.0001169 -0.0002092 -0.0016681 -0.0004307 -0.0010715 -0.0004066 0.0005238 -0.0004793 -0.0008617 -0.0004566 -0.0010047 0.0000445 -0.0010445 0.0001772 0.0001461
0.0007034 -0.0012353 -0.0003951 -0.0004085 -0.0000305 -0.0000437 -0.0002514 -0.0015406 -0.0004423 -0.0009574 -0.0003999 0.0005988 -0.0005348 -0.0007472 -0.0005565 -0.0008734 0.0000340 -0.0008327 0.0001771 0.0003234
0.0001892 -0.0004225 -0.0004187 -0.0002237 -0.0000467 0.0002250 -0.0002853 -0.0012173 -0.0004558 -0.0006989 -0.0004001 0.0007367 -0.0006006 -0.0005633 -0.0006419 -0.0006559 0.0000144 -0.0007536 0.0002087 0.0002174
-0.0003884 0.0002015 -0.0004418 -0.0002197 -0.0000504 0.0001921 -0.0003242 -0.0012597 -0.0004527 -0.0008119 -0.0003955 0.0006747 -0.0005990 -0.0007160 -0.0006542 -0.0007818 -0.0000195 -0.0009681 0.0002496 -0.0000975
-0.0003885 -0.0001343 -0.0004566 -0.0004275 -0.0000376 -0.0001430 -0.0003611 -0.0016182 -0.0004352 -0.0011669 -0.0003864 0.0005017 -0.0006187 -0.0009575 -0.0006499 -0.0010293 -0.0000435 -0.0010948 0.0002593 -0.0001648
-0.0001811 -0.0002756 -0.0004518 -0.0004830 -0.0000116 -0.0002204 -0.0003687 -0.0016800 -0.0004128 -0.0012085 -0.0003744 0.0004899 -0.0006748 -0.0009099 -0.0006760 -0.0009978 -0.0000598 -0.0009684 0.0003368 -0.0000566
0.0002467 -0.0003856 -0.0004658 -0.0003366 0.0000050 -0.0000244 -0.0003457 -0.0014947 -0.0003878 -0.0010486 -0.0003649 0.0005831 -0.0007016 -0.0007594 -0.0006740 -0.0008954 -0.0000719 -0.0007001 0.0002869 0.0002994
0.0005284 -0.0007005 -0.0004961 -0.0001385 0.0000223 0.0002499 -0.0003577 -0.0012291 -0.0003584 -0.0009594 -0.0003546 0.0006295 -0.0006874 -0.0007262 -0.0006510 -0.0008723 -0.0000996 -0.0007555 0.0002287 0.0002401
0.0003096 -0.0010412 -0.0005043 -0.0002426 0.0000367 0.0000840 -0.0003721 -0.0014194 -0.0003378 -0.0011946 -0.0003358 0.0005132 -0.0006871 -0.0009378 -0.0006453 -0.0010306 -0.0001254 -0.0010398 0.0002908 -0.0001523
0.0001875 -0.0009149 -0.0005012 -0.0004846 0.0000387 -0.0002266 -0.0003475 -0.0017900 -0.0003167 -0.0014088 -0.0003163 0.0004064 -0.0006980 -0.0011055 -0.0006777 -0.0010889 -0.0001431 -0.0010360 0.0002398 -0.0000953
-0.0001461 -0.0008712 -0.0004953 -0.0004830 0.0000568 -0.0001689 -0.0003272 -0.0017165 -0.0002909 -0.0013311 -0.0003124 0.0004128 -0.0006482 -0.0011342 -0.0006969 -0.0010322 -0.0001644 -0.0007831 0.0002270 0.0001487
-0.0002794 -0.0000952 -0.0005031 -0.0003037 0.0000914 0.0000663 -0.0003116 -0.0014449 -0.0002716 -0.0011159 -0.0003105 0.0005168 -0.0006563 -0.0010336 -0.0007039 -0.0009388 -0.0001539 -0.0003124 0.0003604 0.0001303
-0.0005230 0.0008756 -0.0005253 -0.0001017 0.0001307 0.0002823 -0.0003236 -0.0013183 -0.0002465 -0.0010802 -0.0002897 0.0005690 -0.0006613 -0.0010627 -0.0007177 -0.0009688 -0.0001530 -0.0003145 0.0003338 -0.0003658
-0.0008347 0.0004455 -0.0005310 -0.0002007 0.0001500 0.0001117 -0.0003398 -0.0015709 -0.0002313 -0.0013042 -0.0002720 0.0004760 -0.0006328 -0.0013202 -0.0007887 -0.0011709 -0.0001665 -0.0006127 0.0002059 -0.0007662
-0.0003690 -0.0003011 -0.0005224 -0.0003820 0.0001544 -0.0001060 -0.0003569 -0.0017934 -0.0002230 -0.0014013 -0.0002645 0.0004373 -0.0006615 -0.0014403 -0.0008472 -0.0012364 -0.0001657 -0.0005250 0.0001300 -0.0006611
0.0000938 -0.0003116 -0.0005138 -0.0003411 0.0001608 -0.0000041 -0.0003588 -0.0017048 -0.0002159 -0.0012601 -0.0002669 0.0005224 -0.0006632 -0.0013706 -0.0008169 -0.0011731 -0.0001609 -0.0002744 0.0001904 -0.0004967
-0.0003209 0.0004040 -0.0005172 -0.0001822 0.0001565 0.0002542 -0.0003655 -0.0014054 -0.0002199 -0.0009855 -0.0002763 0.0006741 -0.0006401 -0.0011588 -0.0007873 -0.0010511 -0.0001572 -0.0000240 0.0002263 -0.0004510
-0.0005641 0.0005849 -0.0005291 -0.0001378 0.0001520 0.0003152 -0.0004005 -0.0013129 -0.0002241 -0.0009706 -0.0002948 0.0006890 -0.0006339 -0.0011846 -0.0007943 -0.0011001 -0.0001727 -0.0001746 0.0001922 -0.0006090
-0.0003439 0.0005884 -0.0005345 -0.0002899 0.0001546 0.0001035 -0.0004153 -0.0015416 -0.0002269 -0.0011744 -0.0003112 0.0005822 -0.0006316 -0.0013885 -0.0008101 -0.0012468 -0.0001796 -0.0004047 0.0001875 -0.0007370
-0.0007418 0.0009905 -0.0005201 -0.0003795 0.0001484 0.0000353 -0.0004161 -0.0015867 -0.0002292 -0.0011719 -0.0003184 0.0005860 -0.0006437 -0.0013779 -0.0008074 -0.0012182 -0.0001715 -0.0003146 0.0001514 -0.0005907
-0.0010957 0.0012557 -0.0005038 -0.0003108 0.0001364 0.0001912 -0.0004184 -0.0013690 -0.0002300 -0.0010027 -0.0003346 0.0006873 -0.0006575 -0.0012316 -0.0008316 -0.0010184 -0.0001663 -0.0000996 0.0001435 -0.0003765
-0.0005956 0.0010998 -0.0005058 -0.0001708 0.0001396 0.0004068 -0.0004125 -0.0011379 -0.0002297 -0.0008837 -0.0003503 0.0007499 -0.0006567 -0.0011323 -0.0007930 -0.0009580 -0.0001709 -0.0002185 0.0001354 -0.0006679
-0.0003307 0.0005799 -0.0004917 -0.0002673 0.0001161 0.0002155 -0.0004376 -0.0012501 -0.0002377 -0.0010431 -0.0003647 0.0006666 -0.0005857 -0.0012088 -0.0007043 -0.0010632 -0.0001628 -0.0005676 0.0000614 -0.0011678
-0.0004935 0.0004128 -0.0004843 -0.0004649 0.0000770 -0.0001069 -0.0004539 -0.0014239 -0.0002537 -0.0011698 -0.0003925 0.0005773 -0.0005222 -0.0011534 -0.0006977 -0.0009568 -0.0001230 -0.0005559 -0.0000289 -0.0012488
-0.0010047 0.0010246 -0.0005067 -0.0004611 0.0000561 -0.0000802 -0.0004482 -0.0012022 -0.0002538 -0.0009968 -0.0004108 0.0006348 -0.0004962 -0.0009122 -0.0006974 -0.0007406 -0.0000705 -0.0002963 0.0000552 -0.0011747
-0.0009314 0.0009326 -0.0005308 -0.0003211 0.0000183 0.0001542 -0.0004738 -0.0006940 -0.0002643 -0.0006198 -0.0004478 0.0006750 -0.0004202 -0.0004840 -0.0006620 -0.0003190 -0.0000072 -0.0001247 0.0001526 -0.0013042
-0.0002235 0.0004749 -0.0005199 -0.0002613 -0.0000496 0.0000192 -0.0005030 -0.0005986 -0.0002677 -0.0006115 -0.0004775 0.0005220 -0.0003627 -0.0003501 -0.0006418 -0.0002031 0.0000302 -0.0004124 0.0001701 -0.0016480
-0.0006452 0.0008470 -0.0004801 -0.0003711 -0.0000992 -0.0004640 -0.0005146 -0.0009423 -0.0002490 -0.0009111 -0.0004764 0.0003347 -0.0003315 -0.0005739 -0.0005905 -0.0005233 0.0000471 -0.0007126 0.0001593 -0.0017399
-0.0008487 0.0006802 -0.0004219 -0.0003936 -0.0001121 -0.0005973 -0.0005027 -0.0009969 -0.0002366 -0.0008953 -0.0004758 0.0002949 -0.0003526 -0.0005235 -0.0005403 -0.0005733 0.0000673 -0.0006475 0.0002197 -0.0016687
-0.0015232 0.0014184 -0.0003828 -0.0002442 -0.0001315 -0.0003955 -0.0004862 -0.0007323 -0.0002321 -0.0006280 -0.0004657 0.0003935 -0.0003635 -0.0003422 -0.0005418 -0.0004258 0.0000839 -0.0003489 0.0002859 -0.0014567
-0.0015504 0.0021460 -0.0003741 0.0000023 -0.0001430 -0.0000010 -0.0004981 -0.0003368 -0.0002160 -0.0003869 -0.0004515 0.0004781 -0.0003456 -0.0002985 -0.0005385 -0.0003931 0.0000957 -0.0003403 0.0002638 -0.0014569
-0.0003848 0.0010131 -0.0003562 -0.0000121 -0.0001268 -0.0001334 -0.0005253 -0.0004703 -0.0002088 -0.0005397 -0.0004305 0.0003859 -0.0003351 -0.0004797 -0.0005345 -0.0005491 0.0001005 -0.0006138 0.0002382 -0.0016457
-0.0003224 0.0001569 -0.0003237 -0.0001793 -0.0001100 -0.0005192 -0.0005140 -0.0008312 -0.0002149 -0.0007180 -0.0004134 0.0002875 -0.0003226 -0.0006055 -0.0005340 -0.0006176 0.0001142 -0.0005902 0.0002014 -0.0015355
-0.0010308 0.0009309 -0.0002875 -0.0001217 -0.0001075 -0.0004365 -0.0004947 -0.0007066 -0.0002060 -0.0005749 -0.0003999 0.0003355 -0.0002730 -0.0005496 -0.0005177 -0.0005353 0.0001284 -0.0003770 0.0001925 -0.0012694
-0.0009104 0.0013765 -0.0002642 0.0000300 -0.0001092 -0.0001411 -0.0004904 -0.0003308 -0.0002008 -0.0002270 -0.0003942 0.0004819 -0.0002376 -0.0003343 -0.0004984 -0.0003426 0.0001256 -0.0000645 0.0002661 -0.0011368
-0.0005555 0.0014841 -0.0002778 0.0000992 -0.0000929 0.0000045 -0.0004981 -0.0002528 -0.0001982 -0.0002227 -0.0003901 0.0004870 -0.0002795 -0.0003289 -0.0005058 -0.0003630 0.0001170 -0.0001899 0.0002590 -0.0012565
-0.0002295 0.0008739 -0.0002777 0.0000186 -0.0000924 -0.0002071 -0.0005219 -0.0005255 -0.0001983 -0.0005253 -0.0003810 0.0003608 -0.0002874 -0.0005639 -0.0004937 -0.0005482 0.0001113 -0.0004569 0.0002224 -0.0013811
0.0001076 0.0004555 -0.0002545 -0.0000346 -0.0001096 -0.0003231 -0.0004973 -0.0005948 -0.0001963 -0.0005221 -0.0003628 0.0003590 -0.0002871 -0.0005929 -0.0004492 -0.0006108 0.0001009 -0.0004183 0.0002721 -0.0013244
0.0002298 0.0008607 -0.0002519 0.0000637 -0.0001116 -0.0001660 -0.0004851 -0.0003238 -0.0001933 -0.0002792 -0.0003483 0.0004659 -0.0002782 -0.0004282 -0.0004965 -0.0005008 0.0000742 -0.0003503 0.0002682 -0.0010465
-0.0001964 0.0009817 -0.0002714 0.0002240 -0.0001252 0.0001589 -0.0005106 0.0001041 -0.0001889 -0.0000454 -0.0003489 0.0005481 -0.0002359 -0.0004119 -0.0005109 -0.0004041 0.0000336 -0.0005595 0.0002654 -0.0012041
-0.0000518 0.0006797 -0.0002594 0.0001141 -0.0001287 0.0000212 -0.0005160 -0.0000807 -0.0001895 -0.0002605 -0.0003400 0.0004296 -0.0002400 -0.0006596 -0.0004455 -0.0006454 -0.0000304 -0.0010325 0.0002997 -0.0012463
0.0003173 0.0002254 -0.0002395 -0.0001266 -0.0001219 -0.0004119 -0.0004927 -0.0004920 -0.0001949 -0.0005165 -0.0003226 0.0003106 -0.0002496 -0.0007831 -0.0004840 -0.0007576 -0.0001594 -0.0012565 0.0002679 -0.0000175
0.0003588 0.0002390 -0.0002750 -0.0002605 -0.0001357 -0.0003593 -0.0004735 -0.0003758 -0.0001901 -0.0003697 -0.0003044 0.0003761 -0.0001987 -0.0006944 -0.0004733 -0.0005968 -0.0002269 -0.0009328 0.0004374 0.0020238
0.0007376 0.0002038 -0.0003309 -0.0003121 -0.0001469 -0.0000483 -0.0004752 -0.0000598 -0.0001836 -0.0000327 -0.0002835 0.0005520 -0.0001461 -0.0004924 -0.0004226 -0.0003860 -0.0001478 -0.0002685 0.0006647 0.0032915
0.0004889 0.0002367 -0.0003525 -0.0003441 -0.0001229 -0.0000183 -0.0004836 -0.0001094 -0.0001693 -0.0001067 -0.0002565 0.0005599 -0.0001444 -0.0005660 -0.0004254 -0.0004656 -0.0000635 -0.0003518 0.0005546 0.0027702
-0.0005757 0.0009212 -0.0003032 -0.0004684 -0.0000940 -0.0003183 -0.0004815 -0.0004865 -0.0001519 -0.0004834 -0.0002285 0.0004125 -0.0001317 -0.0008486 -0.0004340 -0.0007005 0.0000029 -0.0007485 0.0004616 0.0016637
-0.0006698 0.0008298 -0.0002379 -0.0004655 -0.0000763 -0.0004422 -0.0004422 -0.0006121 -0.0001399 -0.0005195 -0.0001994 0.0003895 -0.0000998 -0.0008436 -0.0004433 -0.0006895 0.0000570 -0.0006568 0.0004740 0.0012474
-0.0001441 0.0007347 -0.0002053 -0.0003221 -0.0000651 -0.0002977 -0.0003929 -0.0004365 -0.0001272 -0.0003248 -0.0001784 0.0004749 -0.0000491 -0.0006952 -0.0003959 -0.0005788 0.0000837 -0.0004488 0.0005298 0.0012570
-0.0008830 0.0015233 -0.0002102 -0.0002561 -0.0000463 -0.0000934 -0.0003586 -0.0003124 -0.0001107 -0.0003067 -0.0001705 0.0004782 -0.0000132 -0.0007647 -0.0003012 -0.0006795 0.0000878 -0.0005958 0.0006031 0.0008805
-0.0007159 0.0008135 -0.0002024 -0.0004428 -0.0000195 -0.0002957 -0.0003397 -0.0005862 -0.0000992 -0.0005717 -0.0001597 0.0003282 -0.0000060 -0.0010172 -0.0002603 -0.0009172 0.0000833 -0.0009152 0.0004849 0.0005141
-0.0004737 0.0007164 -0.0001732 -0.0005923 0.0000003 -0.0005605 -0.0003106 -0.0008010 -0.0000926 -0.0006638 -0.0001435 0.0002553 0.0000161 -0.0010949 -0.0002298 -0.0009733 0.0001004 -0.0009143 0.0005184 0.0004812
-0.0009044 0.0011458 -0.0001498 -0.0004891 0.0000211 -0.0004401 -0.0002503 -0.0006499 -0.0000789 -0.0005018 -0.0001391 0.0003240 0.0000411 -0.0009321 -0.0001978 -0.0008569 0.0001143 -0.0007124 0.0005964 0.0006346
-0.0006395 0.0008328 -0.0001352 -0.0002866 0.0000436 -0.0001343 -0.0001994 -0.0003327 -0.0000590 -0.0003320 -0.0001424 0.0003883 0.0000364 -0.0008268 -0.0001986 -0.0007743 0.0001148 -0.0007733 0.0005441 0.0005661
0.0001934 0.0002997 -0.0001243 -0.0003621 0.0000642 -0.0002358 -0.0001879 -0.0004699 -0.0000565 -0.0004691 -0.0001434 0.0002975 0.0000610 -0.0010151 -0.0001618 -0.0009269 0.0001069 -0.0010655 0.0004761 0.0003858
-0.0000075 0.0000414 -0.0001162 -0.0005729 0.0000745 -0.0005199 -0.0001748 -0.0008106 -0.0000648 -0.0006178 -0.0001460 0.0002146 0.0000844 -0.0011460 -0.0001596 -0.0010029 0.0000873 -0.0010587 0.0003482 0.0009001
-0.0005151 0.0001647 -0.0001069 -0.0005315 0.0000804 -0.0003981 -0.0001517 -0.0007204 -0.0000664 -0.0004545 -0.0001416 0.0002880 0.0000626 -0.0010447 -0.0001830 -0.0008951 0.0000857 -0.0007712 0.0003532 0.0014022
0.0004101 -0.0002071 -0.0001031 -0.0003707 0.0000853 -0.0000923 -0.0001249 -0.0004097 -0.0000746 -0.0001137 -0.0001468 0.0004534 0.0000987 -0.0008498 -0.0001702 -0.0007757 0.0001047 -0.0005075 0.0004425 0.0012517
0.0008827 0.0000201 -0.0001123 -0.0003495 0.0000984 -0.0000805 -0.0001362 -0.0004355 -0.0000824 -0.0001715 -0.0001607 0.0004439 0.0001294 -0.0009481 -0.0001209 -0.0008816 0.0001096 -0.0006961 0.0004281 0.0008445
0.0007499 0.0000605 -0.0001010 -0.0004844 0.0001054 -0.0003467 -0.0001623 -0.0007595 -0.0000914 -0.0004697 -0.0001695 0.0003176 0.0001198 -0.0011530 -0.0000969 -0.0010292 0.0001106 -0.0008970 0.0003886 0.0006077
-0.0000904 0.0007062 -0.0000777 -0.0004833 0.0000975 -0.0003459 -0.0001518 -0.0007458 -0.0001000 -0.0004113 -0.0001841 0.0003418 0.0000912 -0.0010575 -0.0001122 -0.0009372 0.0001120 -0.0007670 0.0004734 0.0005953
-0.0007169 0.0012558 -0.0000836 -0.0003279 0.0000829 -0.0001213 -0.0001564 -0.0004474 -0.0001185 -0.0001390 -0.0001912 0.0004490 0.0000853 -0.0008524 -0.0001414 -0.0007215 0.0001126 -0.0005095 0.0005363 0.0007758
-0.0001897 0.0010824 -0.0001057 -0.0002275 0.0000847 0.0000232 -0.0001579 -0.0003633 -0.0001302 -0.0001126 -0.0001957 0.0004621 0.0000685 -0.0008373 -0.0001004 -0.0007613 0.0001096 -0.0006468 0.0004207 0.0006160
0.0005624 0.0003741 -0.0001139 -0.0003746 0.0000735 -0.0001947 -0.0001799 -0.0006339 -0.0001342 -0.0003811 -0.0002074 0.0003498 0.0000199 -0.0009851 -0.0000756 -0.0009311 0.0000966 -0.0009667 0.0004068 0.0003252
0.0004749 -0.0004246 -0.0001166 -0.0004902 0.0000632 -0.0003484 -0.0001952 -0.0006993 -0.0001450 -0.0004069 -0.0002179 0.0003314 0.0000101 -0.0009826 -0.0001223 -0.0008869 0.0000889 -0.0009024 0.0004085 0.0004688
-0.0001528 0.0002560 -0.0001262 -0.0003720 0.0000650 -0.0001371 -0.0001794 -0.0004439 -0.0001583 -0.0001610 -0.0002268 0.0004386 0.0000214 -0.0008323 -0.0001605 -0.0006960 0.0000856 -0.0006512 0.0003662 0.0007122
-0.0005180 0.0013363 -0.0001548 -0.0001372 0.0000361 0.0002280 -0.0002079 -0.0000843 -0.0001653 0.0000831 -0.0002294 0.0005298 0.0000147 -0.0007189 -0.0001662 -0.0006024 0.0000910 -0.0007052 0.0004498 0.0003696
-0.0003569 0.0010362 -0.0001529 -0.0001881 0.0000326 0.0000576 -0.0002427 -0.0002781 -0.0001690 -0.0001204 -0.0002249 0.0004164 -0.0000179 -0.0009120 -0.0001677 -0.0007773 0.0001171 -0.0009259 0.0005056 -0.0001901
0.0005604 -0.0005570 -0.0001099 -0.0004124 0.0000604 -0.0003474 -0.0002094 -0.0007212 -0.0001879 -0.0004434 -0.0002249 0.0002829 -0.0000403 -0.0010447 -0.0001831 -0.0008955 0.0001445 -0.0008585 0.0004203 -0.0002774
0.0004909 -0.0001746 -0.0000799 -0.0003666 0.0000705 -0.0003168 -0.0001627 -0.0006722 -0.0001938 -0.0003831 -0.0002235 0.0003120 -0.0000187 -0.0008809 -0.0002178 -0.0007520 0.0001616 -0.0006886 0.0003628 -0.0002204
-0.0003265 0.0007948 -0.0000775 -0.0001693 0.0000650 -0.0000653 -0.0001474 -0.0003230 -0.0001894 -0.0000860 -0.0002138 0.0004542 0.0000138 -0.0006649 -0.0002026 -0.0005796 0.0001795 -0.0005688 0.0004336 -0.0002768
-0.0008303 0.0009114 -0.0000813 -0.0002356 0.0001007 -0.0000780 -0.0001648 -0.0003218 -0.0001806 -0.0001449 -0.0002004 0.0004438 0.0000251 -0.0007859 -0.0001462 -0.0007367 0.0001758 -0.0007795 0.0004054 -0.0004046
-0.0002475 0.0000914 -0.0000790 -0.0005495 0.0001274 -0.0004357 -0.0001979 -0.0007476 -0.0001644 -0.0004688 -0.0001835 0.0002977 0.0000467 -0.0010647 -0.0001635 -0.0009478 0.0001699 -0.0010055 0.0003928 -0.0004732
-0.0003305 -0.0002363 -0.0000681 -0.0006688 0.0001269 -0.0005283 -0.0001814 -0.0009110 -0.0001550 -0.0004997 -0.0001689 0.0003022 0.0000457 -0.0010602 -0.0001624 -0.0009162 0.0001793 -0.0009574 0.0004541 -0.0004222
-0.0004471 0.0003827 -0.0000446 -0.0005720 0.0001399 -0.0003722 -0.0001666 -0.0007332 -0.0001566 -0.0003166 -0.0001722 0.0003870 0.0000140 -0.0008413 -0.0001157 -0.0006939 0.0001960 -0.0006912 0.0005193 -0.0001853
-0.0000650 0.0008134 -0.0000389 -0.0003705 0.0001620 -0.0000927 -0.0001615 -0.0004571 -0.0001599 -0.0001607 -0.0001889 0.0004118 0.0000149 -0.0007608 -0.0000730 -0.0006431 0.0001945 -0.0006860 0.0005129 -0.0002208
-0.0003449 0.0008833 -0.0000359 -0.0004898 0.0001798 -0.0002333 -0.0001613 -0.0005887 -0.0001693 -0.0003090 -0.0001903 0.0002984 0.0000461 -0.0009440 -0.0000902 -0.0008348 0.0001842 -0.0009441 0.0004964 -0.0005386
0.0001739 0.0000981 -0.0000164 -0.0007194 0.0001730 -0.0005502 -0.0001514 -0.0008662 -0.0001809 -0.0004312 -0.0001864 0.0002190 0.0000443 -0.0010005 -0.0000993 -0.0008643 0.0001960 -0.0009337 0.0004954 -0.0005112
-0.0000018 0.0003672 -0.0000042 -0.0006574 0.0001570 -0.0004681 -0.0001342 -0.0007798 -0.0001952 -0.0002518 -0.0001901 0.0002798 -0.0000013 -0.0008196 -0.0000867 -0.0006560 0.0002181 -0.0006684 0.0005524 -0.0002555
-0.0001457 0.0006678 -0.0000102 -0.0004753 0.0001452 -0.0001502 -0.0001849 -0.0003740 -0.0002231 0.0001157 -0.0002139 0.0003896 0.0000069 -0.0004668 -0.0001068 -0.0002549 0.0002328 -0.0002410 0.0005766 0.0001238
0.0008590 0.0001988 -0.0000357 -0.0003546 0.0001614 0.0000545 -0.0002520 -0.0001914 -0.0002434 0.0001962 -0.0002330 0.0003741 -0.0000181 -0.0004176 -0.0001006 -0.0001808 0.0002204 -0.0002365 0.0005199 0.0000675
0.0003263 0.0010466 -0.0000456 -0.0004635 0.0001613 -0.0001255 -0.0002952 -0.0004368 -0.0002683 0.0000006 -0.0002292 0.0003024 -0.0000478 -0.0006501 -0.0000852 -0.0004472 0.0002148 -0.0004408 0.0005218 -0.0002851
-0.0000450 0.0012111 -0.0000210 -0.0005123 0.0001388 -0.0002312 -0.0003221 -0.0005078 -0.0003041 -0.0000073 -0.0002226 0.0003359 -0.0000532 -0.0007101 -0.0001214 -0.0005497 0.0002444 -0.0003143 0.0005693 -0.0005454
-0.0001846 0.0015335 0.0000270 -0.0003919 0.0001786 -0.0000210 -0.0003431 -0.0001881 -0.0003644 0.0001450 -0.0002036 0.0004698 -0.0001090 -0.0006919 -0.0001779 -0.0006301 0.0002748 -0.0000590 0.0006309 -0.0003853
0.0004483 0.0017254 0.0000473 -0.0001838 0.0002191 0.0003971 -0.0003605 0.0002842 -0.0004093 0.0003620 -0.0001792 0.0005983 -0.0001546 -0.0006586 -0.0002025 -0.0008057 0.0002725 -0.0000643 0.0006060 -0.0001776
0.0011514 0.0008524 0.0000441 -0.0001590 0.0002355 0.0003734 -0.0003566 0.0002939 -0.0004108 0.0003289 -0.0001533 0.0006029 -0.0001793 -0.0007270 -0.0002090 -0.0009487 0.0002620 -0.0002125 0.0005268 -0.0003893
0.0005155 0.0010256 0.0000679 -0.0002371 0.0002596 0.0001802 -0.0003708 0.0002220 -0.0004348 0.0001896 -0.0001491 0.0005675 -0.0001723 -0.0008333 -0.0002356 -0.0010249 0.0002612 -0.0001959 0.0005670 -0.0004100
0.0010943 0.0004563 0.0000787 -0.0001385 0.0002666 0.0003651 -0.0003978 0.0004957 -0.0004629 0.0003292 -0.0001588 0.0006377 -0.0002194 -0.0007378 -0.0003120 -0.0008886 0.0002534 -0.0000107 0.0007054 -0.0001893
0.0010957 0.0007020 0.0000665 0.0000845 0.0002726 0.0007629 -0.0004224 0.0009394 -0.0004797 0.0007231 -0.0001608 0.0008098 -0.0002628 -0.0004837 -0.0003463 -0.0007131 0.0002493 0.0000810 0.0007300 -0.0001977
0.0006140 0.0015109 0.0000510 0.0001054 0.0002762 0.0007728 -0.0004512 0.0009717 -0.0005008 0.0006503 -0.0001751 0.0007536 -0.0002253 -0.0005293 -0.0002853 -0.0008737 0.0002346 -0.0002251 0.0005966 -0.0004154
0.0006801 0.0008712 0.0000462 -0.0001309 0.0002636 0.0003439 -0.0004853 0.0006589 -0.0005260 0.0002711 -0.0001810 0.0005903 -0.0002128 -0.0006691 -0.0002976 -0.0009360 0.0002195 -0.0004889 0.0005421 -0.0004981
0.0001868 0.0009538 0.0000526 -0.0001987 0.0002481 0.0002519 -0.0004799 0.0006839 -0.0005402 0.0003096 -0.0001875 0.0005896 -0.0002418 -0.0004869 -0.0003284 -0.0008204 0.0002465 -0.0004152 0.0006150 -0.0005603
0.0000931 0.0012664 0.0000477 -0.0000747 0.0002184 0.0004449 -0.0004710 0.0009786 -0.0005459 0.0006131 -0.0002192 0.0006527 -0.0002498 -0.0002009 -0.0002843 -0.0006265 0.0002862 -0.0000913 0.0006187 -0.0003105
0.0000124 0.0015047 0.0000162 0.0000908 0.0002143 0.0006825 -0.0005147 0.0012564 -0.0005481 0.0007155 -0.0002438 0.0006492 -0.0002245 -0.0001677 -0.0002165 -0.0006757 0.0002948 -0.0001548 0.0006412 -0.0004702
-0.0006514 0.0017479 0.0000025 -0.0000092 0.0002249 0.0004976 -0.0005410 0.0011165 -0.0005569 0.0005147 -0.0002451 0.0005543 -0.0002258 -0.0002816 -0.0002309 -0.0008804 0.0002913 -0.0004289 0.0005489 -0.0007651
-0.0004372 0.0010395 0.0000171 -0.0001209 0.0001729 0.0002383 -0.0005508 0.0010343 -0.0005694 0.0005030 -0.0002379 0.0005399 -0.0001967 -0.0001546 -0.0002513 -0.0006385 0.0003096 -0.0003558 0.0005303 -0.0006869
0.0000924 0.0010140 0.0000113 -0.0000055 0.0001007 0.0002648 -0.0006059 0.0012096 -0.0005675 0.0007180 -0.0002566 0.0005914 -0.0001606 0.0001782 -0.0001267 -0.0001353 0.0003570 -0.0000153 0.0006593 -0.0004794
0.0000213 0.0020029 -0.0000351 0.0001399 0.0000424 0.0004620 -0.0006902 0.0015440 -0.0005807 0.0010977 -0.0002945 0.0007258 -0.0001207 0.0005456 -0.0000791 0.0003720 0.0003959 0.0001905 0.0006227 -0.0004658
-0.0005032 0.0025386 -0.0001000 0.0000497 0.0000182 0.0003681 -0.0007332 0.0015531 -0.0005886 0.0010333 -0.0003256 0.0006506 -0.0000301 0.0006961 -0.0000480 0.0005576 0.0004006 -0.0000737 0.0006006 -0.0008616
-0.0000060 0.0011341 -0.0001312 -0.0002103 -0.0000057 -0.0000245 -0.0007522 0.0012707 -0.0005803 0.0007230 -0.0003521 0.0004278 0.0000192 0.0007557 0.0000544 0.0006657 0.0004048 -0.0002422 0.0005833 -0.0009055
0.0009927 0.0000059 -0.0001383 -0.0002404 -0.0000509 -0.0000775 -0.0007770 0.0013164 -0.0005800 0.0007672 -0.0003755 0.0004037 0.0000176 0.0009828 0.0001038 0.0010094 0.0004152 -0.0000947 0.0006281 -0.0007167
0.0007225 0.0007260 -0.0001489 -0.0001029 -0.0000837 0.0001213 -0.0007893 0.0015661 -0.0005830 0.0009768 -0.0003861 0.0004912 0.0000061 0.0013103 0.0001404 0.0013744 0.0004198 0.0001322 0.0007982 -0.0006607
-0.0001120 0.0013096 -0.0001679 -0.0000530 -0.0000819 0.0001666 -0.0008224 0.0016029 -0.0005766 0.0009282 -0.0003911 0.0004807 -0.0000020 0.0013373 0.0001404 0.0013568 0.0004189 -0.0000462 0.0007813 -0.0009075
0.0003882 0.0005739 -0.0001776 -0.0002291 -0.0000916 -0.0001017 -0.0008661 0.0013601 -0.0005715 0.0006592 -0.0003838 0.0004126 -0.0000498 0.0011430 0.0000534 0.0010761 0.0004119 -0.0003482 0.0006480 -0.0010910
-0.0003350 0.0012420 -0.0001847 -0.0003260 -0.0001194 -0.0002150 -0.0008618 0.0012509 -0.0005539 0.0006809 -0.0003468 0.0005327 -0.0001038 0.0010506 -0.0000365 0.0008064 0.0004055 -0.0003470 0.0005611 -0.0009202
-0.0006730 0.0016216 -0.0001816 -0.0002210 -0.0001280 -0.0000411 -0.0008637 0.0014180 -0.0005148 0.0009453 -0.0003074 0.0007427 -0.0001459 0.0010878 -0.0000814 0.0006370 0.0003958 -0.0002243 0.0005606 -0.0007668
0.0007557 0.0003964 -0.0001757 -0.0000734 -0.0001394 0.0002397 -0.0009062 0.0016390 -0.0004763 0.0010631 -0.0002959 0.0008103 -0.0002090 0.0010472 -0.0001602 0.0004748 0.0003756 -0.0003941 0.0005474 -0.0010526
0.0009778 -0.0001269 -0.0001815 -0.0002294 -0.0001568 0.0000051 -0.0009103 0.0013152 -0.0004680 0.0007689 -0.0003022 0.0006454 -0.0002358 0.0007556 -0.0001844 0.0001949 0.0003745 -0.0007711 0.0005029 -0.0014066
0.0006956 -0.0003310 -0.0001736 -0.0005021 -0.0001490 -0.0004419 -0.0008959 0.0009700 -0.0004664 0.0005304 -0.0003010 0.0004973 -0.0002194 0.0005919 -0.0001495 0.0000789 0.0003848 -0.0008195 0.0005353 -0.0014019
0.0002603 -0.0000740 -0.0001488 -0.0004856 -0.0001296 -0.0004046 -0.0008714 0.0010509 -0.0004532 0.0006002 -0.0002988 0.0005008 -0.0001976 0.0006905 -0.0001205 0.0001696 0.0003950 -0.0006709 0.0004841 -0.0012220
0.0004259 0.0000319 -0.0001459 -0.0003239 -0.0001410 -0.0001338 -0.0008349 0.0012981 -0.0004403 0.0008628 -0.0002979 0.0005797 -0.0001815 0.0009131 -0.0001036 0.0003758 0.0004121 -0.0006021 0.0005252 -0.0013455
0.0012860 -0.0008019 -0.0001455 -0.0003529 -0.0001297 -0.0002192 -0.0008395 0.0012190 -0.0004211 0.0007321 -0.0003025 0.0004603 -0.0001739 0.0007996 -0.0000595 0.0002401 0.0004229 -0.0008035 0.0006786 -0.0017083
0.0014215 -0.0012560 -0.0001208 -0.0005701 -0.0001137 -0.0005756 -0.0008397 0.0008236 -0.0003975 0.0003746 -0.0002925 0.0002598 -0.0001610 0.0005339 -0.0000520 -0.0000057 0.0004283 -0.0009651 0.0006275 -0.0017403
0.0000083 0.0001301 -0.0001079 -0.0006234 -0.0001050 -0.0006109 -0.0008070 0.0007880 -0.0003618 0.0003999 -0.0002721 0.0002548 -0.0001165 0.0005296 -0.0000897 -0.0000178 0.0004325 -0.0008958 0.0006239 -0.0017095
-0.0005079 0.0008591 -0.0000998 -0.0005328 -0.0001109 -0.0003667 -0.0007620 0.0010539 -0.0003391 0.0006502 -0.0002768 0.0003615 -0.0001345 0.0006507 -0.0001068 -0.0000257 0.0004260 -0.0006039 0.0006801 -0.0015036
-0.0001514 0.0009441 -0.0000963 -0.0002987 -0.0001115 0.0000940 -0.0007599 0.0013914 -0.0003304 0.0008101 -0.0002832 0.0004785 -0.0001994 0.0005270 -0.0002000 -0.0002316 0.0003865 -0.0006802 0.0006843 -0.0015329
0.0006592 0.0002918 -0.0000510 -0.0002287 -0.0000811 -0.0000955 -0.0007673 0.0010319 -0.0003187 0.0005034 -0.0002569 0.0004021 -0.0002104 0.0000428 -0.0002258 -0.0007131 0.0003754 -0.0009584 0.0005065 -0.0019939
0.0005516 0.0003100 0.0000393 -0.0002640 -0.0000535 -0.0006098 -0.0007187 0.0005086 -0.0003057 0.0001560 -0.0002218 0.0003070 -0.0002203 -0.0001921 -0.0001868 -0.0010064 0.0003966 -0.0008997 0.0004503 -0.0019403
-0.0001898 0.0010910 0.0000875 -0.0001784 0.0000115 -0.0004830 -0.0006332 0.0006979 -0.0002894 0.0002132 -0.0001962 0.0003780 -0.0001686 -0.0001306 -0.0002178 -0.0009547 0.0004008 -0.0007684 0.0006286 -0.0014834
0.0001345 0.0012768 0.0000949 -0.0000517 0.0000505 -0.0000753 -0.0005336 0.0011496 -0.0002700 0.0005498 -0.0001703 0.0005455 -0.0001126 0.0000628 -0.0002092 -0.0007770 0.0004088 -0.0007082 0.0006071 -0.0014239
0.0001564 0.0010367 0.0000860 -0.0001129 0.0000673 -0.0000841 -0.0004831 0.0011244 -0.0002457 0.0004634 -0.0001469 0.0005061 -0.0001210 -0.0000016 -0.0001720 -0.0008742 0.0004044 -0.0009053 0.0006252 -0.0016900
-0.0005749 0.0007450 0.0000923 -0.0003587 0.0001078 -0.0003931 -0.0004452 0.0007289 -0.0002237 0.0000964 -0.0001258 0.0003224 -0.0000874 -0.0002491 -0.0001287 -0.0011116 0.0004107 -0.0010420 0.0007087 -0.0017504
-0.0000401 0.0002580 0.0001282 -0.0004225 0.0001299 -0.0004030 -0.0003999 0.0006898 -0.0002034 0.0001073 -0.0001082 0.0002898 -0.0000350 -0.0002534 -0.0000736 -0.0010703 0.0004233 -0.0009108 0.0007889 -0.0015791
0.0008849 -0.0000121 0.0001473 -0.0002824 0.0001435 -0.0001449 -0.0003631 0.0009204 -0.0001869 0.0003399 -0.0000977 0.0003507 -0.0000011 -0.0001621 -0.0001021 -0.0008564 0.0004305 -0.0006201 0.0008689 -0.0012476
0.0010096 0.0000943 0.0001406 -0.0000964 0.0001654 0.0001662 -0.0003389 0.0011070 -0.0001745 0.0003828 -0.0001032 0.0003518 0.0000019 -0.0001758 -0.0000753 -0.0009110 0.0004248 -0.0007031 0.0008599 -0.0012764
0.0007841 -0.0000445 0.0001461 -0.0002250 0.0001815 -0.0000510 -0.0003196 0.0008682 -0.0001587 0.0000977 -0.0000977 0.0002038 -0.0000001 -0.0003375 0.0000596 -0.0012329 0.0004277 -0.0010005 0.0007700 -0.0015408
-0.0000786 -0.0000770 0.0001732 -0.0004439 0.0001821 -0.0004025 -0.0002644 0.0006270 -0.0001456 -0.0000418 -0.0000717 0.0001341 0.0000738 -0.0003404 0.0001261 -0.0012676 0.0004603 -0.0010241 0.0006983 -0.0016233
-0.0003433 -0.0000075 0.0001708 -0.0004371 0.0001093 -0.0005483 -0.0002441 0.0007069 -0.0000982 0.0003770 -0.0000452 0.0002233 0.0001466 -0.0002125 0.0001069 -0.0010269 0.0004722 -0.0008068 0.0006989 -0.0014737
-0.0003392 0.0006554 0.0001376 -0.0003048 0.0000851 -0.0003298 -0.0002407 0.0010428 -0.0000469 0.0009398 -0.0000360 0.0003926 0.0001318 -0.0001450 0.0000667 -0.0008668 0.0004695 -0.0005925 0.0006762 -0.0013239
0.0000133 0.0002632 0.0001238 -0.0003401 0.0001688 -0.0001782 -0.0002329 0.0010269 -0.0000175 0.0007801 -0.0000414 0.0003380 0.0000868 -0.0002904 0.0000813 -0.0010472 0.0004559 -0.0008333 0.0006802 -0.0015718
0.0008812 -0.0007067 0.0001256 -0.0006046 0.0002008 -0.0004727 -0.0002222 0.0005970 0.0000147 0.0003806 -0.0000363 0.0001592 0.0001293 -0.0005074 0.0001106 -0.0012493 0.0004350 -0.0010769 0.0007012 -0.0016749
0.0009824 -0.0010664 0.0001222 -0.0006569 0.0002021 -0.0004535 -0.0001652 0.0005436 0.0000453 0.0004378 -0.0000156 0.0001917 0.0001866 -0.0004849 0.0001134 -0.0012056 0.0004274 -0.0009402 0.0006681 -0.0014688
0.0011030 -0.0012527 0.0001078 -0.0004586 0.0002191 -0.0001288 -0.0001309 0.0008568 0.0000733 0.0007619 0.0000016 0.0003266 0.0001842 -0.0002956 0.0001132 -0.0010245 0.0004316 -0.0006323 0.0006988 -0.0011879
0.0014689 -0.0007488 0.0000841 -0.0002908 0.0002269 0.0001805 -0.0001434 0.0010487 0.0000911 0.0008798 -0.0000020 0.0003549 0.0001203 -0.0002674 0.0001288 -0.0010486 0.0004134 -0.0007769 0.0006972 -0.0013950
0.0014417 -0.0011947 0.0000597 -0.0004600 0.0002288 0.0000172 -0.0001734 0.0007777 0.0000948 0.0006378 -0.0000076 0.0002363 0.0001494 -0.0005100 0.0001207 -0.0012475 0.0003868 -0.0011106 0.0005892 -0.0016783
0.0005429 -0.0013298 0.0000476 -0.0006920 0.0002461 -0.0001939 -0.0001795 0.0005350 0.0001074 0.0004839 0.0000221 0.0002135 0.0002302 -0.0006823 0.0000851 -0.0013255 0.0004025 -0.0010142 0.0005396 -0.0013902
-0.0000070 -0.0000802 0.0000591 -0.0005704 0.0002523 -0.0000495 -0.0001612 0.0005590 0.0001136 0.0006080 0.0000480 0.0003308 0.0001477 -0.0005100 0.0000925 -0.0012483 0.0004384 -0.0006615 0.0006298 -0.0009598
0.0006567 0.0005170 0.0000683 -0.0002973 0.0002620 0.0002916 -0.0001771 0.0007192 0.0001180 0.0007504 0.0000681 0.0004593 0.0000664 -0.0004991 0.0000743 -0.0012932 0.0004370 -0.0006189 0.0006990 -0.0009333
0.0001339 0.0009475 0.0000728 -0.0003853 0.0002955 0.0002715 -0.0002335 0.0004803 0.0001298 0.0005320 0.0000950 0.0004457 0.0000901 -0.0008032 0.0000353 -0.0015722 0.0004249 -0.0008556 0.0007513 -0.0011167
-0.0005076 0.0005577 0.0000585 -0.0006093 0.0003013 -0.0000243 -0.0002666 0.0000368 0.0001350 0.0003028 0.0001127 0.0003990 0.0001225 -0.0008835 0.0000359 -0.0016399 0.0004395 -0.0008510 0.0007281 -0.0010181
0.0002354 -0.0002104 0.0000394 -0.0006008 0.0003023 0.0000128 -0.0002735 -0.0000222 0.0001428 0.0003570 0.0001285 0.0004833 0.0001227 -0.0008775 -0.0000083 -0.0014982 0.0004552 -0.0006770 0.0006902 -0.0007068
0.0001637 0.0008652 0.0000227 -0.0004539 0.0003087 0.0002917 -0.0002948 0.0001458 0.0001466 0.0005062 0.0001383 0.0005973 0.0000684 -0.0008681 -0.0000241 -0.0014883 0.0004506 -0.0006585 0.0007217 -0.0006850
0.0001136 0.0007366 -0.0000044 -0.0005120 0.0003231 0.0003070 -0.0003091 0.0000125 0.0001494 0.0003625 0.0001456 0.0005559 0.0000387 -0.0009964 0.0000077 -0.0016601 0.0004378 -0.0008293 0.0006240 -0.0008339
0.0011787 -0.0012467 -0.0000288 -0.0007180 0.0003415 0.0000986 -0.0003069 -0.0002964 0.0001529 0.0001039 0.0001576 0.0004677 0.0000613 -0.0011348 0.0000177 -0.0017191 0.0004426 -0.0008488 0.0006305 -0.0008496
0.0010259 -0.0007359 -0.0000554 -0.0007022 0.0003474 0.0001624 -0.0002972 -0.0002545 0.0001591 0.0001419 0.0001677 0.0005149 0.0001057 -0.0010642 0.0000320 -0.0016873 0.0004506 -0.0006926 0.0007448 -0.0007370
0.0004294 0.0007340 -0.0000861 -0.0005426 0.0003563 0.0004077 -0.0002789 -0.0000328 0.0001627 0.0002864 0.0001704 0.0005953 0.0001079 -0.0009846 0.0000322 -0.0016503 0.0004436 -0.0007167 0.0006815 -0.0007130
0.0008834 0.0001991 -0.0001099 -0.0006148 0.0003534 0.0003525 -0.0002773 -0.0001226 0.0001688 0.0001374 0.0001770 0.0005138 0.0000486 -0.0010587 0.0000447 -0.0017459 0.0004392 -0.0009458 0.0006002 -0.0009080
0.0012195 -0.0008081 -0.0001170 -0.0008399 0.0003457 0.0000979 -0.0002598 -0.0004458 0.0001717 -0.0001349 0.0001846 0.0003900 0.0000929 -0.0012133 0.0000489 -0.0018998 0.0004355 -0.0009862 0.0006974 -0.0009534
0.0009892 -0.0005692 -0.0001242 -0.0008204 0.0003534 0.0001427 -0.0002366 -0.0004763 0.0001756 -0.0001177 0.0001974 0.0004216 0.0001541 -0.0012466 0.0000131 -0.0018238 0.0004302 -0.0008420 0.0007650 -0.0007900
0.0003714 0.0003425 -0.0001423 -0.0006572 0.0003569 0.0003597 -0.0002665 -0.0002845 0.0001825 0.0000279 0.0002053 0.0005301 0.0001256 -0.0011882 0.0000391 -0.0018005 0.0004290 -0.0008632 0.0006900 -0.0007547
0.0004723 0.0003347 -0.0001697 -0.0006955 0.0003471 0.0002988 -0.0002754 -0.0004436 0.0001872 -0.0001279 0.0002121 0.0004615 0.0000850 -0.0013411 0.0001089 -0.0020709 0.0004202 -0.0010925 0.0006311 -0.0009923
0.0007733 -0.0006661 -0.0001784 -0.0009518 0.0003640 0.0000028 -0.0002469 -0.0008457 0.0002027 -0.0004587 0.0002273 0.0002930 0.0000960 -0.0016026 0.0000992 -0.0022419 0.0004198 -0.0011845 0.0006425 -0.0010142
0.0006654 -0.0008431 -0.0001736 -0.0010002 0.0003807 -0.0000079 -0.0001990 -0.0009309 0.0002241 -0.0004911 0.0002438 0.0003106 0.0001214 -0.0016387 0.0000622 -0.0021529 0.0004314 -0.0010592 0.0006624 -0.0008333
0.0011515 -0.0009220 -0.0001722 -0.0008452 0.0003831 0.0002130 -0.0001567 -0.0007878 0.0002301 -0.0003499 0.0002615 0.0004201 0.0001342 -0.0015112 0.0000609 -0.0019978 0.0004451 -0.0008805 0.0006760 -0.0007668
0.0007890 -0.0007199 -0.0001683 -0.0008490 0.0004043 0.0002466 -0.0001543 -0.0007649 0.0002405 -0.0004148 0.0002676 0.0003894 0.0001282 -0.0015812 0.0001271 -0.0021430 0.0004450 -0.0010580 0.0007661 -0.0010356
0.0002121 -0.0003131 -0.0001764 -0.0010669 0.0004188 0.0000008 -0.0001429 -0.0009932 0.0002604 -0.0006917 0.0002672 0.0002346 0.0001587 -0.0018449 0.0001930 -0.0024040 0.0004511 -0.0013200 0.0007847 -0.0011908
0.0004274 -0.0004707 -0.0001672 -0.0011403 0.0004178 -0.0000806 -0.0000968 -0.0010838 0.0002731 -0.0007652 0.0002808 0.0001895 0.0002117 -0.0019273 0.0002502 -0.0024314 0.0004633 -0.0012489 0.0007425 -0.0010333
0.0000051 0.0003257 -0.0001553 -0.0010262 0.0004326 0.0001036 -0.0000598 -0.0009293 0.0002745 -0.0006394 0.0002901 0.0002533 0.0002398 -0.0018820 0.0002711 -0.0022987 0.0004681 -0.0010068 0.0007839 -0.0007729
-0.0001706 0.0003978 -0.0001662 -0.0008307 0.0004312 0.0004043 -0.0000765 -0.0006312 0.0002673 -0.0004327 0.0002859 0.0003521 0.0002216 -0.0017855 0.0002425 -0.0021737 0.0004660 -0.0009858 0.0006981 -0.0007379
0.0006045 -0.0009630 -0.0001784 -0.0008875 0.0004086 0.0003496 -0.0001099 -0.0007864 0.0002540 -0.0005620 0.0002739 0.0002649 0.0001960 -0.0019580 0.0002655 -0.0023784 0.0004554 -0.0011890 0.0007095 -0.0010716
0.0008791 -0.0010064 -0.0001733 -0.0011039 0.0003927 0.0000758 -0.0001191 -0.0010931 0.0002456 -0.0008221 0.0002629 0.0001225 0.0001818 -0.0021388 0.0003124 -0.0025441 0.0004626 -0.0012008 0.0007852 -0.0010897
0.0003548 -0.0005099 -0.0001439 -0.0010897 0.0003924 0.0001183 -0.0000925 -0.0010132 0.0002455 -0.0007729 0.0002582 0.0001052 0.0002030 -0.0019663 0.0003373 -0.0022850 0.0004864 -0.0009741 0.0007581 -0.0008249
-0.0000142 -0.0003052 -0.0001326 -0.0009195 0.0004029 0.0003461 -0.0000658 -0.0007374 0.0002371 -0.0005436 0.0002494 0.0001665 0.0002673 -0.0016957 0.0003363 -0.0018967 0.0005032 -0.0006130 0.0007445 -0.0005296
0.0004573 -0.0006124 -0.0001321 -0.0007925 0.0004075 0.0004976 -0.0000773 -0.0005580 0.0002288 -0.0004891 0.0002416 0.0002035 0.0002857 -0.0016337 0.0003125 -0.0018845 0.0005054 -0.0007320 0.0007393 -0.0006850
0.0007128 -0.0010616 -0.0001327 -0.0009018 0.0003992 0.0003317 -0.0001150 -0.0007233 0.0002240 -0.0006918 0.0002400 0.0001263 0.0002937 -0.0018026 0.0003528 -0.0021209 0.0005040 -0.0010308 0.0007760 -0.0010214
0.0009404 -0.0011297 -0.0001347 -0.0010110 0.0003904 0.0002015 -0.0001370 -0.0007773 0.0002198 -0.0007278 0.0002441 0.0001120 0.0002809 -0.0018329 0.0003286 -0.0021190 0.0005110 -0.0009633 0.0008009 -0.0009457
0.0010116 -0.0014144 -0.0001258 -0.0009179 0.0003844 0.0003674 -0.0001240 -0.0005582 0.0002133 -0.0005429 0.0002444 0.0002146 0.0002646 -0.0016893 0.0002826 -0.0019883 0.0005221 -0.0007409 0.0008488 -0.0007511
0.0002646 -0.0007193 -0.0001258 -0.0007216 0.0003731 0.0006472 -0.0001351 -0.0002842 0.0002139 -0.0003936 0.0002385 0.0003005 0.0002262 -0.0016261 0.0003223 -0.0020011 0.0005155 -0.0008088 0.0007756 -0.0008066
0.0001915 -0.0003426 -0.0001339 -0.0007985 0.0003728 0.0005415 -0.0001588 -0.0004307 0.0002138 -0.0005708 0.0002318 0.0002285 0.0002149 -0.0018255 0.0003569 -0.0022120 0.0005035 -0.0011228 0.0007330 -0.0011010
0.0002640 -0.0004432 -0.0001204 -0.0010445 0.0003821 0.0002298 -0.0001821 -0.0007014 0.0002112 -0.0007776 0.0002253 0.0001549 0.0002024 -0.0019452 0.0003629 -0.0022919 0.0005169 -0.0011636 0.0007599 -0.0011572
0.0003813 -0.0010520 -0.0001059 -0.0010497 0.0003951 0.0002616 -0.0001872 -0.0006480 0.0002116 -0.0007118 0.0002234 0.0002169 0.0001383 -0.0017998 0.0003392 -0.0021841 0.0005278 -0.0009877 0.0007028 -0.0008740
0.0011705 -0.0014904 -0.0001124 -0.0009018 0.0003937 0.0004844 -0.0001846 -0.0004219 0.0002091 -0.0005048 0.0002261 0.0003440 0.0001659 -0.0016321 0.0003167 -0.0020925 0.0005198 -0.0008693 0.0007201 -0.0008129
0.0011430 -0.0010687 -0.0001173 -0.0009110 0.0003980 0.0004733 -0.0002153 -0.0004184 0.0002148 -0.0005844 0.0002219 0.0003286 0.0001600 -0.0017368 0.0003327 -0.0022085 0.0005118 -0.0010872 0.0007203 -0.0010588
0.0002954 -0.0013981 -0.0001088 -0.0011491 0.0004117 0.0001661 -0.0002247 -0.0007941 0.0002259 -0.0008875 0.0002255 0.0002009 0.0001272 -0.0019662 0.0003925 -0.0024256 0.0005171 -0.0012758 0.0007401 -0.0011958
0.0010222 -0.0019341 -0.0000855 -0.0012503 0.0004132 0.0000755 -0.0001981 -0.0009637 0.0002408 -0.0009246 0.0002361 0.0002111 0.0001650 -0.0019680 0.0003900 -0.0024045 0.0005375 -0.0011766 0.0007146 -0.0010437
0.0007154 -0.0012744 -0.0000707 -0.0011307 0.0004242 0.0002237 -0.0001923 -0.0008046 0.0002530 -0.0007626 0.0002411 0.0003305 0.0001528 -0.0017709 0.0003485 -0.0022272 0.0005544 -0.0009279 0.0007109 -0.0007173
0.0006739 -0.0013453 -0.0000691 -0.0009419 0.0004311 0.0004656 -0.0002090 -0.0006093 0.0002677 -0.0006511 0.0002471 0.0004072 0.0001007 -0.0016832 0.0004060 -0.0022732 0.0005596 -0.0010013 0.0006627 -0.0008433
0.0011266 -0.0013801 -0.0000735 -0.0010511 0.0004262 0.0003300 -0.0002092 -0.0008259 0.0002794 -0.0008217 0.0002402 0.0003416 0.0001050 -0.0018452 0.0004647 -0.0025552 0.0005557 -0.0013176 0.0007086 -0.0012657
0.0002010 -0.0007216 -0.0000659 -0.0012883 0.0004230 0.0000037 -0.0001829 -0.0011003 0.0002869 -0.0009766 0.0002364 0.0002746 0.0001179 -0.0018504 0.0004388 -0.0025503 0.0005634 -0.0013455 0.0008338 -0.0013870
0.0004509 -0.0011110 -0.0000428 -0.0012037 0.0004244 0.0000091 -0.0001380 -0.0009907 0.0002952 -0.0008863 0.0002286 0.0003114 0.0001409 -0.0015644 0.0004937 -0.0022857 0.0005862 -0.0011582 0.0007386 -0.0013350
0.0006327 -0.0016701 -0.0000163 -0.0009162 0.0004004 0.0001662 -0.0000999 -0.0005673 0.0002885 -0.0006138 0.0002053 0.0004390 0.0002501 -0.0010894 0.0005647 -0.0018106 0.0006108 -0.0008736 0.0006838 -0.0015380
-0.0001865 -0.0008475 -0.0000208 -0.0007518 0.0003584 0.0001628 -0.0000746 -0.0002639 0.0002795 -0.0005258 0.0001646 0.0004140 0.0003388 -0.0008885 0.0006003 -0.0016089 0.0006423 -0.0009960 0.0005706 -0.0019174
-0.0005765 -0.0004313 -0.0000596 -0.0009050 0.0003156 -0.0000791 -0.0000637 -0.0003147 0.0002824 -0.0006617 0.0001275 0.0002731 0.0003560 -0.0009706 0.0006110 -0.0017804 0.0006608 -0.0012018 0.0005921 -0.0022397
0.0001389 -0.0009744 -0.0000670 -0.0009780 0.0002734 -0.0001939 -0.0000501 -0.0002931 0.0002819 -0.0005912 0.0000907 0.0002108 0.0003933 -0.0007987 0.0006046 -0.0015677 0.0006931 -0.0009805 0.0007103 -0.0020813
0.0003323 0.0000502 -0.0000341 -0.0007102 0.0003112 0.0002422 -0.0000216 0.0000631 0.0002669 -0.0002766 0.0000417 0.0001630 0.0004574 -0.0003920 0.0006608 -0.0009781 0.0007465 -0.0005254 0.0007707 -0.0016730
0.0000431 0.0008249 -0.0000095 -0.0003494 0.0003391 0.0007956 -0.0000365 0.0004350 0.0002727 -0.0001101 0.0000051 0.0001122 0.0004877 -0.0001453 0.0007540 -0.0005063 0.0007650 -0.0004840 0.0007202 -0.0017049
-0.0002437 0.0008244 0.0000086 -0.0003457 0.0002962 0.0005307 -0.0000531 0.0002262 0.0002812 -0.0002878 -0.0000174 0.0000256 0.0004939 -0.0001688 0.0007961 -0.0004170 0.0007652 -0.0007466 0.0006379 -0.0018183
-0.0000463 0.0005866 0.0000258 -0.0004595 0.0002499 0.0000811 -0.0000376 -0.0000125 0.0002874 -0.0003466 -0.0000107 0.0000445 0.0004906 -0.0001469 0.0007491 -0.0004401 0.0007695 -0.0006975 0.0007472 -0.0019011
0.0007816 0.0006072 0.0000304 -0.0003398 0.0001887 0.0000514 -0.0000408 0.0001786 0.0003020 -0.0001277 0.0000005 0.0002046 0.0004825 0.0000522 0.0006964 -0.0003187 0.0007709 -0.0004748 0.0008108 -0.0018829
0.0010701 0.0010498 0.0000138 -0.0001614 0.0001404 0.0002135 -0.0000612 0.0005355 0.0003084 0.0001112 -0.0000011 0.0003408 0.0004628 0.0002042 0.0006733 -0.0002861 0.0007578 -0.0005672 0.0007918 -0.0020732
0.0000266 0.0015539 0.0000067 -0.0002600 0.0001004 0.0000031 -0.0000821 0.0003899 0.0003049 -0.0000024 -0.0000041 0.0003084 0.0004325 0.0000830 0.0006271 -0.0004403 0.0007230 -0.0008691 0.0007299 -0.0022758
-0.0000394 0.0008448 0.0000162 -0.0004488 0.0000727 -0.0003698 -0.0000825 0.0000803 0.0003019 -0.0001264 0.0000036 0.0002736 0.0004337 0.0000062 0.0005676 -0.0005007 0.0007035 -0.0008237 0.0006383 -0.0020815
0.0005650 0.0004460 0.0000139 -0.0003195 0.0000574 -0.0002661 -0.0000724 0.0002435 0.0003048 0.0000918 0.0000143 0.0003840 0.0003854 0.0001683 0.0005095 -0.0003869 0.0007041 -0.0005844 0.0005625 -0.0017841
0.0003710 0.0010392 0.0000050 -0.0000754 0.0000315 0.0000570 -0.0000789 0.0006046 0.0002940 0.0004381 0.0000078 0.0005313 0.0003344 0.0002947 0.0004640 -0.0003447 0.0006871 -0.0005375 0.0005490 -0.0016928
0.0006083 0.0007484 -0.0000009 -0.0000383 0.0000347 0.0000115 -0.0001198 0.0004964 0.0002805 0.0003495 -0.0000034 0.0004956 0.0002982 0.0001757 0.0004498 -0.0005208 0.0006485 -0.0007035 0.0006097 -0.0018954
0.0008111 0.0006450 0.0000001 -0.0001321 0.0000411 -0.0002574 -0.0001428 0.0001748 0.0002732 0.0001268 -0.0000040 0.0004098 0.0002304 0.0001061 0.0003963 -0.0005818 0.0006134 -0.0006633 0.0007029 -0.0019139
0.0006492 0.0005682 -0.0000004 -0.0000494 0.0000272 -0.0001431 -0.0001235 0.0003317 0.0002672 0.0003200 0.0000022 0.0004896 0.0002553 0.0002174 0.0003295 -0.0003713 0.0005907 -0.0004140 0.0007001 -0.0017018
0.0003758 0.0010549 -0.0000096 0.0001521 0.0000105 0.0001760 -0.0001309 0.0006913 0.0002579 0.0006357 0.0000008 0.0006121 0.0002224 0.0003531 0.0003389 -0.0002425 0.0005662 -0.0003858 0.0006144 -0.0016835
0.0008119 0.0010212 -0.0000246 0.0001752 0.0000034 0.0000956 -0.0001554 0.0006084 0.0002439 0.0005506 -0.0000105 0.0005618 0.0001673 0.0002870 0.0003343 -0.0003373 0.0005405 -0.0005829 0.0005600 -0.0017990
0.0005167 0.0011823 -0.0000122 0.0000690 0.0000075 -0.0001807 -0.0001572 0.0002786 0.0002254 0.0003182 -0.0000164 0.0004576 0.0001671 0.0001519 0.0002932 -0.0003612 0.0005192 -0.0005735 0.0005694 -0.0017438
0.0006132 0.0009399 -0.0000119 0.0001295 0.0000034 -0.0000519 -0.0001591 0.0004381 0.0002089 0.0004886 -0.0000154 0.0005203 0.0001464 0.0002790 0.0002503 -0.0002255 0.0004950 -0.0003327 0.0006476 -0.0015345
0.0009635 0.0009242 -0.0000378 0.0003194 -0.0000138 0.0002598 -0.0001672 0.0007766 0.0001923 0.0008082 -0.0000150 0.0006369 0.0001314 0.0004433 0.0002347 -0.0000836 0.0004703 -0.0002862 0.0006757 -0.0015698
0.0003498 0.0017018 -0.0000659 0.0002995 -0.0000184 0.0001378 -0.0002022 0.0006129 0.0001758 0.0006743 -0.0000213 0.0005547 0.0001278 0.0002515 0.0002219 -0.0002150 0.0004443 -0.0005844 0.0005109 -0.0017272
-0.0001459 0.0015412 -0.0000819 0.0000854 -0.0000151 -0.0002946 -0.0002316 0.0001278 0.0001657 0.0002894 -0.0000214 0.0003703 0.0001044 -0.0000154 0.0001923 -0.0004325 0.0004258 -0.0007388 0.0004683 -0.0017055
-0.0003415 0.0012675 -0.0000729 0.0000862 -0.0000019 -0.0003505 -0.0002040 0.0001122 0.0001633 0.0003349 -0.0000012 0.0003692 0.0000927 0.0000542 0.0001906 -0.0004441 0.0004288 -0.0006143 0.0005082 -0.0015789
