-0.0000000 -0.0000000 -0.0000000 -0.0000000 -0.0000000 -0.0000000 -0.0000000 -0.0000000 -0.0000000 -0.0000000 -0.0000000 -0.0000000 -0.0000000 -0.0000000 -0.0000000 -0.0000000 -0.0000000 -0.0000000 -0.0000000 -0.0000000
-0.0000000 -0.0000000 -0.0000000 -0.0000000 -0.0000000 -0.0000000 -0.0000000 -0.0000000 -0.0000000 -0.0000000 -0.0000000 -0.0000000 -0.0000000 -0.0000000 -0.0000000 -0.0000000 -0.0000000 -0.0000000 -0.0000000 -0.0000000
-0.0042091 0.0112189 0.0000024 0.0000588 -0.0000045 0.0000651 -0.0000248 0.0001070 0.0000005 0.0000518 0.0000024 0.0000422 0.0002345 -0.0001130 -0.0000020 0.0000391 -0.0000017 0.0000197 0.0000074 0.0000103
0.0083752 -0.0232208 0.0000010 0.0001288 -0.0000043 0.0001338 -0.0000104 0.0001975 -0.0000017 0.0001200 -0.0000116 0.0001101 0.0000415 0.0001155 -0.0000141 0.0000972 -0.0000032 0.0000468 -0.0000124 0.0000511
0.0037995 -0.0081897 0.0000008 0.0002030 -0.0000051 0.0002166 -0.0000059 0.0002907 0.0000194 0.0001753 -0.0000215 0.0001514 0.0001847 0.0000059 -0.0000064 0.0000686 0.0000002 0.0000336 -0.0000157 0.0000128
0.0017746 0.0064062 0.0000195 0.0000788 0.0000152 0.0001468 -0.0000399 0.0002098 0.0000115 0.0000947 -0.0000204 0.0000197 0.0002015 -0.0001697 0.0000198 -0.0001073 0.0000084 -0.0000826 -0.0000302 -0.0001334
0.0027209 0.0084032 0.0000412 -0.0002078 0.0000600 -0.0000995 -0.0000806 -0.0000823 0.0000302 -0.0001324 0.0000186 -0.0002290 0.0001342 -0.0004000 0.0000384 -0.0002364 0.0000123 -0.0002001 -0.0000451 -0.0002484
-0.0096605 0.0100472 0.0000295 -0.0002694 0.0000592 -0.0001877 -0.0000720 -0.0001998 0.0000296 -0.0001825 0.0000176 -0.0002530 0.0000691 -0.0004051 0.0000554 -0.0002382 0.0000135 -0.0002314 -0.0000370 -0.0003087
-0.0089203 0.0106230 0.0000184 -0.0002014 0.0000494 -0.0001443 -0.0000684 -0.0001109 0.0000142 -0.0001159 -0.0000155 -0.0001578 0.0000230 -0.0002207 0.0000583 -0.0001850 0.0000135 -0.0002225 -0.0000401 -0.0003086
-0.0055407 0.0012390 0.0000150 -0.0001060 0.0000431 -0.0000616 -0.0000278 -0.0000026 0.0000150 -0.0000329 0.0000071 -0.0000818 -0.0000302 -0.0000644 0.0000645 -0.0001102 0.0000113 -0.0001843 -0.0000485 -0.0002666
-0.0024547 0.0009487 0.0000128 0.0000022 0.0000153 0.0000553 -0.0000159 0.0001347 0.0000099 0.0000606 0.0000293 -0.0000106 -0.0001951 0.0002096 0.0000667 -0.0000326 0.0000066 -0.0001381 -0.0000299 -0.0002355
0.0071676 -0.0124445 0.0000068 0.0001104 0.0000025 0.0001639 0.0000017 0.0002655 0.0000060 0.0001579 0.0000219 0.0000929 -0.0005038 0.0006322 0.0000592 0.0000673 0.0000054 -0.0000824 -0.0000277 -0.0001834
0.0078091 -0.0285996 -0.0000224 0.0002212 -0.0000125 0.0003006 0.0000466 0.0004945 -0.0000088 0.0002850 0.0000906 0.0001864 -0.0003573 0.0005780 0.0000724 0.0001469 0.0000269 -0.0000314 -0.0000060 -0.0001537
0.0002122 -0.0144760 -0.0000327 0.0002831 -0.0000432 0.0004656 0.0000376 0.0007624 -0.0000208 0.0003546 0.0001165 0.0001429 -0.0001503 0.0002992 0.0000667 0.0000140 0.0000663 -0.0001108 0.0000091 -0.0002829
-0.0030012 -0.0144569 -0.0000159 0.0000796 -0.0000458 0.0003153 0.0000410 0.0005186 -0.0000058 0.0002216 0.0001072 -0.0001032 -0.0001347 -0.0000047 0.0000478 -0.0002513 0.0000955 -0.0002825 -0.0000059 -0.0004978
-0.0115591 0.0001907 -0.0000520 -0.0001692 -0.0000554 0.0000333 0.0000537 0.0001522 0.0000095 0.0001016 0.0001251 -0.0002187 0.0002244 -0.0004219 0.0000716 -0.0003650 0.0001230 -0.0003651 -0.0000137 -0.0005996
-0.0007307 -0.0022880 -0.0001131 -0.0001786 -0.0000866 0.0000281 0.0000901 0.0001916 -0.0000024 0.0001568 0.0001405 -0.0001761 0.0002284 -0.0003694 0.0000924 -0.0004031 0.0001430 -0.0003750 -0.0000231 -0.0006015
0.0033966 -0.0189579 -0.0001560 -0.0000983 -0.0001127 0.0001251 0.0001788 0.0003318 0.0000106 0.0002444 0.0001463 -0.0000947 0.0004265 -0.0004612 0.0000731 -0.0004016 0.0001499 -0.0003521 -0.0000459 -0.0005499
0.0127227 -0.0352607 -0.0001934 0.0000343 -0.0001243 0.0002548 0.0002037 0.0005255 0.0000213 0.0003431 0.0001249 0.0000210 0.0006299 -0.0004840 0.0000458 -0.0004207 0.0001533 -0.0003419 -0.0000534 -0.0005126
0.0165710 -0.0295557 -0.0002299 0.0001632 -0.0001248 0.0003848 0.0001830 0.0006824 0.0000132 0.0004364 0.0000738 0.0001339 0.0003786 -0.0002304 -0.0000096 -0.0004273 0.0001413 -0.0003287 -0.0000390 -0.0004115
0.0026075 0.0029332 -0.0002536 0.0003046 -0.0001391 0.0005342 0.0001922 0.0008330 0.0000285 0.0005367 0.0000508 0.0002342 0.0002063 -0.0000290 -0.0000056 -0.0003496 0.0001330 -0.0002621 -0.0000166 -0.0002536
-0.0078106 0.0141446 -0.0002626 0.0004605 -0.0001636 0.0006941 0.0001543 0.0010381 0.0000188 0.0006661 0.0000797 0.0003328 0.0000977 0.0002455 0.0000649 -0.0002854 0.0001396 -0.0002014 0.0000191 -0.0002287
-0.0083013 0.0141088 -0.0002440 0.0003196 -0.0001263 0.0006035 0.0000886 0.0009346 0.0000139 0.0005714 0.0000922 0.0001827 -0.0001334 0.0002567 0.0000530 -0.0004431 0.0001172 -0.0002757 0.0000015 -0.0002948
-0.0107596 0.0187212 -0.0002351 -0.0000169 -0.0000970 0.0003402 0.0000119 0.0006078 0.0000353 0.0003437 0.0000846 -0.0000960 -0.0004604 -0.0000037 -0.0000966 -0.0008069 -0.0000276 -0.0005226 -0.0000894 -0.0004577
-0.0079130 0.0082108 -0.0002919 -0.0001560 -0.0001470 0.0002639 -0.0000669 0.0005004 0.0000157 0.0002738 0.0000478 -0.0001699 -0.0004803 -0.0002849 -0.0002490 -0.0011183 -0.0001628 -0.0007588 -0.0002088 -0.0007421
-0.0076911 0.0119329 -0.0003831 -0.0001836 -0.0002261 0.0003236 -0.0000247 0.0004868 -0.0000253 0.0002661 -0.0000582 -0.0001300 -0.0007799 -0.0002871 -0.0005390 -0.0013948 -0.0005004 -0.0011815 -0.0004854 -0.0015933
-0.0123770 0.0136959 -0.0004163 -0.0001044 -0.0002349 0.0003781 0.0000313 0.0005497 -0.0000269 0.0003094 -0.0001643 0.0000450 -0.0010304 -0.0001713 -0.0008358 -0.0015180 -0.0009491 -0.0016119 -0.0006751 -0.0025754
-0.0163140 0.0155640 -0.0003889 0.0000145 -0.0002149 0.0004240 0.0000108 0.0006587 -0.0000446 0.0003685 -0.0002762 0.0002546 -0.0013262 0.0000769 -0.0010897 -0.0016242 -0.0012092 -0.0019464 -0.0006562 -0.0029248
-0.0221574 0.0180094 -0.0003578 0.0000929 -0.0002096 0.0004697 0.0000185 0.0006043 -0.0000475 0.0004002 -0.0003745 0.0004419 -0.0011025 0.0001501 -0.0011498 -0.0013637 -0.0013702 -0.0019788 -0.0006380 -0.0028187
-0.0000941 0.0042573 -0.0001993 0.0001824 -0.0000563 0.0004346 -0.0000108 0.0004919 0.0000014 0.0003849 -0.0002306 0.0003853 -0.0002000 0.0000388 -0.0004907 -0.0005402 -0.0010940 -0.0014113 -0.0004275 -0.0016007
0.0061157 0.0013268 0.0001603 -0.0001874 0.0002364 0.0002821 0.0000647 0.0001556 0.0000769 0.0002067 0.0005545 0.0002714 0.0006837 -0.0001507 0.0003734 0.0001206 -0.0003421 -0.0005922 0.0000995 0.0001114
0.0092744 -0.0065124 0.0005701 -0.0007670 0.0004897 0.0000057 0.0001004 -0.0003538 0.0001702 -0.0000679 0.0012142 0.0002381 0.0016774 -0.0006643 0.0008535 0.0004753 0.0003013 0.0001767 0.0007924 0.0011963
0.0024080 0.0083693 0.0008353 -0.0009040 0.0005445 -0.0003096 0.0000063 -0.0006783 0.0001869 -0.0002286 0.0011450 0.0000890 0.0017949 -0.0007748 0.0009146 0.0006326 0.0005200 0.0005548 0.0013136 0.0018010
-0.0067424 0.0172390 0.0009047 -0.0008494 0.0004437 -0.0005450 0.0000396 -0.0007313 0.0001727 -0.0002634 0.0008711 0.0000456 0.0014044 -0.0004576 0.0008311 0.0007942 0.0005499 0.0006739 0.0014416 0.0020586
-0.0055832 0.0138160 0.0008560 -0.0006727 0.0003262 -0.0006479 0.0000297 -0.0005691 0.0001568 -0.0002561 0.0005519 0.0000762 0.0010966 -0.0001906 0.0007458 0.0009622 0.0005025 0.0006653 0.0014209 0.0020805
0.0004726 0.0207083 0.0007580 -0.0004750 0.0002608 -0.0006354 -0.0000269 -0.0003959 0.0001099 -0.0002288 0.0003464 0.0001332 0.0009439 0.0000356 0.0007817 0.0011211 0.0005336 0.0007864 0.0018192 0.0025367
0.0016648 0.0165282 0.0008345 -0.0005398 0.0002941 -0.0005789 -0.0000449 -0.0003175 0.0000723 -0.0002308 0.0004201 0.0000315 0.0013024 0.0001202 0.0014137 0.0015978 0.0009173 0.0014745 0.0028795 0.0036384
0.0054748 -0.0091499 0.0012854 -0.0008424 0.0003703 -0.0005482 -0.0000526 -0.0003445 0.0000426 -0.0003182 0.0004923 -0.0003659 0.0015360 0.0000126 0.0020990 0.0019445 0.0012784 0.0019630 0.0034352 0.0038846
-0.0004743 0.0049022 0.0016424 -0.0013257 0.0004394 -0.0007445 -0.0000981 -0.0006443 0.0000178 -0.0005310 0.0003717 -0.0007750 0.0012869 -0.0001614 0.0021981 0.0017851 0.0012687 0.0017389 0.0031819 0.0032034
-0.0053819 0.0077103 0.0016469 -0.0016384 0.0004778 -0.0010109 -0.0001147 -0.0010538 0.0000160 -0.0007218 0.0003093 -0.0008565 0.0011443 -0.0003163 0.0020401 0.0017568 0.0012814 0.0017266 0.0031904 0.0036289
0.0025835 -0.0040996 0.0013476 -0.0010937 0.0004098 -0.0010304 -0.0000798 -0.0011140 0.0000197 -0.0007050 0.0001816 -0.0006343 0.0006386 -0.0003153 0.0013383 0.0012532 0.0009592 0.0014920 0.0026083 0.0034392
-0.0017671 0.0023367 0.0008999 -0.0003597 0.0002969 -0.0009394 0.0000318 -0.0010617 0.0000303 -0.0005920 -0.0000785 -0.0003684 -0.0001739 -0.0000639 0.0004089 0.0004951 0.0001922 0.0006162 0.0011422 0.0018314
0.0071385 -0.0189714 0.0006603 -0.0000744 0.0002252 -0.0007975 0.0001161 -0.0008990 0.0000350 -0.0004587 -0.0001339 -0.0001661 -0.0001549 -0.0000422 0.0001566 0.0003720 -0.0001362 0.0001132 0.0003983 0.0009296
0.0133062 -0.0260239 0.0004835 0.0000645 0.0001423 -0.0004925 0.0002021 -0.0003637 0.0000405 -0.0002233 -0.0000180 -0.0000109 -0.0000152 -0.0000223 0.0001307 0.0003217 -0.0000562 0.0000942 0.0003066 0.0007581
0.0071029 -0.0189363 0.0003720 0.0002015 0.0000858 -0.0002783 0.0002642 -0.0001564 0.0000689 -0.0000181 -0.0000386 0.0000613 -0.0001222 0.0000517 -0.0000220 0.0001490 0.0000082 0.0000546 0.0002560 0.0006593
0.0105765 -0.0196095 0.0003992 0.0002261 0.0000972 -0.0002980 0.0002141 -0.0002885 0.0000994 -0.0000054 -0.0000627 -0.0001105 0.0002316 -0.0004575 -0.0000549 -0.0001809 0.0001039 -0.0001021 0.0002687 0.0003955
0.0044654 0.0055175 0.0003079 0.0000248 0.0000925 -0.0004033 0.0002503 -0.0003034 0.0001046 -0.0000947 0.0000813 -0.0003660 0.0004311 -0.0007973 0.0001065 -0.0004449 0.0002769 -0.0002174 0.0003257 0.0001622
-0.0041422 0.0155550 0.0001412 -0.0001305 0.0000633 -0.0004705 0.0003624 -0.0003282 0.0001210 -0.0001569 0.0002203 -0.0004376 0.0006621 -0.0009736 0.0002377 -0.0005012 0.0004232 -0.0001839 0.0003225 0.0000506
-0.0061049 0.0059246 0.0000068 -0.0000983 0.0000183 -0.0003978 0.0004585 -0.0001407 0.0001291 -0.0000880 0.0002846 -0.0003799 0.0009410 -0.0010200 0.0002856 -0.0005519 0.0004802 -0.0002144 0.0002566 -0.0001017
0.0074992 -0.0096819 -0.0000885 0.0000356 -0.0000295 -0.0002678 0.0005014 0.0000855 0.0001121 0.0000694 0.0002258 -0.0002699 0.0008212 -0.0008121 0.0002133 -0.0006161 0.0004572 -0.0002874 0.0001781 -0.0002576
-0.0045587 0.0160783 -0.0001265 0.0002511 -0.0000657 -0.0001052 0.0004722 0.0002466 0.0001211 0.0002138 0.0001001 -0.0002024 0.0004769 -0.0006420 0.0000221 -0.0007622 0.0003722 -0.0003168 0.0000247 -0.0003232
-0.0136260 0.0242756 -0.0001971 0.0004397 -0.0001341 0.0000959 0.0004293 0.0004536 0.0001089 0.0003345 -0.0001247 -0.0000483 -0.0004036 -0.0003652 -0.0006018 -0.0012276 -0.0002254 -0.0008172 -0.0006195 -0.0013656
0.0056529 -0.0060326 -0.0001887 0.0006506 -0.0001403 0.0001875 0.0001913 0.0002158 0.0000986 0.0003995 -0.0005196 0.0002685 -0.0013658 0.0002524 -0.0012263 -0.0013722 -0.0010300 -0.0014044 -0.0012272 -0.0025505
0.0026947 0.0061676 -0.0001008 0.0006636 -0.0000577 0.0001598 0.0000535 0.0001136 0.0001115 0.0003330 -0.0004730 0.0003025 -0.0011144 0.0004520 -0.0008917 -0.0008892 -0.0011692 -0.0013805 -0.0010948 -0.0025455
-0.0001133 0.0083664 -0.0000227 0.0003020 0.0000202 -0.0000421 0.0000672 0.0000909 0.0000929 0.0000493 -0.0000036 0.0001614 -0.0005537 -0.0001047 -0.0004563 -0.0005942 -0.0011155 -0.0012252 -0.0009382 -0.0024494
-0.0069748 -0.0006752 0.0001481 0.0000138 0.0001061 -0.0003828 -0.0000537 -0.0004953 0.0000742 -0.0002023 0.0000767 0.0001674 -0.0007474 -0.0002678 -0.0005852 -0.0006306 -0.0012249 -0.0013058 -0.0009562 -0.0025979
-0.0468295 0.0356366 0.0002632 -0.0000398 0.0001307 -0.0005322 -0.0001754 -0.0007490 0.0000588 -0.0002412 -0.0001566 0.0002597 -0.0008763 -0.0001017 -0.0007865 -0.0006239 -0.0013264 -0.0014747 -0.0009943 -0.0028389
-0.0072826 0.0010972 0.0002303 -0.0000157 0.0000684 -0.0004791 -0.0001932 -0.0006410 0.0000238 -0.0001980 -0.0002773 0.0004210 -0.0009402 0.0002080 -0.0007877 -0.0005023 -0.0013762 -0.0015659 -0.0010257 -0.0029771
0.0136382 -0.0360574 0.0001996 0.0000326 0.0000200 -0.0004039 -0.0001231 -0.0006579 0.0000116 -0.0002316 -0.0004144 0.0004677 -0.0008729 0.0002737 -0.0009299 -0.0005779 -0.0014968 -0.0017626 -0.0010793 -0.0031506
0.0046759 -0.0053861 0.0002198 0.0000640 0.0000249 -0.0003717 -0.0001798 -0.0006993 -0.0000043 -0.0002949 -0.0005289 0.0004841 -0.0008357 0.0003029 -0.0010804 -0.0006547 -0.0015897 -0.0019020 -0.0010960 -0.0033103
0.0067901 -0.0071620 0.0001973 0.0001201 0.0000029 -0.0001934 -0.0000960 -0.0004315 -0.0000438 -0.0002312 -0.0005626 0.0004781 -0.0011644 0.0005781 -0.0012051 -0.0008773 -0.0015984 -0.0020909 -0.0011152 -0.0036970
0.0033916 0.0005212 0.0001418 -0.0000344 -0.0000294 -0.0001094 0.0000084 -0.0001958 -0.0000482 -0.0002779 -0.0005886 0.0003134 -0.0011579 0.0004243 -0.0013443 -0.0012666 -0.0015905 -0.0023848 -0.0011185 -0.0041823
-0.0003020 0.0125185 0.0001567 -0.0002059 -0.0000017 -0.0002270 -0.0000082 -0.0002694 -0.0000275 -0.0003734 -0.0005722 0.0002107 -0.0009072 0.0003210 -0.0011977 -0.0011647 -0.0015421 -0.0024596 -0.0010787 -0.0042365
0.0026562 -0.0001754 0.0002166 -0.0001350 0.0000584 -0.0002590 -0.0000730 -0.0003296 0.0000133 -0.0003608 -0.0004671 0.0002238 -0.0005622 0.0005725 -0.0006814 -0.0005452 -0.0012881 -0.0022376 -0.0009020 -0.0033815
0.0102102 -0.0228753 0.0002804 -0.0000477 0.0001007 -0.0001638 -0.0001226 -0.0002874 0.0000285 -0.0002347 -0.0000901 0.0001523 0.0004676 0.0005655 0.0003849 0.0004416 -0.0004186 -0.0013447 0.0005790 -0.0012601
0.0120716 -0.0100404 0.0004026 -0.0000419 0.0001706 -0.0000312 -0.0001489 -0.0001584 0.0000090 -0.0000723 0.0001846 0.0000197 0.0010743 0.0004801 0.0009718 0.0008807 0.0002235 -0.0006331 0.0016186 -0.0000236
0.0062334 0.0044440 0.0005021 0.0000285 0.0002494 0.0000249 -0.0002180 -0.0001364 0.0000101 -0.0000044 0.0000779 -0.0000531 0.0007804 0.0004125 0.0006461 0.0005543 0.0001914 -0.0006475 0.0012960 -0.0003170
0.0038748 -0.0107387 0.0004723 0.0003004 0.0002466 0.0000996 -0.0002254 -0.0000547 0.0000079 0.0000841 -0.0000827 0.0000828 0.0004397 0.0003946 0.0003337 0.0002800 0.0001033 -0.0007449 0.0008927 -0.0009090
0.0020774 -0.0110961 0.0003849 0.0003208 0.0002372 0.0000848 -0.0001269 0.0000277 0.0000095 0.0000242 -0.0001159 0.0000647 0.0000686 0.0003272 0.0001495 -0.0001695 -0.0000553 -0.0011382 0.0003403 -0.0019083
-0.0127571 0.0164230 0.0002784 0.0000986 0.0002222 -0.0000436 0.0000257 -0.0000484 0.0000270 -0.0000811 0.0000436 -0.0001148 0.0000088 -0.0000469 0.0000187 -0.0007709 -0.0002599 -0.0016945 -0.0003207 -0.0030786
-0.0060255 0.0154522 0.0002076 0.0000490 0.0001680 -0.0000586 0.0000322 -0.0000370 0.0000391 -0.0000234 0.0000313 -0.0001114 -0.0001599 -0.0001198 -0.0001658 -0.0011976 -0.0004979 -0.0021661 -0.0007255 -0.0041129
-0.0092210 0.0188280 0.0001980 0.0000954 0.0000780 -0.0000473 0.0001047 -0.0000683 0.0000528 0.0000766 -0.0000906 -0.0000596 -0.0007335 0.0003395 -0.0003237 -0.0013647 -0.0006194 -0.0024027 -0.0008559 -0.0047102
-0.0031580 0.0111506 0.0000903 0.0001914 -0.0000225 0.0000726 0.0002286 0.0001480 0.0000528 0.0002807 -0.0000001 0.0000124 -0.0004334 0.0003497 -0.0001049 -0.0012776 -0.0001968 -0.0021513 -0.0006265 -0.0046726
0.0033818 0.0024214 -0.0000391 0.0002877 -0.0000446 0.0003374 0.0002274 0.0006318 0.0000458 0.0005287 0.0001998 -0.0001381 0.0003682 -0.0000378 0.0003703 -0.0014153 0.0006172 -0.0016303 0.0011778 -0.0028673
-0.0098128 0.0096117 0.0002101 0.0000244 0.0000738 0.0005657 0.0003200 0.0009175 0.0000563 0.0007154 0.0004589 -0.0003814 0.0009999 -0.0002095 0.0010733 -0.0011731 0.0012944 -0.0010508 0.0028520 -0.0009966
-0.0049829 -0.0029864 0.0005075 -0.0004695 0.0002291 0.0005887 0.0003744 0.0009063 0.0000557 0.0006903 0.0006303 -0.0006248 0.0015533 -0.0007046 0.0012437 -0.0013710 0.0013738 -0.0011184 0.0031610 -0.0006864
0.0107046 -0.0235224 0.0003054 -0.0004948 0.0001984 0.0003896 0.0003477 0.0006437 0.0000315 0.0005297 0.0005232 -0.0009426 0.0012076 -0.0012188 0.0006533 -0.0023558 0.0010282 -0.0017664 0.0027253 -0.0010673
0.0080792 -0.0209125 0.0000031 -0.0002738 0.0000754 0.0003104 0.0003393 0.0004573 0.0000373 0.0004448 0.0002943 -0.0010515 0.0008382 -0.0015809 0.0002335 -0.0026925 0.0008060 -0.0021916 0.0022431 -0.0017562
-0.0083231 0.0079922 -0.0000682 -0.0003231 0.0000308 0.0003849 0.0002939 0.0004927 0.0000445 0.0004080 0.0002302 -0.0009758 0.0008924 -0.0015901 0.0002095 -0.0026776 0.0007437 -0.0023348 0.0020052 -0.0021636
-0.0081522 0.0088007 -0.0001027 -0.0003019 -0.0000010 0.0004885 0.0002820 0.0006554 0.0000255 0.0004603 0.0001548 -0.0007580 0.0005794 -0.0012295 -0.0000894 -0.0027299 0.0004138 -0.0025181 0.0009474 -0.0032706
-0.0066767 0.0016548 -0.0002276 -0.0000263 -0.0001182 0.0006110 0.0002610 0.0007792 0.0000048 0.0005351 -0.0000700 -0.0003515 -0.0001261 -0.0008362 -0.0007362 -0.0029113 -0.0004673 -0.0033560 -0.0004553 -0.0054456
-0.0053507 0.0037950 -0.0003599 0.0002904 -0.0002476 0.0007411 0.0001818 0.0008763 -0.0000089 0.0006093 -0.0003018 0.0001480 -0.0009189 -0.0001288 -0.0010854 -0.0028958 -0.0012076 -0.0042589 -0.0008589 -0.0068267
0.0036369 -0.0143764 -0.0004042 0.0003212 -0.0002663 0.0007488 0.0001409 0.0008614 -0.0000053 0.0005354 -0.0003571 0.0002375 -0.0013703 0.0001924 -0.0011114 -0.0029872 -0.0013442 -0.0047198 -0.0008791 -0.0072880
0.0101171 -0.0271890 -0.0004170 0.0000989 -0.0002642 0.0005819 0.0000934 0.0005909 -0.0000149 0.0003222 -0.0002918 -0.0000043 -0.0013759 -0.0000098 -0.0010622 -0.0031763 -0.0013293 -0.0050167 -0.0008776 -0.0077485
0.0102004 -0.0222413 -0.0004553 -0.0000346 -0.0002970 0.0005010 -0.0000392 0.0004539 -0.0000589 0.0002354 -0.0003298 -0.0000147 -0.0015616 -0.0000725 -0.0012260 -0.0035206 -0.0014737 -0.0056764 -0.0010140 -0.0084238
0.0003045 -0.0083734 -0.0005328 -0.0000966 -0.0003589 0.0005464 -0.0000860 0.0003131 -0.0001102 0.0001680 -0.0005194 0.0001447 -0.0021887 0.0000625 -0.0016558 -0.0039805 -0.0017965 -0.0064543 -0.0014666 -0.0089104
-0.0091862 0.0064923 -0.0005810 -0.0000880 -0.0003948 0.0006285 0.0000391 0.0005358 -0.0001180 0.0002326 -0.0004556 0.0002873 -0.0016613 0.0002540 -0.0013166 -0.0034769 -0.0016717 -0.0062325 -0.0013426 -0.0086536
-0.0109083 0.0060921 -0.0005128 0.0001151 -0.0003186 0.0007695 0.0002388 0.0010565 -0.0000998 0.0004884 -0.0001700 0.0002840 -0.0008815 0.0004746 -0.0006105 -0.0025757 -0.0010202 -0.0051923 -0.0009705 -0.0082477
-0.0101435 0.0054457 -0.0004236 0.0003223 -0.0002189 0.0008647 0.0003748 0.0011608 -0.0000679 0.0006354 0.0000300 0.0000915 0.0000324 -0.0000819 -0.0001798 -0.0023651 -0.0003040 -0.0043810 -0.0009181 -0.0080585
-0.0006482 0.0082705 -0.0003855 0.0001994 -0.0001562 0.0007458 0.0003808 0.0009887 -0.0000464 0.0005785 0.0001535 -0.0001711 0.0005987 -0.0005936 0.0001151 -0.0025082 0.0000933 -0.0042347 -0.0008137 -0.0081477
0.0021675 0.0043613 -0.0003787 0.0000369 -0.0001339 0.0006128 0.0003992 0.0007678 -0.0000371 0.0005026 0.0001187 -0.0002278 0.0001733 -0.0003627 0.0000863 -0.0025454 0.0000172 -0.0044003 -0.0007077 -0.0083342
-0.0027483 0.0011850 -0.0003723 0.0000760 -0.0001468 0.0006283 0.0004172 0.0007427 -0.0000144 0.0005073 0.0000758 -0.0001420 0.0001374 -0.0002733 0.0000442 -0.0025123 -0.0001271 -0.0045675 -0.0006087 -0.0084376
-0.0013196 -0.0028488 -0.0003694 0.0001655 -0.0001719 0.0007184 0.0004293 0.0008969 -0.0000108 0.0005832 0.0000865 -0.0000524 0.0002718 -0.0003164 0.0000463 -0.0024271 -0.0001765 -0.0046197 -0.0005061 -0.0083747
0.0037075 -0.0097127 -0.0003686 0.0003111 -0.0001748 0.0008333 0.0004057 0.0010782 -0.0000013 0.0006833 0.0000567 0.0000796 0.0000385 -0.0000097 -0.0000462 -0.0023301 -0.0002773 -0.0046807 -0.0004060 -0.0081970
0.0027311 -0.0052271 -0.0003587 0.0004689 -0.0001658 0.0009312 0.0003172 0.0012786 0.0000096 0.0008008 0.0000711 0.0002081 -0.0000862 0.0002424 -0.0000939 -0.0023753 -0.0003810 -0.0048341 -0.0002939 -0.0081857
0.0069553 -0.0080475 -0.0003329 0.0003903 -0.0001327 0.0008820 0.0002798 0.0012560 0.0000231 0.0007456 0.0000776 0.0001261 -0.0000934 0.0000703 -0.0001035 -0.0026531 -0.0004289 -0.0051810 -0.0002263 -0.0084471
0.0106332 -0.0198037 -0.0003179 0.0001980 -0.0000985 0.0007177 0.0002772 0.0010012 0.0000360 0.0005903 0.0001184 -0.0000551 -0.0002076 -0.0000801 -0.0001197 -0.0028637 -0.0004363 -0.0054780 -0.0001889 -0.0086402
0.0068653 -0.0080808 -0.0003167 0.0001837 -0.0001071 0.0006719 0.0002727 0.0009061 0.0000175 0.0005796 0.0001515 -0.0000611 -0.0002099 -0.0001252 -0.0001134 -0.0028833 -0.0004321 -0.0055932 -0.0000755 -0.0087040
-0.0030507 0.0056279 -0.0003291 0.0002331 -0.0001245 0.0007167 0.0002999 0.0009635 -0.0000031 0.0006354 0.0000877 0.0000426 -0.0004400 0.0001647 -0.0001565 -0.0028489 -0.0004748 -0.0057488 0.0000821 -0.0088139
-0.0112287 0.0133641 -0.0003571 0.0003245 -0.0001644 0.0008344 0.0003652 0.0011177 -0.0000138 0.0007322 0.0000441 0.0002238 -0.0004223 0.0002673 -0.0002320 -0.0027888 -0.0005513 -0.0059384 0.0001904 -0.0089128
-0.0005894 0.0157288 -0.0003582 0.0004695 -0.0001807 0.0009652 0.0003518 0.0013009 -0.0000306 0.0008509 0.0000049 0.0004193 -0.0004161 0.0003217 -0.0002714 -0.0028039 -0.0005620 -0.0060761 0.0002784 -0.0090899
-0.0036400 0.0174200 -0.0003503 0.0003877 -0.0001711 0.0009183 0.0003999 0.0011762 -0.0000349 0.0007830 -0.0000029 0.0003343 -0.0007754 0.0004805 -0.0002569 -0.0030035 -0.0005405 -0.0063496 0.0003176 -0.0094646
-0.0070696 0.0135193 -0.0003683 0.0001460 -0.0001933 0.0007437 0.0004267 0.0008956 -0.0000376 0.0005689 -0.0000987 0.0001767 -0.0007408 -0.0000099 -0.0004355 -0.0034996 -0.0006346 -0.0070251 0.0002628 -0.0100778
0.0020937 -0.0044321 -0.0004635 0.0000532 -0.0002904 0.0007064 0.0003435 0.0008732 -0.0000664 0.0005031 -0.0002278 0.0002441 -0.0008754 -0.0000712 -0.0006084 -0.0037121 -0.0006684 -0.0074044 0.0002376 -0.0103035
0.0046164 -0.0179807 -0.0005278 0.0001070 -0.0003498 0.0007929 0.0003927 0.0010511 -0.0000607 0.0005960 -0.0001484 0.0003540 -0.0007618 0.0003208 -0.0003221 -0.0031353 -0.0005068 -0.0070099 0.0003866 -0.0098354
0.0069307 -0.0203377 -0.0004668 0.0002834 -0.0002878 0.0008821 0.0004512 0.0012549 -0.0000246 0.0007630 -0.0000143 0.0004697 -0.0001298 0.0004110 0.0000385 -0.0025375 -0.0003330 -0.0065378 0.0005606 -0.0093196
0.0052188 0.0018340 -0.0003820 0.0004777 -0.0002197 0.0010004 0.0004247 0.0014293 -0.0000297 0.0009327 0.0000394 0.0005928 0.0001420 0.0005524 0.0002000 -0.0022373 -0.0002110 -0.0062404 0.0006397 -0.0088965
0.0058600 -0.0015976 -0.0003376 0.0006335 -0.0001791 0.0011183 0.0003683 0.0015580 -0.0000153 0.0010439 0.0000822 0.0006492 0.0002645 0.0005200 0.0002824 -0.0021552 -0.0001225 -0.0061202 0.0007243 -0.0087427
0.0139959 -0.0330633 -0.0003000 0.0004353 -0.0001364 0.0009964 0.0003547 0.0013399 0.0000036 0.0009043 0.0001114 0.0004137 0.0002822 0.0001659 0.0003646 -0.0024132 -0.0000285 -0.0062942 0.0008368 -0.0089206
-0.0014511 -0.0015960 -0.0002675 0.0000439 -0.0000892 0.0007075 0.0003332 0.0009297 -0.0000057 0.0006595 0.0001022 0.0001379 0.0001352 -0.0000200 0.0004208 -0.0026232 0.0000609 -0.0064940 0.0009308 -0.0089972
-0.0061091 0.0064831 -0.0002697 -0.0000544 -0.0000906 0.0006142 0.0003408 0.0008373 -0.0000022 0.0006038 0.0001563 0.0000513 0.0001346 0.0000117 0.0004867 -0.0026508 0.0001821 -0.0064892 0.0009954 -0.0088062
0.0055425 -0.0065305 -0.0002830 0.0000189 -0.0001171 0.0006838 0.0003714 0.0010187 -0.0000016 0.0006705 0.0002063 0.0000787 0.0000953 0.0003080 0.0005609 -0.0025991 0.0003516 -0.0063104 0.0010860 -0.0084156
-0.0024333 0.0066103 -0.0002931 0.0001381 -0.0001268 0.0007898 0.0004559 0.0011797 -0.0000059 0.0007778 0.0002028 0.0001785 -0.0002493 0.0007971 0.0006008 -0.0024741 0.0005112 -0.0060544 0.0011574 -0.0079587
-0.0004635 -0.0003834 -0.0003039 0.0002810 -0.0001409 0.0009094 0.0005140 0.0013093 -0.0000199 0.0008934 0.0002268 0.0002453 -0.0001025 0.0007739 0.0006336 -0.0023395 0.0006294 -0.0058241 0.0012465 -0.0076118
0.0090850 -0.0196578 -0.0003200 0.0004287 -0.0001623 0.0010355 0.0004396 0.0015036 -0.0000384 0.0010188 0.0002136 0.0003710 0.0000451 0.0008267 0.0006436 -0.0021811 0.0007001 -0.0056159 0.0013327 -0.0073491
-0.0066751 0.0017464 -0.0003054 0.0004152 -0.0001559 0.0010612 0.0004654 0.0014516 -0.0000344 0.0009678 0.0002235 0.0002486 -0.0000287 0.0007023 0.0006561 -0.0022929 0.0007580 -0.0056814 0.0013447 -0.0073809
-0.0098929 0.0033753 -0.0002892 0.0001421 -0.0001376 0.0008597 0.0004896 0.0010669 -0.0000298 0.0007194 0.0002335 -0.0000373 0.0003916 -0.0000213 0.0007129 -0.0025892 0.0008331 -0.0059114 0.0013704 -0.0075615
0.0118830 -0.0206619 -0.0002967 -0.0000531 -0.0001281 0.0006565 0.0004352 0.0008346 -0.0000487 0.0005989 0.0001954 -0.0000971 0.0005555 -0.0002222 0.0007407 -0.0026633 0.0008896 -0.0059641 0.0014106 -0.0075352
0.0069375 -0.0119142 -0.0002965 -0.0000343 -0.0001435 0.0006490 0.0004818 0.0009053 -0.0000309 0.0006155 0.0001686 -0.0000477 0.0006971 -0.0002638 0.0007184 -0.0025858 0.0009157 -0.0058913 0.0014285 -0.0073504
-0.0149169 0.0135033 -0.0002826 0.0000669 -0.0001830 0.0007421 0.0005421 0.0010649 -0.0000178 0.0006873 0.0001194 0.0000750 0.0007166 -0.0001231 0.0006987 -0.0024673 0.0009284 -0.0057544 0.0014763 -0.0071204
-0.0046931 0.0051681 -0.0002596 0.0002201 -0.0001975 0.0008330 0.0005248 0.0011374 -0.0000401 0.0007729 0.0000274 0.0002277 0.0004406 0.0001875 0.0005615 -0.0025189 0.0008902 -0.0057114 0.0015613 -0.0070680
-0.0058108 -0.0064243 -0.0002836 0.0003151 -0.0002591 0.0009490 0.0004348 0.0011673 -0.0000547 0.0007697 -0.0001095 0.0002997 0.0000124 0.0002012 0.0002340 -0.0028828 0.0007552 -0.0058640 0.0016012 -0.0072118
-0.0070647 -0.0091866 -0.0003744 0.0003794 -0.0003910 0.0010911 0.0003384 0.0012371 -0.0000883 0.0007713 -0.0003002 0.0004139 -0.0007171 0.0003878 -0.0001025 -0.0031336 0.0006026 -0.0061004 0.0016349 -0.0074061
0.0091339 -0.0236587 -0.0003618 0.0002321 -0.0003764 0.0010305 0.0003123 0.0010628 -0.0000450 0.0005899 -0.0003218 0.0003657 -0.0010755 0.0006947 0.0000389 -0.0028005 0.0005989 -0.0060966 0.0017121 -0.0073207
-0.0013423 -0.0068867 -0.0001768 -0.0000122 -0.0002168 0.0007626 0.0003137 0.0007353 0.0000263 0.0003282 -0.0001717 0.0001475 -0.0008010 0.0006230 0.0003574 -0.0023918 0.0006662 -0.0059184 0.0018117 -0.0070485
-0.0025906 0.0098036 -0.0000312 -0.0000244 -0.0001448 0.0005775 0.0002968 0.0007120 0.0000105 0.0002970 -0.0001806 0.0001189 -0.0006929 0.0004944 0.0002953 -0.0024661 0.0006882 -0.0059174 0.0018650 -0.0070085
-0.0012621 0.0001505 -0.0000627 0.0000130 -0.0002113 0.0005910 0.0003840 0.0008500 -0.0000576 0.0003475 -0.0002377 0.0001798 -0.0011578 0.0005040 -0.0002061 -0.0032127 0.0006143 -0.0064872 0.0017627 -0.0074775
-0.0087464 -0.0059596 -0.0002424 0.0000305 -0.0003510 0.0007358 0.0004016 0.0008142 -0.0001151 0.0003613 -0.0003511 0.0003202 -0.0013338 0.0004458 -0.0005228 -0.0035280 0.0005706 -0.0067664 0.0016794 -0.0077441
0.0012145 0.0017880 -0.0003702 0.0001086 -0.0004225 0.0008644 0.0003705 0.0009308 -0.0001479 0.0004351 -0.0004264 0.0004784 -0.0013269 0.0006692 -0.0004071 -0.0031443 0.0006175 -0.0064133 0.0016995 -0.0073857
-0.0084986 0.0159308 -0.0003877 0.0002742 -0.0004403 0.0009852 0.0004892 0.0012650 -0.0001406 0.0006192 -0.0004134 0.0006387 -0.0008381 0.0006857 -0.0003111 -0.0027684 0.0006519 -0.0060743 0.0017191 -0.0069665
-0.0097950 0.0228617 -0.0003194 0.0004693 -0.0004004 0.0010984 0.0005233 0.0015273 -0.0001142 0.0007321 -0.0004473 0.0007742 -0.0003210 0.0006494 -0.0001697 -0.0024662 0.0007214 -0.0057949 0.0017868 -0.0067293
-0.0039667 0.0177456 -0.0001443 0.0002904 -0.0002575 0.0008935 0.0004914 0.0011439 -0.0000785 0.0004672 -0.0004885 0.0006401 -0.0005673 0.0006766 -0.0002006 -0.0025335 0.0006914 -0.0058858 0.0017866 -0.0068619
-0.0108635 0.0176042 0.0000290 -0.0001144 -0.0001396 0.0005194 0.0004399 0.0004753 -0.0000195 0.0000738 -0.0005455 0.0004109 -0.0008130 0.0004489 -0.0003566 -0.0026391 0.0006095 -0.0059623 0.0017404 -0.0068913
-0.0100073 0.0089041 0.0001980 -0.0001797 -0.0000624 0.0002896 0.0004301 0.0003386 -0.0000143 -0.0000574 -0.0005482 0.0003797 -0.0007261 0.0005240 -0.0002579 -0.0023093 0.0006369 -0.0056527 0.0018061 -0.0064310
-0.0005101 -0.0101325 0.0003198 -0.0000276 -0.0000186 0.0001517 0.0004169 0.0003331 -0.0000125 -0.0001117 -0.0005333 0.0004818 -0.0006694 0.0009899 -0.0000638 -0.0017382 0.0006866 -0.0052496 0.0018881 -0.0059016
-0.0007501 -0.0080058 0.0003638 0.0001218 -0.0000381 0.0000826 0.0002630 0.0003042 -0.0000369 -0.0001472 -0.0005947 0.0006604 -0.0009256 0.0014331 -0.0001564 -0.0013974 0.0005107 -0.0051864 0.0017099 -0.0058241
0.0059017 -0.0031835 0.0003934 0.0002592 -0.0000782 0.0000558 0.0000702 0.0002739 -0.0001009 -0.0001588 -0.0007125 0.0009308 -0.0011764 0.0018519 -0.0002992 -0.0010225 0.0002798 -0.0051005 0.0014650 -0.0056621
0.0027385 0.0128548 0.0004422 0.0003787 -0.0000801 0.0000457 0.0000093 0.0002294 -0.0001437 -0.0001668 -0.0007114 0.0010776 -0.0011075 0.0021459 -0.0002365 -0.0006330 0.0003426 -0.0047411 0.0015663 -0.0051514
-0.0014008 0.0095623 0.0005317 0.0003643 -0.0000346 -0.0000105 -0.0000140 0.0001621 -0.0001761 -0.0002802 -0.0006622 0.0008876 -0.0009552 0.0019159 -0.0001248 -0.0007118 0.0005015 -0.0046314 0.0018002 -0.0050012
-0.0051350 -0.0007518 0.0006023 0.0001376 0.0000266 -0.0002514 -0.0000718 -0.0001138 -0.0001958 -0.0005089 -0.0006440 0.0006215 -0.0009319 0.0017194 0.0000221 -0.0009950 0.0007185 -0.0046456 0.0020893 -0.0047708
0.0022956 -0.0073344 0.0006532 -0.0000214 0.0000716 -0.0004961 -0.0000064 -0.0003670 -0.0002038 -0.0006441 -0.0006350 0.0004444 -0.0005568 0.0013107 0.0001162 -0.0011663 0.0009432 -0.0045021 0.0022846 -0.0043248
0.0130127 -0.0111218 0.0006864 -0.0000086 0.0000969 -0.0005565 0.0000483 -0.0003416 -0.0002116 -0.0006746 -0.0005933 0.0003537 -0.0002918 0.0011239 0.0002213 -0.0011181 0.0011147 -0.0042397 0.0023170 -0.0039753
0.0044816 -0.0007235 0.0006769 0.0000302 0.0000930 -0.0005700 0.0001138 -0.0003754 -0.0002297 -0.0006685 -0.0005356 0.0003896 -0.0004877 0.0016382 0.0003790 -0.0008859 0.0012730 -0.0039191 0.0023103 -0.0035304
0.0038865 -0.0076915 0.0006654 0.0001236 0.0000554 -0.0005483 0.0001410 -0.0003267 -0.0002272 -0.0006126 -0.0005307 0.0004514 -0.0002110 0.0016526 0.0004657 -0.0007461 0.0013704 -0.0036659 0.0023084 -0.0032016
0.0030851 -0.0081756 0.0006660 0.0002113 0.0000169 -0.0004817 0.0000809 -0.0001636 -0.0002375 -0.0005384 -0.0005146 0.0005281 0.0000687 0.0016050 0.0005202 -0.0006201 0.0014415 -0.0034543 0.0023182 -0.0029762
0.0032565 -0.0134223 0.0006854 0.0002263 0.0000198 -0.0004664 0.0000417 -0.0001537 -0.0002243 -0.0006150 -0.0004955 0.0004333 -0.0000180 0.0015083 0.0005089 -0.0007081 0.0014703 -0.0034328 0.0022744 -0.0029324
0.0024721 -0.0056260 0.0006948 0.0000238 0.0000326 -0.0006713 -0.0000530 -0.0003697 -0.0002175 -0.0008532 -0.0005318 0.0001896 -0.0001335 0.0009671 0.0002414 -0.0012330 0.0013742 -0.0036998 0.0022774 -0.0034491
0.0051019 -0.0056519 0.0005800 -0.0002685 -0.0000608 -0.0008319 -0.0002036 -0.0006441 -0.0002645 -0.0009868 -0.0006727 0.0001762 -0.0006219 0.0009669 -0.0001357 -0.0015918 0.0011871 -0.0039537 0.0022744 -0.0039326
0.0140078 -0.0206379 0.0004687 -0.0003581 -0.0001196 -0.0008247 -0.0002567 -0.0007305 -0.0002599 -0.0010007 -0.0007161 0.0002616 -0.0007444 0.0011274 -0.0002098 -0.0014593 0.0010782 -0.0039517 0.0022148 -0.0038915
0.0039824 -0.0057759 0.0004421 -0.0002922 -0.0001322 -0.0007722 -0.0002333 -0.0006619 -0.0002527 -0.0009719 -0.0006856 0.0003207 -0.0007112 0.0011954 -0.0001923 -0.0013354 0.0010544 -0.0038471 0.0022047 -0.0037953
-0.0001941 -0.0035075 0.0004304 -0.0001619 -0.0001364 -0.0006686 -0.0002245 -0.0005067 -0.0002474 -0.0008443 -0.0007151 0.0004798 -0.0009142 0.0016118 -0.0001624 -0.0010893 0.0010385 -0.0036910 0.0021943 -0.0036613
0.0034456 -0.0093820 0.0004456 -0.0000217 -0.0000920 -0.0005877 -0.0002127 -0.0004466 -0.0002336 -0.0007102 -0.0007184 0.0006216 -0.0008623 0.0018422 -0.0000603 -0.0007343 0.0010055 -0.0035095 0.0021805 -0.0034843
0.0053667 -0.0021768 0.0004668 -0.0000853 -0.0000540 -0.0006027 -0.0002494 -0.0004840 -0.0002363 -0.0007958 -0.0006801 0.0004858 -0.0009941 0.0016836 -0.0000813 -0.0008608 0.0009583 -0.0035974 0.0021627 -0.0036189
0.0053207 -0.0082459 0.0004751 -0.0003549 -0.0000163 -0.0008649 -0.0002014 -0.0008993 -0.0002013 -0.0010084 -0.0007019 0.0002052 -0.0014254 0.0014487 -0.0002482 -0.0012063 0.0009077 -0.0037766 0.0020992 -0.0037524
-0.0027554 0.0013609 0.0004759 -0.0005924 0.0000140 -0.0010186 -0.0001550 -0.0013121 -0.0000848 -0.0010616 -0.0000545 0.0005487 -0.0007072 0.0010348 -0.0001898 -0.0010640 0.0009298 -0.0036481 0.0020982 -0.0035559
-0.0043542 0.0099120 0.0006380 -0.0007793 0.0001673 -0.0009361 -0.0002443 -0.0015328 0.0000851 -0.0010469 0.0004006 0.0011293 -0.0004503 0.0011632 -0.0003045 -0.0008322 0.0008167 -0.0034996 0.0019487 -0.0034293
-0.0080566 0.0135614 0.0007973 -0.0008208 0.0002128 -0.0008938 -0.0001972 -0.0015817 0.0001310 -0.0009497 -0.0000869 0.0011637 -0.0010516 0.0015630 -0.0005703 -0.0006902 0.0006328 -0.0034654 0.0017609 -0.0034348
-0.0083786 0.0090894 0.0007221 -0.0005865 0.0000595 -0.0008069 -0.0001168 -0.0012475 0.0000005 -0.0007470 -0.0004946 0.0010920 -0.0008183 0.0014913 -0.0005565 -0.0004885 0.0005930 -0.0034298 0.0017237 -0.0034260
0.0049942 0.0045122 0.0004672 -0.0002808 -0.0001146 -0.0005747 -0.0001651 -0.0009415 -0.0001594 -0.0006076 -0.0005408 0.0011679 -0.0007119 0.0015957 -0.0004790 -0.0003697 0.0006105 -0.0033989 0.0017026 -0.0034074
0.0070350 0.0038301 0.0003276 -0.0003281 -0.0001746 -0.0005630 -0.0001463 -0.0009712 -0.0001699 -0.0007286 -0.0004699 0.0009908 -0.0003870 0.0012953 -0.0001870 -0.0001966 0.0006992 -0.0033097 0.0017894 -0.0032317
-0.0028144 0.0060785 0.0004783 -0.0004887 -0.0000543 -0.0008240 -0.0000863 -0.0011808 -0.0000955 -0.0009301 -0.0004345 0.0007402 -0.0000302 0.0009787 0.0001106 -0.0000707 0.0007745 -0.0032344 0.0018803 -0.0030275
-0.0023860 0.0049430 0.0005679 -0.0004428 0.0000304 -0.0009359 -0.0000607 -0.0011903 -0.0000838 -0.0009378 -0.0004064 0.0007225 -0.0000479 0.0010577 0.0002112 -0.0000570 0.0008241 -0.0031726 0.0018997 -0.0029421
0.0029941 -0.0126329 0.0005295 -0.0003530 0.0000176 -0.0008688 -0.0000294 -0.0011255 -0.0000782 -0.0008687 -0.0003689 0.0007487 -0.0002169 0.0012250 0.0002661 0.0000059 0.0008668 -0.0030706 0.0018988 -0.0028178
-0.0009557 -0.0056913 0.0004836 -0.0002071 -0.0000098 -0.0007233 -0.0000097 -0.0009613 -0.0000678 -0.0007502 -0.0003570 0.0008493 -0.0004794 0.0015823 0.0003309 0.0001666 0.0008969 -0.0029333 0.0019059 -0.0026388
-0.0076901 0.0009717 0.0004309 -0.0000281 0.0000080 -0.0005590 0.0000153 -0.0007305 -0.0000484 -0.0006237 -0.0003649 0.0009552 -0.0007818 0.0019417 0.0003420 0.0003179 0.0009120 -0.0027844 0.0018972 -0.0024382
-0.0002272 -0.0231831 0.0003946 0.0001424 0.0000203 -0.0004000 0.0000313 -0.0005480 -0.0000526 -0.0004885 -0.0002953 0.0009938 -0.0006980 0.0018906 0.0003726 0.0003541 0.0009322 -0.0027055 0.0019233 -0.0023887
0.0093268 -0.0299657 0.0003781 0.0000568 0.0000321 -0.0004335 -0.0000213 -0.0005655 -0.0000720 -0.0005280 -0.0002503 0.0008422 -0.0006243 0.0015845 0.0004345 0.0002606 0.0009496 -0.0027518 0.0019502 -0.0024473
-0.0023443 0.0020516 0.0003830 -0.0001565 0.0000694 -0.0006228 0.0000255 -0.0008403 -0.0000580 -0.0006633 -0.0002263 0.0006389 -0.0007074 0.0014363 0.0004421 0.0002126 0.0009357 -0.0027837 0.0019065 -0.0024084
-0.0048141 0.0033922 0.0003381 -0.0001993 0.0000388 -0.0006251 0.0001381 -0.0007903 -0.0000821 -0.0006357 -0.0001843 0.0006124 -0.0005956 0.0011347 0.0002390 -0.0001814 0.0009169 -0.0030287 0.0018227 -0.0026744
0.0061085 -0.0092193 0.0001701 -0.0001830 -0.0001129 -0.0004252 0.0001913 -0.0004884 -0.0001537 -0.0005693 -0.0003583 0.0006953 -0.0011051 0.0011656 -0.0004048 -0.0008737 0.0005972 -0.0036501 0.0012339 -0.0035612
-0.0023002 0.0128468 0.0000028 -0.0001616 -0.0002735 -0.0002577 0.0001414 -0.0004628 -0.0002040 -0.0005507 -0.0006580 0.0009008 -0.0013147 0.0012269 -0.0012026 -0.0012554 0.0000063 -0.0041124 0.0003075 -0.0041375
-0.0098830 0.0243787 0.0000252 -0.0000513 -0.0002397 -0.0002122 0.0001236 -0.0003358 -0.0001918 -0.0004527 -0.0006324 0.0010632 -0.0008981 0.0014373 -0.0008704 -0.0006686 0.0001245 -0.0035779 0.0005924 -0.0032993
-0.0018098 0.0136261 0.0001965 0.0001586 -0.0000518 -0.0001674 0.0002926 -0.0000725 -0.0001190 -0.0003049 -0.0004560 0.0009598 -0.0007189 0.0015742 -0.0001420 -0.0001300 0.0006346 -0.0029528 0.0013513 -0.0025608
-0.0060216 0.0149628 0.0002630 0.0001134 0.0000337 -0.0002267 0.0003160 -0.0001179 -0.0000590 -0.0002674 -0.0003869 0.0007436 -0.0005074 0.0010997 0.0000409 -0.0003021 0.0008195 -0.0029200 0.0015403 -0.0026121
-0.0119579 0.0133408 0.0002200 -0.0000398 0.0000162 -0.0003165 0.0002483 -0.0002237 -0.0000343 -0.0002409 -0.0003805 0.0006783 -0.0003460 0.0009192 0.0000837 -0.0003349 0.0008830 -0.0028880 0.0015854 -0.0025821
-0.0087992 0.0046444 0.0001759 -0.0000372 -0.0000063 -0.0002618 0.0001938 -0.0002286 -0.0000204 -0.0002057 -0.0003538 0.0007241 -0.0005940 0.0011907 0.0001500 -0.0002115 0.0009177 -0.0028262 0.0015886 -0.0024120
-0.0038269 -0.0001094 0.0000913 0.0000427 -0.0000786 -0.0001028 0.0001526 0.0000487 -0.0000192 -0.0000718 -0.0002686 0.0007971 -0.0006141 0.0014307 0.0003700 0.0001076 0.0009632 -0.0026353 0.0016398 -0.0021276
0.0073273 -0.0155541 -0.0000007 0.0002092 -0.0001397 0.0001187 0.0002166 0.0006048 -0.0000245 0.0002140 -0.0001385 0.0009665 -0.0004095 0.0016663 0.0006313 0.0004407 0.0010648 -0.0023913 0.0016859 -0.0018843
-0.0025781 0.0023160 -0.0000927 0.0003119 -0.0001467 0.0003121 0.0002796 0.0008732 -0.0000396 0.0004824 -0.0000530 0.0011058 -0.0004737 0.0018987 0.0006979 0.0005554 0.0011325 -0.0022413 0.0016333 -0.0017585
-0.0074914 0.0059844 -0.0001399 0.0002674 -0.0001283 0.0003819 0.0002725 0.0008831 -0.0000447 0.0005524 -0.0000381 0.0009744 -0.0005165 0.0015873 0.0005676 0.0001377 0.0011407 -0.0023743 0.0015565 -0.0020241
-0.0020884 -0.0089166 -0.0001624 0.0000845 -0.0000931 0.0002650 0.0002327 0.0007302 -0.0000445 0.0004812 -0.0000422 0.0007622 -0.0006906 0.0013556 0.0005123 -0.0003121 0.0011787 -0.0025561 0.0015017 -0.0022824
-0.0042951 -0.0124178 -0.0002283 -0.0000302 -0.0001057 0.0002014 0.0003466 0.0006840 -0.0000418 0.0005095 -0.0000234 0.0007188 -0.0004265 0.0011201 0.0004914 -0.0004608 0.0012121 -0.0025768 0.0014648 -0.0023304
0.0139195 -0.0230918 -0.0003031 -0.0000171 -0.0001709 0.0002833 0.0004221 0.0008468 -0.0000595 0.0005584 -0.0000059 0.0007518 -0.0002155 0.0009138 0.0003856 -0.0006779 0.0012037 -0.0026466 0.0014383 -0.0024132
0.0150573 -0.0257478 -0.0003279 0.0000542 -0.0002306 0.0003883 0.0003852 0.0006787 -0.0001095 0.0004539 -0.0000626 0.0007468 -0.0006901 0.0012328 0.0002826 -0.0007916 0.0012099 -0.0025803 0.0014471 -0.0022325
-0.0098048 -0.0076781 -0.0003363 0.0002353 -0.0002429 0.0005521 0.0003813 0.0007038 -0.0000971 0.0005994 -0.0000621 0.0008563 -0.0005255 0.0012039 0.0002959 -0.0006197 0.0012167 -0.0023595 0.0014481 -0.0019729
-0.0143928 0.0011694 -0.0003796 0.0004443 -0.0002467 0.0007813 0.0004355 0.0013211 -0.0000611 0.0010116 -0.0000002 0.0011193 -0.0001415 0.0013087 0.0004049 -0.0003813 0.0012321 -0.0022225 0.0014013 -0.0018944
0.0021045 -0.0192912 -0.0004459 0.0004362 -0.0002822 0.0009513 0.0005252 0.0017655 -0.0000547 0.0010429 -0.0000224 0.0010176 -0.0002496 0.0012474 0.0003389 -0.0006680 0.0012512 -0.0023644 0.0013826 -0.0020183
0.0065660 -0.0245708 -0.0004888 0.0001834 -0.0002637 0.0008017 0.0004317 0.0014680 -0.0000369 0.0008271 -0.0000363 0.0007228 -0.0001986 0.0006625 0.0002740 -0.0010511 0.0012446 -0.0025521 0.0013650 -0.0021853
-0.0023860 0.0057710 -0.0005059 -0.0000021 -0.0002617 0.0006090 0.0002871 0.0011486 -0.0000401 0.0007175 -0.0000512 0.0006763 -0.0003174 0.0005953 0.0001861 -0.0012561 0.0012209 -0.0026498 0.0013241 -0.0022943
0.0034139 0.0016503 -0.0005323 -0.0000106 -0.0003088 0.0006487 0.0003081 0.0012339 -0.0000505 0.0006915 -0.0001408 0.0007809 -0.0007369 0.0008693 -0.0000673 -0.0012766 0.0010243 -0.0027907 0.0010202 -0.0024876
0.0036176 -0.0083981 -0.0005471 0.0000799 -0.0002843 0.0008471 0.0003552 0.0014042 0.0000397 0.0007686 -0.0001745 0.0009500 -0.0008665 0.0010754 -0.0001122 -0.0010368 0.0008987 -0.0027348 0.0007910 -0.0025190
-0.0058709 0.0064573 -0.0003785 0.0002541 -0.0000935 0.0010620 0.0003392 0.0015367 0.0002317 0.0009388 -0.0001553 0.0010684 -0.0007566 0.0014148 0.0001157 -0.0006797 0.0010210 -0.0023856 0.0009516 -0.0021202
-0.0050240 -0.0050932 -0.0001525 0.0004976 0.0000117 0.0011402 0.0003567 0.0017064 0.0003043 0.0011308 -0.0000404 0.0011567 -0.0004970 0.0017280 0.0004548 -0.0001729 0.0011388 -0.0019883 0.0011163 -0.0015939
0.0005053 -0.0011576 -0.0000842 0.0007209 -0.0000487 0.0012050 0.0003647 0.0019517 0.0002617 0.0012382 0.0000631 0.0011549 -0.0004526 0.0017954 0.0006763 0.0000366 0.0012057 -0.0018058 0.0012623 -0.0013419
0.0019285 0.0048373 -0.0000817 0.0005664 -0.0000665 0.0010279 0.0003572 0.0016553 0.0002261 0.0010892 0.0001111 0.0009542 -0.0007052 0.0017623 0.0007694 -0.0000233 0.0012442 -0.0017860 0.0013397 -0.0013301
0.0019741 -0.0075052 -0.0000791 0.0002651 -0.0000545 0.0006744 0.0003227 0.0012674 0.0001384 0.0008778 0.0001254 0.0007324 -0.0004765 0.0013824 0.0007358 -0.0001049 0.0012342 -0.0017989 0.0013607 -0.0013829
0.0056061 -0.0184533 -0.0001148 0.0002403 -0.0000388 0.0005687 0.0002512 0.0013627 0.0000645 0.0008330 0.0000572 0.0006883 -0.0004520 0.0011934 0.0005572 -0.0002834 0.0011853 -0.0018645 0.0012955 -0.0014795
0.0036444 -0.0150420 -0.0001891 0.0002830 -0.0000911 0.0006312 0.0002670 0.0013705 0.0000083 0.0007773 -0.0000120 0.0006409 -0.0007161 0.0011132 0.0003372 -0.0004888 0.0011587 -0.0018991 0.0012240 -0.0014153
0.0056280 -0.0152819 -0.0001697 0.0003017 -0.0001818 0.0007162 0.0002563 0.0013351 -0.0000526 0.0007409 -0.0000552 0.0006076 -0.0005477 0.0007538 0.0000848 -0.0006497 0.0011082 -0.0019250 0.0011745 -0.0013298
0.0021398 0.0014914 -0.0001249 0.0003441 -0.0002545 0.0007994 0.0002154 0.0014539 -0.0000929 0.0008021 -0.0000521 0.0007595 -0.0005954 0.0009723 0.0000276 -0.0005103 0.0010615 -0.0018073 0.0011215 -0.0011557
-0.0029988 0.0117434 -0.0001248 0.0004643 -0.0002649 0.0008743 0.0002715 0.0016729 -0.0000822 0.0008653 -0.0000371 0.0009614 -0.0003263 0.0011629 0.0001424 -0.0001934 0.0010629 -0.0016063 0.0011078 -0.0009450
-0.0027237 0.0152409 -0.0001149 0.0004140 -0.0002221 0.0007951 0.0002938 0.0017033 -0.0000754 0.0007225 -0.0000708 0.0008776 -0.0001551 0.0009670 0.0001905 -0.0002640 0.0010511 -0.0016603 0.0010780 -0.0010351
0.0039877 0.0020491 -0.0001116 0.0001780 -0.0001871 0.0005246 0.0002743 0.0013811 -0.0000779 0.0004568 -0.0001011 0.0006480 -0.0001702 0.0008563 0.0003795 -0.0001863 0.0010911 -0.0015974 0.0011382 -0.0009364
0.0058754 -0.0145955 -0.0000532 0.0001245 -0.0001494 0.0003247 0.0002548 0.0011621 -0.0000383 0.0003366 -0.0000068 0.0005677 0.0000741 0.0008815 0.0006539 0.0001336 0.0011685 -0.0013426 0.0012566 -0.0005864
-0.0041642 0.0009320 0.0001003 0.0002451 -0.0000659 0.0002306 0.0002090 0.0010765 -0.0000111 0.0003039 0.0000551 0.0005894 -0.0000352 0.0011392 0.0007610 0.0003361 0.0011953 -0.0011462 0.0013216 -0.0003279
-0.0144274 0.0093075 0.0002141 0.0003786 0.0000072 0.0002050 0.0002317 0.0010450 0.0000005 0.0003575 0.0000469 0.0006912 -0.0004346 0.0015843 0.0007516 0.0005301 0.0011721 -0.0009945 0.0013197 -0.0001387
-0.0148408 0.0236995 0.0002267 0.0005186 0.0000086 0.0002458 0.0002029 0.0011588 -0.0000013 0.0004553 0.0000956 0.0008180 -0.0004267 0.0018265 0.0007822 0.0007276 0.0011501 -0.0008835 0.0013125 -0.0000322
-0.0077261 0.0185941 0.0001851 0.0006834 -0.0000156 0.0003243 0.0000842 0.0013656 -0.0000078 0.0005448 0.0000736 0.0009242 -0.0003074 0.0018144 0.0007405 0.0007951 0.0011172 -0.0008305 0.0012942 0.0000070
-0.0096757 0.0052771 0.0001308 0.0008325 -0.0000493 0.0004361 0.0001033 0.0013956 -0.0000565 0.0005850 -0.0000387 0.0009722 -0.0006856 0.0018594 0.0004162 0.0006772 0.0008249 -0.0011442 0.0008188 -0.0004864
-0.0050760 -0.0008318 0.0000619 0.0006900 -0.0000806 0.0003174 0.0000913 0.0011301 -0.0000924 0.0003939 -0.0001400 0.0009942 -0.0008328 0.0017296 0.0000705 0.0005885 0.0003750 -0.0015796 0.0001288 -0.0011714
0.0047138 -0.0022736 0.0000136 0.0004796 -0.0000849 0.0000791 0.0000248 0.0007717 -0.0001066 0.0001757 -0.0001952 0.0010406 -0.0009745 0.0017996 -0.0000005 0.0006728 0.0002063 -0.0015851 -0.0000989 -0.0011644
0.0027184 -0.0075403 0.0000007 0.0004843 -0.0000839 0.0000134 0.0000989 0.0006053 -0.0001092 0.0001362 -0.0001969 0.0010747 -0.0004806 0.0014961 0.0000095 0.0007820 0.0002602 -0.0013775 -0.0000409 -0.0008698
-0.0018188 0.0029819 0.0000274 0.0005599 -0.0000730 0.0000207 0.0000739 0.0005304 -0.0000939 0.0001790 -0.0002328 0.0011174 -0.0001341 0.0012788 0.0000267 0.0008623 0.0004136 -0.0011151 0.0002380 -0.0005285
0.0047585 -0.0041507 0.0000557 0.0006975 -0.0000738 0.0001106 0.0000298 0.0005476 -0.0001070 0.0003217 -0.0003063 0.0012382 -0.0005782 0.0017383 0.0000728 0.0009828 0.0005909 -0.0008663 0.0005368 -0.0002206
0.0069297 -0.0082955 0.0000164 0.0008247 -0.0001186 0.0003032 0.0000757 0.0007294 -0.0001012 0.0004796 -0.0002776 0.0013611 -0.0004141 0.0018125 0.0002035 0.0011306 0.0007194 -0.0006830 0.0007028 -0.0000128
0.0012566 -0.0010878 -0.0000247 0.0009554 -0.0001475 0.0005065 0.0000633 0.0008778 -0.0000945 0.0006118 -0.0002288 0.0013630 -0.0002667 0.0016151 0.0003244 0.0010842 0.0008159 -0.0006162 0.0008268 0.0000338
0.0037239 -0.0143921 -0.0000007 0.0007865 -0.0000775 0.0003754 -0.0000020 0.0006404 -0.0000505 0.0004650 -0.0001985 0.0011302 -0.0003836 0.0014198 0.0004120 0.0009274 0.0008872 -0.0006311 0.0009042 -0.0000003
-0.0061069 0.0086606 0.0000327 0.0004852 -0.0000083 0.0000827 -0.0001023 0.0002429 -0.0000068 0.0002137 -0.0001476 0.0009027 -0.0003526 0.0011581 0.0005166 0.0008836 0.0009381 -0.0005841 0.0009510 0.0000540
-0.0114153 0.0263998 0.0000413 0.0004354 -0.0000022 0.0000051 -0.0002281 0.0001905 -0.0000245 0.0001934 -0.0001390 0.0008857 -0.0002631 0.0010387 0.0005649 0.0009020 0.0009612 -0.0005122 0.0009557 0.0001647
-0.0037351 0.0147972 0.0000477 0.0004950 0.0000117 0.0000246 -0.0002136 0.0002546 -0.0000280 0.0002359 -0.0000848 0.0009143 -0.0002609 0.0011655 0.0005960 0.0009773 0.0009753 -0.0004311 0.0009268 0.0003089
0.0044777 -0.0177011 0.0000302 0.0006068 -0.0000064 0.0001158 -0.0001575 0.0004000 -0.0000306 0.0003327 -0.0000349 0.0010037 -0.0002622 0.0012974 0.0006474 0.0010494 0.0009958 -0.0003395 0.0009420 0.0004072
-0.0026697 -0.0229406 0.0000246 0.0007287 -0.0000114 0.0001974 -0.0001608 0.0005478 -0.0000458 0.0004550 -0.0000409 0.0011515 -0.0003546 0.0015783 0.0006966 0.0012056 0.0010068 -0.0002293 0.0009600 0.0005629
-0.0185205 0.0001284 0.0000007 0.0008499 -0.0000385 0.0003153 -0.0001237 0.0006309 -0.0000438 0.0006029 -0.0000485 0.0011593 -0.0003569 0.0013937 0.0005964 0.0010734 0.0009681 -0.0002547 0.0008959 0.0004841
0.0028957 -0.0023884 0.0000918 0.0006773 0.0000354 0.0001597 -0.0001725 0.0003852 -0.0000166 0.0004388 -0.0000899 0.0009277 -0.0004497 0.0010103 0.0004635 0.0007481 0.0009174 -0.0003694 0.0008670 0.0002369
0.0101413 -0.0111205 0.0002328 0.0003633 0.0001568 -0.0002112 -0.0001200 -0.0001901 0.0000010 0.0000862 -0.0001473 0.0007086 -0.0009342 0.0011732 0.0004032 0.0006842 0.0008595 -0.0003622 0.0008516 0.0002301
0.0081959 -0.0168962 0.0003169 0.0002593 0.0001571 -0.0003891 -0.0000743 -0.0004959 -0.0000250 -0.0001260 -0.0002087 0.0006449 -0.0007078 0.0009437 0.0003333 0.0007131 0.0008161 -0.0002769 0.0008741 0.0003572
0.0026721 -0.0085765 0.0003426 0.0002584 0.0000504 -0.0004198 -0.0002506 -0.0005673 -0.0002085 -0.0005820 -0.0002491 0.0001796 -0.0005652 0.0009877 0.0002533 0.0002649 0.0009310 -0.0002212 0.0009736 0.0005035
-0.0051877 -0.0029514 0.0003002 0.0002584 -0.0002071 -0.0003394 -0.0005059 -0.0007695 -0.0003025 -0.0007337 -0.0003351 0.0000451 -0.0010382 0.0012017 -0.0002374 -0.0004541 0.0009301 -0.0002828 0.0008802 0.0004004
-0.0085044 0.0020350 0.0002466 0.0003218 -0.0003281 -0.0001199 -0.0006005 -0.0007386 -0.0002193 -0.0003324 -0.0004486 0.0005699 -0.0007511 0.0010121 -0.0005126 -0.0002836 0.0007604 -0.0001903 0.0007178 0.0004280
-0.0020679 0.0050140 0.0002772 0.0005465 -0.0002070 0.0000088 -0.0003488 -0.0001070 -0.0001702 0.0000672 -0.0004690 0.0008811 -0.0004615 0.0012755 -0.0003003 0.0002089 0.0006839 -0.0000338 0.0006717 0.0006124
0.0028963 0.0012071 0.0004013 0.0005481 -0.0000654 -0.0001805 -0.0001611 0.0001297 -0.0000687 0.0000806 -0.0004663 0.0007781 -0.0003103 0.0010223 -0.0002634 0.0002009 0.0006454 -0.0001298 0.0006516 0.0006044
0.0009193 0.0077437 0.0004213 0.0003619 -0.0000414 -0.0004318 -0.0002052 -0.0003494 -0.0000147 -0.0001956 -0.0005004 0.0005938 -0.0002979 0.0007646 -0.0002776 0.0001801 0.0005910 -0.0002212 0.0006155 0.0005519
-0.0041031 0.0107637 0.0003982 0.0003104 -0.0000700 -0.0005511 -0.0002429 -0.0007272 -0.0000399 -0.0003439 -0.0005428 0.0006652 -0.0005342 0.0010546 -0.0002697 0.0004079 0.0005302 -0.0001543 0.0005525 0.0005992
-0.0059317 -0.0076489 0.0003988 0.0003572 -0.0000786 -0.0005446 -0.0002452 -0.0007592 -0.0000582 -0.0003723 -0.0005187 0.0007093 -0.0006037 0.0011805 -0.0002347 0.0005920 0.0005083 -0.0000396 0.0005261 0.0007247
-0.0042002 0.0055423 0.0004106 0.0004449 -0.0001039 -0.0004723 -0.0002871 -0.0006206 -0.0000757 -0.0003010 -0.0004988 0.0007922 -0.0008055 0.0015979 -0.0002265 0.0007520 0.0005060 0.0000817 0.0005468 0.0008116
-0.0058122 0.0102986 0.0004479 0.0005524 -0.0000741 -0.0003936 -0.0001752 -0.0004891 -0.0000700 -0.0001752 -0.0005109 0.0009458 -0.0011785 0.0021831 -0.0002368 0.0009436 0.0004746 0.0002053 0.0005327 0.0009179
-0.0078962 0.0006310 0.0005409 0.0007065 0.0000237 -0.0003590 -0.0000823 -0.0003134 -0.0000305 -0.0000519 -0.0004856 0.0010063 -0.0010595 0.0021857 -0.0002308 0.0009703 0.0004556 0.0002536 0.0005555 0.0009375
-0.0196837 0.0175931 0.0006594 0.0006697 0.0001231 -0.0005125 -0.0001760 -0.0003577 0.0000098 -0.0000933 -0.0004940 0.0008605 -0.0008777 0.0018928 -0.0002575 0.0008607 0.0004670 0.0002402 0.0005953 0.0009482
-0.0121349 0.0056791 0.0006792 0.0005601 0.0001526 -0.0006623 -0.0001233 -0.0006167 0.0000368 -0.0000687 -0.0004846 0.0007014 -0.0010961 0.0016888 -0.0003717 0.0007555 0.0004497 0.0002150 0.0005398 0.0009520
0.0039594 0.0007521 0.0005745 0.0005391 0.0001302 -0.0005988 -0.0000654 -0.0006017 0.0000483 0.0001462 -0.0004601 0.0007704 -0.0008007 0.0012547 -0.0004660 0.0005887 0.0004796 0.0001608 0.0004869 0.0008616
-0.0003875 0.0171574 0.0004154 0.0005209 0.0000601 -0.0004072 -0.0001101 -0.0005715 0.0000153 0.0002457 -0.0004398 0.0008925 -0.0008619 0.0010987 -0.0005680 0.0003194 0.0005435 0.0000870 0.0004497 0.0007624
-0.0095093 0.0252741 0.0002512 0.0006053 -0.0000392 -0.0001503 -0.0001579 -0.0006828 -0.0000020 0.0003434 -0.0004900 0.0010070 -0.0007014 0.0006439 -0.0008125 0.0000480 0.0005066 -0.0000001 0.0003611 0.0006938
-0.0004419 0.0070099 0.0001278 0.0007488 -0.0001239 0.0001167 -0.0001996 -0.0005013 0.0000066 0.0006170 -0.0005894 0.0012062 -0.0005319 0.0005317 -0.0010037 -0.0000598 0.0004337 -0.0000360 0.0002613 0.0006741
0.0131959 -0.0228883 0.0000399 0.0007857 -0.0001776 0.0003289 -0.0001529 -0.0002730 0.0000255 0.0007904 -0.0005945 0.0012156 -0.0009385 0.0007598 -0.0010183 -0.0001867 0.0004162 -0.0001119 0.0002110 0.0005248
-0.0025896 0.0078336 -0.0000648 0.0005611 -0.0002161 0.0002955 -0.0001096 -0.0002826 0.0000859 0.0007659 -0.0005153 0.0009891 -0.0010894 0.0004320 -0.0008768 -0.0003250 0.0005839 -0.0000759 0.0001582 0.0001896
-0.0161690 0.0232364 -0.0001258 0.0003706 -0.0002287 0.0001605 -0.0001280 -0.0004223 0.0001289 0.0007362 -0.0003857 0.0008313 -0.0008961 0.0001843 -0.0004747 -0.0001665 0.0009839 0.0003157 0.0000469 0.0000143
-0.0076318 0.0097183 -0.0000824 0.0004049 -0.0001508 0.0000993 -0.0001642 -0.0005073 0.0001699 0.0007555 -0.0002247 0.0006182 -0.0006466 0.0001922 0.0001620 0.0001236 0.0015948 0.0009455 0.0004154 0.0011361
-0.0051577 0.0070448 -0.0000500 0.0005103 -0.0000916 0.0001985 -0.0001680 -0.0002922 0.0001777 0.0009111 0.0000265 0.0002127 -0.0001803 0.0000554 0.0009825 0.0003595 0.0026108 0.0020975 0.0024125 0.0041627
0.0036486 -0.0006877 -0.0000347 0.0005775 -0.0000766 0.0004190 -0.0001579 0.0001352 0.0001727 0.0011229 0.0003774 -0.0000558 0.0006372 -0.0001116 0.0018207 0.0007042 0.0034700 0.0032458 0.0043496 0.0066906
0.0048161 -0.0018865 0.0000550 0.0004985 -0.0000146 0.0005934 -0.0000865 0.0004296 0.0001828 0.0012625 0.0005933 -0.0001512 0.0010540 0.0000619 0.0023052 0.0011278 0.0038154 0.0038145 0.0051511 0.0076863
-0.0032107 0.0094026 0.0002111 0.0003611 0.0000777 0.0006604 -0.0000912 0.0004905 0.0001756 0.0012745 0.0006406 -0.0003551 0.0013138 -0.0002328 0.0025258 0.0013060 0.0039323 0.0039956 0.0053175 0.0078682
-0.0043787 0.0076983 0.0002774 0.0001482 0.0001548 0.0004020 -0.0001194 0.0002181 0.0001731 0.0011011 0.0005800 -0.0006203 0.0010215 -0.0006027 0.0023667 0.0009969 0.0037622 0.0037896 0.0049749 0.0076153
-0.0185676 0.0160123 0.0002396 0.0000283 0.0001728 0.0000558 -0.0000378 -0.0001979 0.0001863 0.0009363 0.0003368 -0.0007197 0.0006782 -0.0010081 0.0017028 0.0004316 0.0032857 0.0032886 0.0041909 0.0068504
-0.0006669 0.0077251 0.0002069 0.0001356 0.0001309 -0.0000263 -0.0000312 -0.0002372 0.0001867 0.0008954 0.0000576 -0.0005916 0.0003266 -0.0012374 0.0008632 -0.0000279 0.0025125 0.0025934 0.0027270 0.0051730
0.0066349 -0.0103348 0.0001736 0.0003093 0.0000822 0.0000196 -0.0000098 -0.0002219 0.0001731 0.0009072 -0.0001305 -0.0002412 -0.0004454 -0.0005647 0.0002328 -0.0001461 0.0017120 0.0019218 0.0013555 0.0036335
-0.0036006 -0.0029859 0.0001488 0.0004941 0.0000469 0.0001149 0.0000196 -0.0001499 0.0001870 0.0009531 -0.0001770 0.0000698 -0.0004374 -0.0002281 0.0001040 0.0000464 0.0014273 0.0016669 0.0010566 0.0032941
-0.0034025 0.0101568 0.0001455 0.0006460 0.0000336 0.0002273 -0.0000392 0.0000378 0.0001830 0.0010543 -0.0001387 0.0001874 -0.0000409 -0.0002409 0.0003101 0.0003343 0.0016059 0.0018880 0.0012312 0.0038622
-0.0045925 0.0101523 0.0001520 0.0007466 0.0000400 0.0003409 -0.0000952 0.0001990 0.0001970 0.0011176 -0.0000337 0.0001245 0.0001953 -0.0002669 0.0006567 0.0004826 0.0020490 0.0022974 0.0017726 0.0045033
-0.0113651 0.0090575 0.0001813 0.0004992 0.0000740 0.0002095 -0.0001490 -0.0000254 0.0002219 0.0009306 0.0001102 -0.0002479 0.0004419 -0.0007028 0.0009919 0.0003733 0.0024959 0.0025835 0.0024621 0.0049260
-0.0048540 0.0110926 0.0002391 0.0000865 0.0001226 -0.0001124 -0.0002353 -0.0005188 0.0002287 0.0006728 0.0001215 -0.0005616 0.0005409 -0.0010016 0.0011035 0.0003497 0.0026225 0.0026600 0.0025104 0.0048858
0.0006987 0.0084372 0.0003013 -0.0000902 0.0001512 -0.0002262 -0.0002534 -0.0005990 0.0002362 0.0005803 0.0001506 -0.0005922 0.0005131 -0.0009412 0.0010629 0.0005662 0.0024158 0.0026399 0.0019567 0.0044984
0.0016608 -0.0080968 0.0003525 -0.0001209 0.0001388 -0.0001918 -0.0002427 -0.0005027 0.0002100 0.0005728 0.0001901 -0.0004710 0.0004750 -0.0007061 0.0010773 0.0009419 0.0021239 0.0025866 0.0015132 0.0041686
-0.0088633 0.0088403 0.0003877 -0.0000632 0.0001410 -0.0001461 -0.0002308 -0.0004411 0.0001779 0.0006155 0.0001286 -0.0002616 0.0004004 -0.0002815 0.0011412 0.0013540 0.0019622 0.0025610 0.0013776 0.0041021
-0.0068395 0.0047420 0.0004162 0.0000581 0.0001478 -0.0000676 -0.0001847 -0.0003604 0.0001688 0.0006840 0.0001376 -0.0001170 0.0005219 -0.0000242 0.0011934 0.0016596 0.0018703 0.0025652 0.0013485 0.0041457
0.0089653 -0.0181924 0.0004150 0.0002045 0.0001172 0.0000441 -0.0002317 -0.0001893 0.0001668 0.0007669 0.0001330 0.0000360 0.0005750 0.0002066 0.0011866 0.0018335 0.0017773 0.0025308 0.0012930 0.0039950
0.0011008 -0.0043853 0.0004087 0.0001828 0.0001163 0.0000449 -0.0001840 -0.0002389 0.0001674 0.0006690 0.0001099 -0.0001034 0.0002617 0.0002862 0.0012042 0.0016801 0.0017494 0.0022784 0.0012807 0.0036721
-0.0090719 0.0083084 0.0004035 -0.0000780 0.0001349 -0.0001882 -0.0001351 -0.0006380 0.0001689 0.0003643 0.0001483 -0.0005100 0.0006064 -0.0004318 0.0012783 0.0013723 0.0018086 0.0019446 0.0013615 0.0032881
-0.0019964 0.0006635 0.0003608 -0.0003049 0.0001213 -0.0004141 -0.0001567 -0.0008888 0.0001438 0.0001797 0.0001634 -0.0006698 0.0009386 -0.0007322 0.0013280 0.0012710 0.0018671 0.0017939 0.0014454 0.0030444
-0.0036970 0.0017291 0.0003226 -0.0003283 0.0001000 -0.0004472 -0.0001108 -0.0008677 0.0001425 0.0001292 0.0001694 -0.0006582 0.0008254 -0.0004823 0.0013541 0.0013249 0.0019691 0.0018746 0.0015253 0.0029279
-0.0031763 0.0055726 0.0003122 -0.0002240 0.0000803 -0.0003803 -0.0000787 -0.0007414 0.0001419 0.0001468 0.0001709 -0.0005967 0.0011164 -0.0006009 0.0013997 0.0014022 0.0020854 0.0020038 0.0015932 0.0028785
0.0035886 0.0062988 0.0002947 -0.0000769 0.0000539 -0.0002569 -0.0000847 -0.0005447 0.0001173 0.0002440 0.0001515 -0.0004917 0.0011922 -0.0004859 0.0014054 0.0014479 0.0021089 0.0020594 0.0016574 0.0029471
0.0051147 0.0059474 0.0002752 0.0000671 0.0000479 -0.0001391 -0.0001537 -0.0003704 0.0001232 0.0003329 0.0001475 -0.0003900 0.0012277 -0.0004081 0.0013753 0.0014918 0.0020773 0.0020916 0.0016092 0.0029992
0.0009521 -0.0040417 0.0002571 0.0002127 0.0000268 -0.0000042 -0.0002076 -0.0002250 0.0001261 0.0004346 0.0001259 -0.0002779 0.0011487 -0.0003377 0.0013387 0.0014899 0.0019982 0.0020791 0.0014290 0.0028610
-0.0131150 0.0131673 0.0002722 0.0001890 0.0000513 -0.0000009 -0.0002196 -0.0002811 0.0001317 0.0003576 0.0000668 -0.0003924 0.0009567 -0.0004231 0.0012779 0.0012646 0.0018847 0.0018677 0.0012507 0.0024225
-0.0020516 0.0044749 0.0003090 -0.0000839 0.0001164 -0.0002770 -0.0002901 -0.0006727 0.0001469 0.0000627 0.0000716 -0.0007348 0.0008835 -0.0008169 0.0012963 0.0009811 0.0018492 0.0016127 0.0011747 0.0019353
0.0086163 -0.0090562 0.0003162 -0.0002841 0.0001122 -0.0005072 -0.0003503 -0.0009400 0.0001549 -0.0001105 0.0000888 -0.0008771 0.0006342 -0.0007472 0.0013220 0.0008922 0.0018478 0.0014994 0.0012020 0.0016609
-0.0035948 0.0081490 0.0003175 -0.0002933 0.0001082 -0.0005508 -0.0002829 -0.0009740 0.0001606 -0.0001218 0.0000769 -0.0008699 0.0002869 -0.0003468 0.0013028 0.0008981 0.0018178 0.0014392 0.0012782 0.0015722
-0.0019719 -0.0014689 0.0003161 -0.0002258 0.0001154 -0.0005045 -0.0002338 -0.0008945 0.0001521 -0.0000589 0.0000987 -0.0008481 0.0003902 -0.0003266 0.0012999 0.0009548 0.0018589 0.0014746 0.0016728 0.0018584
0.0085731 -0.0190213 0.0003014 -0.0001128 0.0000983 -0.0003864 -0.0002641 -0.0007125 0.0001360 0.0000613 0.0000666 -0.0007528 0.0005424 -0.0004160 0.0012488 0.0009839 0.0018791 0.0015169 0.0018446 0.0020035
0.0067415 -0.0268437 0.0002828 0.0000201 0.0000711 -0.0002461 -0.0002487 -0.0005611 0.0001306 0.0002112 0.0000207 -0.0006418 0.0005218 -0.0003153 0.0011753 0.0010349 0.0018426 0.0015674 0.0016644 0.0018876
0.0024945 -0.0126095 0.0002534 0.0001726 0.0000321 -0.0000713 -0.0002718 -0.0003394 0.0001164 0.0004095 -0.0000128 -0.0004969 0.0008343 -0.0004020 0.0011326 0.0011013 0.0018106 0.0016215 0.0015928 0.0018311
-0.0103713 0.0200937 0.0002567 0.0001407 0.0000401 -0.0000453 -0.0003414 -0.0002615 0.0000964 0.0004120 0.0000119 -0.0006085 0.0008222 -0.0005819 0.0011489 0.0009170 0.0018050 0.0015150 0.0015139 0.0015516
-0.0119235 0.0108400 0.0002747 -0.0001043 0.0000724 -0.0002393 -0.0003150 -0.0005701 0.0001202 0.0001771 0.0000337 -0.0009239 0.0008355 -0.0010621 0.0011168 0.0005817 0.0018060 0.0013335 0.0014857 0.0012977
-0.0026596 -0.0067119 0.0002618 -0.0002228 0.0000732 -0.0003650 -0.0003077 -0.0007509 0.0001420 0.0000791 -0.0000160 -0.0010009 0.0008391 -0.0012645 0.0010195 0.0003678 0.0017892 0.0012556 0.0013974 0.0010941
-0.0142643 0.0182624 0.0002579 -0.0001824 0.0000899 -0.0003659 -0.0003114 -0.0006829 0.0001329 0.0001456 -0.0000750 -0.0009053 0.0007591 -0.0011109 0.0009555 0.0002990 0.0017519 0.0012558 0.0011918 0.0008790
-0.0071258 0.0036721 0.0002390 -0.0000873 0.0000700 -0.0002728 -0.0002969 -0.0005168 0.0001526 0.0002491 -0.0000727 -0.0007915 0.0007563 -0.0009699 0.0009452 0.0003489 0.0017045 0.0013008 0.0010623 0.0008807
0.0096312 -0.0221528 0.0002037 0.0000772 0.0000263 -0.0000956 -0.0003346 -0.0002380 0.0001507 0.0004092 -0.0000804 -0.0006321 0.0003880 -0.0006009 0.0007858 0.0003905 0.0014911 0.0012932 0.0007145 0.0006167
-0.0048921 0.0002632 0.0002055 0.0002651 0.0000239 0.0000281 -0.0003632 -0.0000578 0.0001530 0.0005265 -0.0001601 -0.0004145 -0.0001878 -0.0000633 0.0005181 0.0004404 0.0010859 0.0010848 0.0002862 0.0000485
-0.0281726 0.0289183 0.0001900 0.0004364 0.0000041 0.0001359 -0.0004284 0.0000891 0.0001552 0.0006297 -0.0001710 -0.0002206 -0.0004035 0.0001708 0.0003795 0.0005003 0.0007931 0.0008606 0.0001942 -0.0003230
-0.0072123 0.0108901 0.0001730 0.0004909 0.0000018 0.0001925 -0.0005131 0.0001710 0.0001409 0.0006221 -0.0001453 -0.0002890 -0.0004020 -0.0000895 0.0003140 0.0002807 0.0006900 0.0006443 0.0002397 -0.0006157
0.0080272 -0.0199255 0.0001776 0.0002756 0.0000328 -0.0000102 -0.0004580 -0.0001584 0.0001457 0.0003955 -0.0000939 -0.0005850 -0.0004559 -0.0004313 0.0002528 -0.0000775 0.0006412 0.0003959 0.0002331 -0.0008896
0.0002254 -0.0003502 0.0001660 0.0000703 0.0000284 -0.0002389 -0.0004514 -0.0004884 0.0001281 0.0002649 -0.0001018 -0.0006751 -0.0003769 -0.0006569 0.0001663 -0.0002429 0.0005884 0.0003002 0.0002418 -0.0009953
0.0036223 -0.0033101 0.0001578 0.0000803 0.0000030 -0.0002614 -0.0004995 -0.0004480 0.0001007 0.0003095 -0.0001618 -0.0005912 -0.0004671 -0.0005691 0.0000981 -0.0002596 0.0005371 0.0003002 0.0002790 -0.0009861
-0.0004130 -0.0051613 0.0001603 0.0001638 0.0000039 -0.0002121 -0.0003939 -0.0003642 0.0001099 0.0003733 -0.0001867 -0.0004880 -0.0000332 -0.0007217 0.0000681 -0.0001526 0.0005026 0.0003514 0.0003000 -0.0008626
-0.0034306 0.0115821 0.0001612 0.0002772 0.0000067 -0.0001276 -0.0003853 -0.0002448 0.0001254 0.0004486 -0.0002159 -0.0003629 0.0002257 -0.0007540 0.0000631 -0.0000427 0.0004746 0.0004136 0.0003218 -0.0007300
-0.0046368 0.0141092 0.0001645 0.0003869 0.0000031 -0.0000314 -0.0004394 -0.0001523 0.0001179 0.0005438 -0.0002561 -0.0002360 -0.0000474 -0.0003789 0.0000420 0.0000573 0.0004390 0.0004830 0.0003194 -0.0005735
-0.0144620 0.0193667 0.0001654 0.0005034 -0.0000090 0.0000812 -0.0004567 -0.0000025 0.0001126 0.0006622 -0.0002692 -0.0001117 -0.0000491 -0.0002520 0.0000334 0.0000903 0.0004150 0.0005190 0.0003390 -0.0005341
-0.0119171 0.0027770 0.0001846 0.0004122 0.0000046 0.0000396 -0.0005007 -0.0000204 0.0001153 0.0005773 -0.0002625 -0.0002431 -0.0000349 -0.0004949 0.0000471 -0.0000722 0.0004039 0.0004351 0.0003671 -0.0006482
0.0026742 -0.0194491 0.0002100 0.0001818 0.0000496 -0.0001790 -0.0005745 -0.0002898 0.0001466 0.0003444 -0.0002781 -0.0004510 -0.0001883 -0.0006155 0.0000324 -0.0001947 0.0003837 0.0003593 0.0003708 -0.0006735
0.0042678 -0.0060738 0.0002064 0.0001135 0.0000384 -0.0002752 -0.0006490 -0.0003460 0.0001486 0.0002930 -0.0002594 -0.0004804 -0.0004112 -0.0004731 0.0000292 -0.0001950 0.0003647 0.0003654 0.0003907 -0.0006207
-0.0035483 0.0164031 0.0001936 0.0001605 0.0000090 -0.0002415 -0.0007190 -0.0001977 0.0001258 0.0003562 -0.0002503 -0.0004236 -0.0005205 -0.0003283 0.0000255 -0.0001432 0.0003507 0.0004043 0.0004030 -0.0005291
-0.0076119 0.0223391 0.0001822 0.0002586 0.0000131 -0.0001768 -0.0007329 -0.0000502 0.0001192 0.0004480 -0.0002329 -0.0003164 -0.0004875 -0.0001734 0.0000204 -0.0000105 0.0003370 0.0004919 0.0003911 -0.0003774
-0.0062108 0.0174385 0.0001782 0.0003821 0.0000024 -0.0000592 -0.0007294 0.0001343 0.0001033 0.0005680 -0.0002153 -0.0001828 -0.0004432 -0.0000679 0.0000199 0.0001301 0.0003245 0.0005933 0.0004103 -0.0002347
-0.0061426 0.0123711 0.0001757 0.0005052 0.0000020 0.0000537 -0.0007379 0.0002901 0.0000885 0.0007016 -0.0002417 -0.0000023 -0.0007065 0.0003420 0.0000081 0.0002927 0.0003146 0.0007001 0.0004395 -0.0000766
-0.0120626 0.0117217 0.0001860 0.0006094 0.0000143 0.0001540 -0.0006811 0.0003338 0.0000788 0.0007527 -0.0002202 -0.0000305 -0.0004356 0.0001225 0.0000197 0.0002186 0.0003198 0.0006595 0.0004622 -0.0001158
0.0023581 0.0041901 0.0002005 0.0004181 0.0000347 0.0000072 -0.0007367 0.0001308 0.0000849 0.0005614 -0.0002115 -0.0002713 -0.0000900 -0.0005277 0.0000440 -0.0000595 0.0003278 0.0005134 0.0005070 -0.0003019
0.0031109 -0.0017382 0.0001969 0.0001236 0.0000494 -0.0002734 -0.0006774 -0.0002620 0.0000898 0.0003410 -0.0002203 -0.0003957 -0.0004758 -0.0004089 0.0000539 -0.0001526 0.0003306 0.0004766 0.0005092 -0.0002991
-0.0080268 0.0094809 0.0001846 0.0000783 0.0000461 -0.0003503 -0.0005767 -0.0003643 0.0000845 0.0002866 -0.0001905 -0.0003931 -0.0002737 -0.0005098 0.0000544 -0.0001198 0.0003312 0.0005141 0.0005215 -0.0002282
-0.0054199 0.0090616 0.0001723 0.0001436 0.0000313 -0.0003048 -0.0006271 -0.0002160 0.0000859 0.0003061 -0.0001798 -0.0003145 -0.0000113 -0.0005563 0.0000562 -0.0000394 0.0003292 0.0005919 0.0005237 -0.0001162
-0.0098221 0.0049364 0.0001536 0.0002588 0.0000052 -0.0002032 -0.0006289 -0.0000780 0.0001063 0.0003680 -0.0001936 -0.0001750 -0.0001016 -0.0002741 0.0000403 0.0000992 0.0003309 0.0006899 0.0005131 0.0000276
0.0011695 -0.0018799 0.0001390 0.0003816 -0.0000185 -0.0000937 -0.0006327 0.0000517 0.0000986 0.0004603 -0.0002049 -0.0000491 0.0000667 -0.0002919 0.0000419 0.0002084 0.0003278 0.0007819 0.0005044 0.0001629
0.0154883 -0.0168304 0.0001263 0.0005065 -0.0000545 0.0000369 -0.0006800 0.0002289 0.0000553 0.0006047 -0.0002188 0.0000983 -0.0000344 -0.0000419 0.0000331 0.0003133 0.0003143 0.0008755 0.0004853 0.0003049
0.0079740 -0.0119254 0.0001390 0.0005403 -0.0000510 0.0001029 -0.0007302 0.0002866 0.0000608 0.0005828 -0.0002038 0.0000147 -0.0001957 -0.0001228 0.0000199 0.0001800 0.0003133 0.0008097 0.0004794 0.0002657
-0.0120565 0.0078981 0.0001552 0.0003217 -0.0000282 -0.0000833 -0.0007818 0.0000360 0.0000715 0.0003414 -0.0002044 -0.0002529 -0.0001699 -0.0006309 0.0000155 -0.0001777 0.0003221 0.0006427 0.0004832 0.0001110
-0.0037483 0.0083290 0.0001557 0.0001078 -0.0000058 -0.0003326 -0.0007992 -0.0002816 0.0000720 0.0001520 -0.0002522 -0.0003366 -0.0002999 -0.0006877 -0.0000262 -0.0003401 0.0003194 0.0006015 0.0004865 0.0000886
-0.0056420 0.0050895 0.0001655 0.0000864 -0.0000014 -0.0004086 -0.0007554 -0.0004026 0.0000894 0.0000937 -0.0002400 -0.0003318 -0.0003820 -0.0005975 -0.0000367 -0.0003140 0.0003151 0.0006447 0.0004821 0.0001730
0.0004744 -0.0015545 0.0001594 0.0001505 -0.0000306 -0.0003576 -0.0007550 -0.0003051 0.0000787 0.0001447 -0.0002301 -0.0002572 -0.0004913 -0.0003540 -0.0000336 -0.0002034 0.0003048 0.0007257 0.0004999 0.0002981
0.0092002 -0.0113502 0.0001484 0.0002753 -0.0000456 -0.0002565 -0.0007039 -0.0002035 0.0000672 0.0002340 -0.0002525 -0.0001105 -0.0008210 0.0001248 -0.0000394 -0.0000652 0.0002937 0.0008215 0.0004995 0.0004376
0.0092646 -0.0259243 0.0001524 0.0004013 -0.0000461 -0.0001512 -0.0006773 -0.0001168 0.0000573 0.0003180 -0.0002424 -0.0000203 -0.0007465 0.0002291 -0.0000568 0.0000471 0.0002816 0.0009100 0.0005152 0.0005436
0.0007537 -0.0009371 0.0001432 0.0005242 -0.0000496 -0.0000265 -0.0007467 0.0001046 0.0000382 0.0004353 -0.0002412 0.0000862 -0.0006404 0.0002388 -0.0001035 0.0001289 0.0002637 0.0009833 0.0005333 0.0006233
-0.0046884 0.0025621 0.0001436 0.0004971 -0.0000297 -0.0000169 -0.0006884 0.0000557 0.0000454 0.0003672 -0.0002259 -0.0000246 -0.0005704 -0.0000198 -0.0001418 -0.0000238 0.0002529 0.0009172 0.0005112 0.0005601
0.0026377 -0.0176796 0.0001478 0.0002985 -0.0000135 -0.0001806 -0.0006336 -0.0002877 0.0000513 0.0001772 -0.0002420 -0.0002425 -0.0002683 -0.0005703 -0.0001642 -0.0002560 0.0002404 0.0008067 0.0004882 0.0004623
0.0080149 -0.0108675 0.0001183 0.0002039 -0.0000331 -0.0002797 -0.0006464 -0.0004158 0.0000420 0.0001851 -0.0002775 -0.0002088 -0.0003428 -0.0005137 -0.0001530 -0.0002219 0.0002221 0.0008261 0.0004883 0.0005366
-0.0002043 0.0088876 0.0000872 0.0002490 -0.0000657 -0.0002284 -0.0005735 -0.0003871 0.0000584 0.0002613 -0.0002487 -0.0000771 0.0000042 -0.0005785 -0.0000923 -0.0000078 0.0002155 0.0009206 0.0004874 0.0007141
-0.0032743 0.0066816 0.0000762 0.0003432 -0.0000840 -0.0001257 -0.0005394 -0.0003044 0.0000697 0.0003355 -0.0002289 0.0000608 0.0003017 -0.0005509 -0.0000225 0.0002180 0.0002246 0.0010510 0.0004869 0.0008914
-0.0045605 0.0006108 0.0000663 0.0004701 -0.0000825 0.0000011 -0.0005515 -0.0001205 0.0000679 0.0004614 -0.0002421 0.0001986 0.0001139 -0.0002078 0.0000098 0.0003809 0.0002269 0.0011650 0.0004867 0.0010209
-0.0086421 0.0050427 0.0000407 0.0005907 -0.0001141 0.0001784 -0.0005098 0.0001556 0.0000868 0.0005942 -0.0001900 0.0003227 0.0000659 -0.0000896 0.0000714 0.0004547 0.0002425 0.0012338 0.0004706 0.0011240
-0.0054842 -0.0074111 0.0000267 0.0007429 -0.0001644 0.0003851 -0.0005172 0.0004399 0.0000889 0.0007462 -0.0001964 0.0004345 -0.0001662 0.0001567 0.0000602 0.0004053 0.0002520 0.0012431 0.0004729 0.0011159
0.0015828 -0.0154825 0.0000570 0.0006520 -0.0001366 0.0003139 -0.0005632 0.0003257 0.0000950 0.0006469 -0.0002177 0.0002754 -0.0005168 0.0002555 -0.0000003 0.0001999 0.0002488 0.0011247 0.0004639 0.0010034
-0.0092328 0.0065116 0.0000662 0.0003514 -0.0000856 0.0000324 -0.0006240 -0.0000274 0.0001072 0.0003673 -0.0001819 -0.0000477 -0.0006129 -0.0000405 0.0000114 -0.0000127 0.0002525 0.0009954 0.0004733 0.0009243
-0.0023651 -0.0068051 0.0000410 0.0002531 -0.0000855 -0.0000928 -0.0006872 -0.0001208 0.0001083 0.0002799 -0.0001936 -0.0001287 -0.0005886 -0.0002194 0.0000279 -0.0000405 0.0002487 0.0009929 0.0004929 0.0009425
0.0042554 -0.0083116 0.0000330 0.0003093 -0.0000902 -0.0000826 -0.0006387 -0.0000739 0.0000970 0.0003370 -0.0001502 -0.0001008 -0.0005377 -0.0001560 0.0000154 0.0000611 0.0002305 0.0010589 0.0004686 0.0010730
0.0023800 0.0080330 0.0000521 0.0004036 -0.0000945 -0.0000461 -0.0006223 -0.0000706 0.0000791 0.0004172 -0.0001396 -0.0000095 -0.0003149 -0.0000877 0.0000038 0.0002280 0.0001986 0.0011500 0.0004702 0.0012069
0.0054172 0.0012769 0.0000708 0.0005156 -0.0000925 0.0000436 -0.0006429 0.0000242 0.0000484 0.0005067 -0.0002012 0.0001414 -0.0003855 0.0001922 0.0000112 0.0004057 0.0001734 0.0012437 0.0004786 0.0013283
0.0022752 -0.0018402 0.0000762 0.0006349 -0.0001021 0.0001880 -0.0006022 0.0001097 0.0000397 0.0005666 -0.0002383 0.0002538 -0.0001658 0.0001318 -0.0000136 0.0005166 0.0001485 0.0013264 0.0004537 0.0014678
0.0049955 -0.0018276 0.0000726 0.0007481 -0.0001286 0.0003248 -0.0006393 0.0001644 0.0000305 0.0006411 -0.0002989 0.0003498 -0.0000082 -0.0000255 -0.0001231 0.0004297 0.0001103 0.0013091 0.0004659 0.0014452
0.0052144 -0.0004076 0.0000247 0.0005704 -0.0001781 0.0002856 -0.0006264 -0.0000594 -0.0000289 0.0004684 -0.0004728 0.0002813 -0.0008472 0.0000042 -0.0007129 -0.0002577 -0.0001360 0.0006339 0.0004243 0.0004364
-0.0007706 0.0083462 -0.0000072 0.0002472 -0.0002123 0.0000124 -0.0007076 -0.0006379 -0.0000406 0.0000677 -0.0007339 0.0002238 -0.0016613 -0.0001496 -0.0017452 -0.0013090 -0.0007694 -0.0005574 -0.0003040 -0.0011910
-0.0123722 0.0156698 -0.0000457 0.0000699 -0.0002865 -0.0001802 -0.0009159 -0.0010749 -0.0000912 -0.0002049 -0.0009230 0.0004901 -0.0020000 0.0001341 -0.0023775 -0.0016579 -0.0014734 -0.0011008 -0.0013449 -0.0014091
-0.0062643 0.0032103 -0.0000516 0.0000813 -0.0003251 -0.0001655 -0.0008706 -0.0008700 -0.0000920 -0.0002509 -0.0008959 0.0007049 -0.0018320 0.0007084 -0.0020799 -0.0010586 -0.0014887 -0.0007550 -0.0012583 -0.0006844
0.0054758 -0.0074127 0.0000861 0.0002904 -0.0001901 -0.0001045 -0.0007195 -0.0002931 0.0000026 -0.0000687 -0.0007690 0.0007146 -0.0012511 0.0008516 -0.0014047 -0.0003176 -0.0010340 -0.0002157 -0.0004867 -0.0002702
0.0088851 -0.0155223 0.0002055 0.0004825 -0.0000396 -0.0000567 -0.0006285 0.0001333 0.0000231 0.0001432 -0.0006788 0.0007537 -0.0010340 0.0009817 -0.0010479 0.0000250 -0.0007685 0.0000488 -0.0000953 -0.0000768
0.0092058 -0.0128513 0.0001679 0.0006148 -0.0000129 0.0000786 -0.0005469 0.0004002 0.0000274 0.0003458 -0.0006211 0.0008289 -0.0011812 0.0011060 -0.0010933 -0.0000031 -0.0006976 0.0000789 -0.0002123 -0.0001242
0.0005182 0.0043441 0.0000146 0.0006830 -0.0001201 0.0003226 -0.0005636 0.0005336 0.0000121 0.0004847 -0.0005781 0.0010048 -0.0013198 0.0011413 -0.0012627 -0.0001887 -0.0009513 -0.0001142 -0.0009170 -0.0004251
-0.0121771 0.0178277 -0.0000867 0.0004750 -0.0001525 0.0002837 -0.0005591 0.0004373 0.0000069 0.0003486 -0.0004977 0.0010000 -0.0012538 0.0011274 -0.0011190 -0.0001290 -0.0011040 -0.0002450 -0.0013220 -0.0004426
-0.0147017 0.0204172 -0.0000982 0.0001936 -0.0001168 0.0000022 -0.0004485 0.0001435 0.0000495 0.0001538 -0.0004155 0.0007619 -0.0010442 0.0008386 -0.0008417 0.0000689 -0.0009591 -0.0001839 -0.0010276 -0.0002754
0.0047695 -0.0043249 -0.0000880 0.0001888 -0.0001032 -0.0001073 -0.0003768 0.0000704 0.0000772 0.0001367 -0.0003406 0.0006436 -0.0008684 0.0008499 -0.0005626 0.0003234 -0.0008117 -0.0000700 -0.0006122 -0.0001123
0.0034206 -0.0046165 -0.0000564 0.0003047 -0.0000774 -0.0001025 -0.0002676 -0.0000140 0.0001012 0.0001649 -0.0002616 0.0006165 -0.0009447 0.0011164 -0.0002895 0.0006043 -0.0006354 0.0001342 -0.0001895 0.0001736
-0.0063582 0.0066345 -0.0000352 0.0004383 -0.0000573 -0.0000491 -0.0002225 -0.0000916 0.0001289 0.0002495 -0.0001898 0.0006121 -0.0006696 0.0009248 -0.0001698 0.0007274 -0.0004962 0.0003022 0.0001238 0.0005130
-0.0026562 -0.0084282 -0.0000332 0.0005587 -0.0000364 0.0000694 -0.0002575 0.0000799 0.0001327 0.0003791 -0.0001499 0.0006062 -0.0003626 0.0008061 -0.0001000 0.0008022 -0.0003135 0.0004845 0.0003554 0.0009638
-0.0051629 -0.0132200 -0.0000469 0.0006641 -0.0000438 0.0002029 -0.0002141 0.0002043 0.0001568 0.0004905 -0.0001399 0.0006364 -0.0003803 0.0008981 -0.0001118 0.0008655 -0.0001825 0.0006895 0.0003811 0.0012006
0.0108199 -0.0311283 -0.0000388 0.0007951 -0.0000289 0.0003255 -0.0002113 0.0002584 0.0001785 0.0006096 -0.0001650 0.0007376 -0.0001709 0.0007163 -0.0001511 0.0008873 -0.0001684 0.0007929 0.0003415 0.0012067
0.0230538 -0.0329652 -0.0000045 0.0007216 0.0000157 0.0002899 -0.0002020 0.0001606 0.0001685 0.0005557 -0.0001509 0.0006209 -0.0001671 0.0004995 -0.0001371 0.0007638 -0.0001760 0.0007549 0.0002998 0.0011374
0.0107085 -0.0101166 0.0000153 0.0004809 0.0000569 0.0000716 -0.0002336 -0.0001443 0.0001825 0.0003237 -0.0001503 0.0003592 -0.0000292 0.0000204 -0.0001714 0.0005842 -0.0002007 0.0006875 0.0002489 0.0010917
-0.0161154 0.0177042 0.0000196 0.0004090 0.0000864 -0.0000670 -0.0002800 -0.0003187 0.0001958 0.0002411 -0.0002039 0.0003161 0.0000182 -0.0000851 -0.0001944 0.0005435 -0.0002180 0.0007045 0.0002159 0.0011377
-0.0045980 0.0164498 0.0000208 0.0004520 0.0000928 -0.0000631 -0.0002501 -0.0002745 0.0002037 0.0002884 -0.0002407 0.0004295 -0.0000882 0.0001325 -0.0001887 0.0006574 -0.0002303 0.0007831 0.0001934 0.0012429
0.0004162 0.0017364 0.0000346 0.0005399 0.0001008 -0.0000074 -0.0002363 -0.0001737 0.0002215 0.0003557 -0.0002375 0.0005474 -0.0001635 0.0003019 -0.0001914 0.0007853 -0.0002576 0.0008723 0.0001825 0.0013711
-0.0014047 -0.0191866 0.0000529 0.0006446 0.0000916 0.0000711 -0.0002877 -0.0000759 0.0002115 0.0004185 -0.0002454 0.0006627 -0.0004296 0.0006528 -0.0001970 0.0008983 -0.0002755 0.0009475 0.0001862 0.0014735
-0.0008731 -0.0259046 0.0000466 0.0007291 0.0000662 0.0001662 -0.0003286 -0.0000590 0.0001933 0.0004806 -0.0002764 0.0007652 -0.0006915 0.0009848 -0.0002548 0.0009887 -0.0003001 0.0009998 0.0001482 0.0015329
-0.0136172 0.0059589 0.0000112 0.0007400 0.0000339 0.0002616 -0.0003734 -0.0000505 0.0001817 0.0004762 -0.0002616 0.0006979 -0.0008240 0.0009344 -0.0003428 0.0008527 -0.0003596 0.0009142 0.0001638 0.0012583
-0.0162649 0.0250524 -0.0000194 0.0005510 0.0000187 0.0001737 -0.0004582 -0.0001248 0.0001888 0.0003486 -0.0002627 0.0005428 -0.0008617 0.0006488 -0.0003917 0.0007278 -0.0004162 0.0008315 0.0002002 0.0010604
-0.0111092 0.0151325 0.0000520 0.0004130 0.0000753 -0.0000277 -0.0004575 -0.0003772 0.0002248 0.0002356 -0.0002933 0.0004758 -0.0009328 0.0007429 -0.0003673 0.0009133 -0.0004827 0.0008912 0.0001642 0.0012478
0.0005583 0.0008105 0.0001376 0.0003971 0.0001030 -0.0000924 -0.0004744 -0.0003861 0.0002036 0.0002135 -0.0003110 0.0005617 -0.0006285 0.0008398 -0.0002733 0.0012477 -0.0005554 0.0009870 0.0001610 0.0014091
0.0051672 0.0026541 0.0001369 0.0003981 0.0000690 -0.0000166 -0.0004609 -0.0001559 0.0001589 0.0002356 -0.0003320 0.0006896 -0.0005482 0.0009997 -0.0002088 0.0015380 -0.0006152 0.0010874 0.0001689 0.0015924
0.0016368 0.0069918 0.0001757 0.0005238 0.0000907 0.0000888 -0.0003469 0.0000169 0.0001651 0.0003178 -0.0003829 0.0008053 -0.0002423 0.0010296 -0.0001036 0.0018834 -0.0006589 0.0012768 0.0001454 0.0018849
-0.0028977 0.0182199 0.0002930 0.0006507 0.0001295 0.0001760 -0.0002800 0.0003227 0.0001696 0.0004395 -0.0003612 0.0009295 0.0001606 0.0010925 0.0000335 0.0022290 -0.0005928 0.0016281 0.0001418 0.0022330
-0.0046771 0.0137107 0.0004853 0.0007044 0.0001596 0.0002858 -0.0002191 0.0005266 0.0002175 0.0005055 -0.0002346 0.0009285 0.0000847 0.0013421 0.0001452 0.0022938 -0.0005063 0.0017679 0.0001789 0.0024237
-0.0131863 0.0184366 0.0006125 0.0004870 0.0001974 0.0001505 -0.0001540 0.0004281 0.0002879 0.0003534 -0.0001079 0.0006972 0.0003092 0.0009299 0.0002862 0.0020651 -0.0004558 0.0015944 0.0002250 0.0023802
-0.0221705 0.0229790 0.0006500 0.0001498 0.0002158 -0.0002194 -0.0002059 0.0000497 0.0002920 0.0000885 -0.0001000 0.0004849 0.0004405 0.0005888 0.0003399 0.0018866 -0.0004072 0.0014781 0.0002414 0.0023441
-0.0031038 -0.0102383 0.0006817 0.0000463 0.0002231 -0.0004310 -0.0003025 -0.0002532 0.0003065 -0.0000546 -0.0001049 0.0004632 0.0003151 0.0007673 0.0003584 0.0019159 -0.0003834 0.0014772 0.0002282 0.0023969
-0.0006237 -0.0038533 0.0006605 0.0000879 0.0001980 -0.0004372 -0.0003294 -0.0001737 0.0003011 -0.0000160 -0.0000649 0.0005114 0.0002587 0.0008642 0.0004006 0.0019689 -0.0003592 0.0015086 0.0002125 0.0025004
-0.0030952 0.0023079 0.0006273 0.0001848 0.0001566 -0.0003589 -0.0003733 0.0000204 0.0002595 0.0001155 -0.0000501 0.0006151 0.0002445 0.0009623 0.0004483 0.0020494 -0.0003236 0.0015819 0.0002029 0.0026400
-0.0019880 0.0073278 0.0005962 0.0003040 0.0001272 -0.0002505 -0.0003473 0.0001335 0.0002472 0.0002059 -0.0000505 0.0006594 0.0001006 0.0010962 0.0003890 0.0020742 -0.0003249 0.0016564 0.0001659 0.0027733
-0.0019688 0.0123326 0.0005984 0.0004284 0.0001248 -0.0001909 -0.0003671 0.0001509 0.0002256 0.0002891 -0.0000488 0.0007062 0.0000190 0.0011630 0.0003623 0.0021030 -0.0003404 0.0017275 0.0001290 0.0028415
-0.0011316 -0.0000927 0.0006590 0.0003779 0.0001696 -0.0002719 -0.0004303 0.0000847 0.0002128 0.0002342 -0.0000112 0.0005868 0.0000786 0.0009963 0.0005035 0.0020230 -0.0002886 0.0016563 0.0000817 0.0028925
-0.0101955 0.0110185 0.0007202 0.0000995 0.0002117 -0.0005330 -0.0003779 -0.0003133 0.0002402 0.0000138 0.0002910 0.0000472 0.0008325 0.0001681 0.0008754 0.0016557 0.0001958 0.0017207 0.0004179 0.0036476
-0.0015849 0.0092278 0.0007317 -0.0001381 0.0002276 -0.0007621 -0.0003606 -0.0006641 0.0002458 -0.0000921 0.0005343 -0.0004744 0.0013365 -0.0005499 0.0011308 0.0012967 0.0008329 0.0021166 0.0010758 0.0046660
0.0076466 -0.0105052 0.0006321 -0.0002460 0.0002024 -0.0007270 -0.0002453 -0.0007829 0.0002254 -0.0000776 0.0004574 -0.0005801 0.0009786 -0.0004403 0.0011526 0.0012974 0.0012303 0.0026380 0.0019130 0.0055946
0.0048239 -0.0115036 0.0005321 -0.0002642 0.0001844 -0.0005549 -0.0001576 -0.0007324 0.0002347 -0.0000312 0.0004268 -0.0005014 0.0012550 -0.0005101 0.0012500 0.0014799 0.0014516 0.0030532 0.0024520 0.0063292
0.0037289 -0.0050106 0.0005354 -0.0001505 0.0002015 -0.0004046 -0.0002106 -0.0004566 0.0002287 0.0000832 0.0003848 -0.0004353 0.0013696 -0.0005073 0.0011945 0.0015496 0.0013963 0.0031610 0.0020929 0.0061931
0.0052483 0.0009356 0.0005422 0.0000194 0.0002076 -0.0003058 -0.0002215 -0.0002556 0.0002428 0.0001829 0.0002507 -0.0002987 0.0009744 -0.0002279 0.0009128 0.0015380 0.0011561 0.0031382 0.0013640 0.0056361
0.0004066 0.0035291 0.0005221 0.0001580 0.0001922 -0.0001861 -0.0002345 -0.0001162 0.0002565 0.0002858 0.0001193 -0.0001412 0.0008521 -0.0002891 0.0006953 0.0014215 0.0009120 0.0030150 0.0008386 0.0051053
0.0042672 -0.0022370 0.0005463 0.0000198 0.0002358 -0.0002895 -0.0002983 -0.0002463 0.0002604 0.0001916 0.0000677 -0.0002515 0.0007917 -0.0004695 0.0006789 0.0012484 0.0008092 0.0028225 0.0006519 0.0048039
0.0120693 -0.0157514 0.0005867 -0.0002836 0.0003286 -0.0006069 -0.0003234 -0.0006443 0.0002923 -0.0000669 0.0001220 -0.0005016 0.0008662 -0.0007200 0.0007556 0.0011684 0.0008441 0.0027311 0.0007017 0.0048577
0.0124180 -0.0280280 0.0005752 -0.0003678 0.0003525 -0.0007375 -0.0002801 -0.0008111 0.0002978 -0.0001480 0.0001934 -0.0005712 0.0008883 -0.0007656 0.0008584 0.0012052 0.0009210 0.0027555 0.0008161 0.0050079
-0.0056193 0.0055547 0.0005527 -0.0003110 0.0003465 -0.0007155 -0.0002255 -0.0007234 0.0002886 -0.0000997 0.0001986 -0.0004864 0.0008224 -0.0005290 0.0009289 0.0013313 0.0010414 0.0029114 0.0009606 0.0051984
-0.0139755 0.0186448 0.0005379 -0.0002090 0.0003365 -0.0006497 -0.0001947 -0.0005742 0.0002831 -0.0000099 0.0002374 -0.0003818 0.0008689 -0.0003505 0.0009890 0.0014921 0.0011528 0.0031035 0.0010747 0.0054109
0.0005181 0.0080537 0.0005228 -0.0000821 0.0003095 -0.0005389 -0.0002132 -0.0004125 0.0002815 0.0000884 0.0002907 -0.0002894 0.0008475 -0.0001483 0.0010372 0.0016776 0.0011865 0.0032106 0.0011628 0.0055629
0.0052615 -0.0045328 0.0004981 0.0000609 0.0002872 -0.0004212 -0.0001312 -0.0003431 0.0002779 0.0001929 0.0002909 -0.0001596 0.0005205 0.0002960 0.0010663 0.0018121 0.0012048 0.0032933 0.0013072 0.0057499
0.0139513 -0.0316762 0.0005058 0.0000186 0.0003027 -0.0004610 -0.0001276 -0.0004653 0.0002817 0.0001276 0.0002660 -0.0003041 0.0005594 0.0000533 0.0010329 0.0016845 0.0011637 0.0032022 0.0012897 0.0056600
0.0101158 -0.0286121 0.0005725 -0.0002270 0.0003609 -0.0007449 -0.0002805 -0.0008501 0.0003044 -0.0000849 0.0002315 -0.0005169 0.0008701 -0.0003347 0.0010820 0.0017304 0.0010762 0.0030942 0.0011367 0.0055490
-0.0066607 -0.0040491 0.0006099 -0.0003627 0.0004006 -0.0009200 -0.0002427 -0.0010738 0.0003280 -0.0001928 0.0002523 -0.0005319 0.0009985 -0.0003651 0.0012056 0.0020009 0.0010248 0.0031318 0.0010637 0.0056613
-0.0079326 0.0055837 0.0006093 -0.0003431 0.0004052 -0.0008834 -0.0001422 -0.0009831 0.0003209 -0.0001722 0.0002482 -0.0004961 0.0013364 -0.0005915 0.0012253 0.0020975 0.0009981 0.0031762 0.0010057 0.0057184
0.0026350 0.0065616 0.0006165 -0.0002593 0.0004036 -0.0008217 -0.0001242 -0.0007383 0.0002999 -0.0000798 0.0001994 -0.0004010 0.0013808 -0.0004124 0.0011599 0.0021121 0.0009556 0.0032440 0.0009046 0.0057853
0.0033013 0.0107866 0.0006054 -0.0001599 0.0003884 -0.0007219 -0.0000966 -0.0004276 0.0003110 0.0000070 0.0001469 -0.0002926 0.0012876 -0.0002416 0.0010365 0.0021355 0.0008235 0.0032772 0.0006490 0.0056896
-0.0104155 0.0166523 0.0005847 -0.0000563 0.0003497 -0.0006010 -0.0001067 -0.0002425 0.0003212 0.0000907 0.0000801 -0.0001548 0.0012074 -0.0001182 0.0009679 0.0022008 0.0007048 0.0032848 0.0004525 0.0055851
-0.0064338 0.0000766 0.0005825 0.0000391 0.0003406 -0.0005074 -0.0001277 -0.0001793 0.0003021 0.0001208 0.0000638 -0.0001615 0.0011159 -0.0000947 0.0010166 0.0021218 0.0007492 0.0032579 0.0005289 0.0055930
0.0005914 -0.0140494 0.0005938 -0.0001215 0.0003689 -0.0006522 -0.0001504 -0.0004788 0.0003266 -0.0000822 0.0001427 -0.0004292 0.0010292 -0.0003367 0.0011125 0.0019136 0.0008589 0.0031694 0.0006744 0.0055801
-0.0012116 0.0040862 0.0005974 -0.0003670 0.0003620 -0.0008931 -0.0001922 -0.0008633 0.0003522 -0.0003025 0.0002002 -0.0005936 0.0008733 -0.0003482 0.0011592 0.0018684 0.0009139 0.0031354 0.0007550 0.0056006
-0.0059929 0.0101933 0.0005971 -0.0004102 0.0003559 -0.0009665 -0.0001198 -0.0010092 0.0003239 -0.0003385 0.0002183 -0.0005842 0.0006529 -0.0001109 0.0011653 0.0019385 0.0009253 0.0031665 0.0007697 0.0056491
-0.0118111 0.0125413 0.0005940 -0.0003561 0.0003627 -0.0009432 -0.0000615 -0.0009911 0.0003134 -0.0003070 0.0002612 -0.0005626 0.0007833 -0.0001501 0.0011556 0.0020134 0.0009207 0.0032060 0.0007681 0.0056894
-0.0012532 -0.0018267 0.0005761 -0.0002505 0.0003495 -0.0008550 -0.0001489 -0.0007874 0.0003151 -0.0002296 0.0002515 -0.0004648 0.0009163 -0.0001403 0.0011274 0.0021099 0.0009084 0.0032668 0.0007496 0.0057471
-0.0016430 -0.0097438 0.0005633 -0.0001389 0.0003388 -0.0007481 -0.0001405 -0.0006516 0.0003132 -0.0001387 0.0002288 -0.0003523 0.0008559 0.0000338 0.0010852 0.0022137 0.0008931 0.0033433 0.0007023 0.0058307
-0.0072050 0.0050957 0.0005535 -0.0000243 0.0003234 -0.0006258 -0.0001032 -0.0005598 0.0003034 -0.0000290 0.0002156 -0.0002516 0.0011476 -0.0000718 0.0010273 0.0022706 0.0008522 0.0034076 0.0006460 0.0059041
-0.0000598 0.0049500 0.0005636 -0.0000415 0.0003355 -0.0005872 -0.0001325 -0.0005511 0.0002936 -0.0000587 0.0001916 -0.0003593 0.0012157 -0.0003293 0.0009676 0.0020686 0.0007881 0.0033176 0.0005402 0.0057679
0.0072490 -0.0106797 0.0005884 -0.0002563 0.0003761 -0.0007697 -0.0000916 -0.0009156 0.0003302 -0.0002870 0.0001533 -0.0006001 0.0013518 -0.0008471 0.0009170 0.0018227 0.0006826 0.0031513 0.0003458 0.0055069
0.0004788 -0.0061274 0.0005883 -0.0003994 0.0003880 -0.0009402 -0.0000929 -0.0011600 0.0003573 -0.0004031 0.0001116 -0.0006529 0.0014069 -0.0009792 0.0009132 0.0017972 0.0006008 0.0030791 0.0002314 0.0054132
0.0024288 -0.0115409 0.0005814 -0.0003831 0.0003836 -0.0009557 -0.0001256 -0.0011026 0.0003566 -0.0003720 0.0000793 -0.0005784 0.0012532 -0.0007604 0.0009449 0.0018685 0.0006356 0.0031361 0.0002861 0.0055014
-0.0009045 -0.0072327 0.0005751 -0.0003114 0.0003759 -0.0009076 -0.0001124 -0.0009856 0.0003789 -0.0003216 0.0000809 -0.0005131 0.0012155 -0.0006432 0.0009765 0.0019417 0.0006811 0.0032415 0.0003517 0.0056390
-0.0108138 0.0147648 0.0005636 -0.0002068 0.0003598 -0.0008076 -0.0001156 -0.0007972 0.0003746 -0.0002130 0.0001050 -0.0004475 0.0009600 -0.0003060 0.0009799 0.0020245 0.0006850 0.0032988 0.0003638 0.0057162
-0.0058190 0.0063238 0.0005447 -0.0000919 0.0003522 -0.0006959 -0.0000849 -0.0006585 0.0003614 -0.0000801 0.0000949 -0.0003304 0.0005713 0.0001663 0.0009618 0.0021511 0.0006776 0.0033743 0.0003418 0.0057966
0.0039431 -0.0157402 0.0005286 0.0000403 0.0003383 -0.0005653 -0.0001131 -0.0004632 0.0003657 0.0000583 0.0000982 -0.0002079 0.0005874 0.0003260 0.0009504 0.0022873 0.0006674 0.0034566 0.0003216 0.0058778
-0.0036613 0.0025854 0.0005323 0.0001267 0.0003387 -0.0004482 -0.0001812 -0.0002928 0.0003618 0.0001226 0.0001111 -0.0002760 0.0006587 0.0001338 0.0009389 0.0021950 0.0006490 0.0033895 0.0002985 0.0057748
-0.0052129 0.0026477 0.0005517 -0.0000637 0.0003860 -0.0006029 -0.0001053 -0.0005992 0.0003751 -0.0000418 0.0001129 -0.0005467 0.0006156 -0.0002158 0.0009329 0.0019439 0.0006281 0.0032085 0.0002674 0.0055682
-0.0040653 0.0075942 0.0005591 -0.0003301 0.0004262 -0.0008621 -0.0000771 -0.0009234 0.0003794 -0.0002055 0.0001001 -0.0006892 0.0009867 -0.0006161 0.0009315 0.0018543 0.0006181 0.0031385 0.0002382 0.0054949
0.0012502 0.0030039 0.0005488 -0.0003793 0.0004279 -0.0009028 -0.0000886 -0.0008527 0.0003685 -0.0001962 0.0001044 -0.0006926 0.0010223 -0.0006311 0.0009368 0.0018616 0.0006156 0.0031634 0.0002207 0.0055136
0.0104719 -0.0364420 0.0005175 -0.0003176 0.0003917 -0.0008157 0.0000244 -0.0006958 0.0003811 -0.0001231 0.0001328 -0.0006376 0.0012177 -0.0007111 0.0009584 0.0019295 0.0006394 0.0032308 0.0002052 0.0055777
-0.0022400 0.0012361 0.0004146 -0.0001887 0.0003120 -0.0006054 0.0001720 -0.0002864 0.0003816 0.0000417 0.0001941 -0.0004947 0.0015315 -0.0007594 0.0010023 0.0019624 0.0007010 0.0033061 0.0002006 0.0056581
0.0065120 -0.0034830 0.0003331 -0.0000343 0.0002720 -0.0004035 0.0002339 0.0000651 0.0003749 0.0001871 0.0002231 -0.0003588 0.0014042 -0.0004858 0.0010158 0.0019736 0.0007589 0.0033784 0.0002043 0.0057385
0.0039594 -0.0178823 0.0002924 0.0000405 0.0002519 -0.0003217 0.0001506 0.0000727 0.0003828 0.0002557 0.0002380 -0.0002773 0.0013037 -0.0002606 0.0010292 0.0020437 0.0007976 0.0034802 0.0002002 0.0058125
-0.0021557 -0.0108717 0.0002307 0.0001014 0.0001872 -0.0002088 0.0000591 0.0000969 0.0003676 0.0003749 0.0002434 -0.0001669 0.0010674 -0.0000381 0.0009938 0.0019996 0.0008022 0.0035219 0.0001777 0.0057502
-0.0046381 0.0047407 0.0002428 0.0000419 0.0002012 -0.0002149 0.0000429 -0.0000029 0.0003713 0.0002914 0.0002334 -0.0003072 0.0007730 -0.0001399 0.0009073 0.0016997 0.0008129 0.0034106 0.0002338 0.0056124
-0.0118691 0.0109942 0.0002962 -0.0001733 0.0002700 -0.0004410 -0.0000400 -0.0003777 0.0003809 0.0000060 0.0002793 -0.0006323 0.0007527 -0.0005257 0.0008860 0.0014404 0.0008436 0.0032945 0.0005148 0.0057006
-0.0028936 -0.0048508 0.0003264 -0.0002376 0.0002997 -0.0006099 -0.0001544 -0.0006499 0.0003741 -0.0001477 0.0002550 -0.0007431 0.0006191 -0.0007045 0.0007606 0.0012986 0.0007409 0.0032599 0.0003730 0.0056470
-0.0042298 -0.0018047 0.0003546 -0.0001775 0.0003140 -0.0006799 -0.0001404 -0.0008038 0.0003837 -0.0001962 0.0001573 -0.0007048 0.0003339 -0.0007209 0.0004749 0.0011438 0.0003959 0.0030762 -0.0002878 0.0049688
-0.0044554 -0.0008048 0.0003651 -0.0000827 0.0003204 -0.0006890 -0.0001256 -0.0008028 0.0003793 -0.0001598 0.0000899 -0.0005575 0.0004293 -0.0006929 0.0003050 0.0011629 0.0000619 0.0028620 -0.0006630 0.0043803
-0.0046313 -0.0032211 0.0003567 0.0000366 0.0003132 -0.0006204 -0.0001235 -0.0006637 0.0003641 -0.0000345 0.0000786 -0.0003994 0.0003821 -0.0005114 0.0002889 0.0012993 -0.0000549 0.0028262 -0.0007274 0.0043843
-0.0080851 -0.0075254 0.0003566 0.0001605 0.0003040 -0.0005186 -0.0000953 -0.0005994 0.0003651 0.0000913 0.0000815 -0.0002933 0.0007271 -0.0006575 0.0003311 0.0014292 -0.0000158 0.0028896 -0.0007006 0.0047188
-0.0145485 0.0138285 0.0003540 0.0002832 0.0002979 -0.0003931 -0.0001019 -0.0004620 0.0003597 0.0002351 0.0000975 -0.0001914 0.0011126 -0.0006865 0.0004780 0.0015304 0.0002077 0.0030833 -0.0004067 0.0052350
-0.0109898 0.0135739 0.0003697 0.0001977 0.0003239 -0.0004134 -0.0001050 -0.0004963 0.0003660 0.0001877 0.0001340 -0.0003131 0.0010343 -0.0007043 0.0006282 0.0014891 0.0004644 0.0032235 -0.0000791 0.0054732
0.0003968 -0.0159452 0.0003941 -0.0000425 0.0003622 -0.0006107 -0.0001648 -0.0007670 0.0004006 -0.0000338 0.0002024 -0.0005556 0.0010049 -0.0009257 0.0007332 0.0014001 0.0005895 0.0032301 0.0000181 0.0054704
-0.0015669 -0.0123482 0.0003847 -0.0001313 0.0003518 -0.0007065 -0.0002011 -0.0008668 0.0004139 -0.0001027 0.0002436 -0.0006104 0.0009456 -0.0008830 0.0007911 0.0014110 0.0006311 0.0032454 0.0000450 0.0055238
-0.0119831 0.0128758 0.0003708 -0.0001027 0.0003441 -0.0006813 -0.0001663 -0.0007943 0.0004106 -0.0000623 0.0002597 -0.0005546 0.0007235 -0.0005845 0.0007935 0.0015030 0.0006601 0.0033008 0.0001323 0.0056786
-0.0145439 0.0194805 0.0003602 -0.0000289 0.0003439 -0.0006065 -0.0001592 -0.0006405 0.0004062 0.0000256 0.0003122 -0.0004580 0.0006882 -0.0003530 0.0008230 0.0016924 0.0006881 0.0034116 0.0003767 0.0059720
-0.0038360 -0.0044352 0.0003500 0.0000671 0.0003206 -0.0004830 -0.0001876 -0.0004278 0.0003915 0.0001431 0.0003268 -0.0003278 0.0007109 -0.0002411 0.0008575 0.0018756 0.0007011 0.0035166 0.0004943 0.0061492
-0.0095015 0.0024099 0.0003524 0.0001608 0.0003080 -0.0003567 -0.0001709 -0.0002912 0.0003755 0.0002522 0.0003483 -0.0002179 0.0006800 -0.0000434 0.0008361 0.0020179 0.0006863 0.0035960 0.0003090 0.0061197
-0.0053692 0.0137818 0.0003616 0.0002541 0.0003081 -0.0002199 -0.0001575 -0.0001518 0.0003591 0.0003659 0.0003620 -0.0001475 0.0008900 -0.0000968 0.0008015 0.0019607 0.0006536 0.0035924 0.0000958 0.0059410
-0.0018355 0.0149085 0.0004760 -0.0000345 0.0003845 -0.0003257 -0.0001505 -0.0003466 0.0003515 0.0002184 0.0003203 -0.0003576 0.0008432 -0.0004609 0.0007386 0.0016108 0.0005726 0.0034113 -0.0000954 0.0056733
-0.0044566 0.0076859 0.0007025 -0.0006585 0.0005029 -0.0006593 -0.0001257 -0.0008682 0.0003695 -0.0001119 0.0002862 -0.0006635 0.0012125 -0.0012025 0.0006860 0.0013690 0.0004913 0.0032548 -0.0002362 0.0055231
-0.0052853 0.0127038 0.0007314 -0.0007746 0.0005076 -0.0008438 -0.0001221 -0.0010400 0.0003756 -0.0002067 0.0002791 -0.0006950 0.0014455 -0.0014034 0.0007163 0.0014022 0.0005074 0.0032863 -0.0002378 0.0055463
-0.0100616 0.0212723 0.0005974 -0.0004431 0.0004259 -0.0008648 -0.0000811 -0.0010106 0.0003742 -0.0001618 0.0002736 -0.0005954 0.0012832 -0.0010662 0.0007552 0.0015255 0.0005419 0.0033679 -0.0002248 0.0056073
-0.0136758 0.0162236 0.0005148 -0.0001934 0.0003443 -0.0007807 -0.0000922 -0.0008808 0.0003896 -0.0000914 0.0002904 -0.0004938 0.0012522 -0.0008938 0.0007836 0.0015996 0.0005402 0.0034173 -0.0002545 0.0056578
-0.0068279 0.0077752 0.0004713 -0.0000375 0.0003015 -0.0006485 -0.0001382 -0.0006667 0.0003755 0.0000224 0.0002948 -0.0003997 0.0010845 -0.0006935 0.0007570 0.0016420 0.0005169 0.0034723 -0.0003138 0.0057267
0.0007156 -0.0105586 0.0004690 0.0000826 0.0003101 -0.0005520 -0.0001831 -0.0005281 0.0003795 0.0001113 0.0002415 -0.0002812 0.0007642 -0.0003499 0.0006595 0.0017127 0.0004327 0.0035297 -0.0004207 0.0057388
-0.0044369 0.0157827 0.0004710 0.0002003 0.0003165 -0.0004548 -0.0002416 -0.0003319 0.0003785 0.0002259 0.0002402 -0.0001569 0.0006529 -0.0001623 0.0006529 0.0017851 0.0003918 0.0035594 -0.0004286 0.0057024
-0.0051980 0.0200068 0.0004873 0.0001287 0.0003411 -0.0004995 -0.0003128 -0.0003442 0.0003752 0.0001566 0.0002566 -0.0003073 0.0005981 -0.0003182 0.0006968 0.0016417 0.0004273 0.0034564 -0.0003423 0.0056335
-0.0011557 -0.0099437 0.0005236 -0.0001159 0.0004029 -0.0007683 -0.0002682 -0.0008009 0.0004013 -0.0001158 0.0002966 -0.0006535 0.0005666 -0.0005865 0.0007229 0.0014646 0.0004700 0.0033379 -0.0003029 0.0055851
-0.0045090 -0.0041682 0.0005231 -0.0002206 0.0004132 -0.0009313 -0.0002066 -0.0010382 0.0003832 -0.0002094 0.0003357 -0.0007364 0.0009017 -0.0008768 0.0007470 0.0014622 0.0005009 0.0033334 -0.0002977 0.0055692
0.0026368 -0.0011101 0.0004951 -0.0001893 0.0003806 -0.0009094 -0.0001848 -0.0009514 0.0003491 -0.0001516 0.0003209 -0.0006540 0.0009070 -0.0008555 0.0007218 0.0014744 0.0004721 0.0033508 -0.0003711 0.0055556
0.0056975 0.0001375 0.0004802 -0.0000996 0.0003656 -0.0008446 -0.0000896 -0.0008889 0.0003547 -0.0000876 0.0002799 -0.0005324 0.0011786 -0.0009757 0.0006546 0.0015240 0.0003706 0.0034012 -0.0005614 0.0055212
-0.0024737 0.0126588 0.0004748 0.0000219 0.0003440 -0.0007339 -0.0000691 -0.0007367 0.0003628 -0.0000189 0.0001970 -0.0003666 0.0012812 -0.0009569 0.0005440 0.0016007 0.0001719 0.0034066 -0.0008436 0.0052796
0.0000937 0.0015513 0.0004661 0.0001519 0.0003229 -0.0006283 -0.0000644 -0.0006250 0.0003486 0.0000774 0.0001096 -0.0001681 0.0009653 -0.0006064 0.0004265 0.0017106 -0.0000748 0.0032975 -0.0010824 0.0049457
-0.0019888 0.0017121 0.0004588 0.0002976 0.0003088 -0.0005245 -0.0000760 -0.0005118 0.0003567 0.0001816 0.0000728 0.0000041 0.0007974 -0.0003635 0.0003546 0.0017634 -0.0002522 0.0031790 -0.0012142 0.0047503
-0.0053257 0.0087546 0.0004749 0.0003346 0.0003154 -0.0004777 -0.0001470 -0.0004307 0.0003764 0.0001385 0.0000678 -0.0000800 0.0005840 -0.0003554 0.0003236 0.0015626 -0.0003452 0.0029826 -0.0012684 0.0044970
-0.0017470 0.0029021 0.0004940 0.0001270 0.0003649 -0.0006846 -0.0001969 -0.0007153 0.0003988 -0.0001093 0.0000566 -0.0003583 0.0002772 -0.0005250 0.0002812 0.0012614 -0.0003989 0.0027340 -0.0013085 0.0042305
-0.0090573 0.0175018 0.0004962 -0.0000834 0.0003819 -0.0009376 -0.0002546 -0.0010308 0.0003904 -0.0002719 0.0000847 -0.0004880 0.0002101 -0.0006646 0.0002538 0.0011534 -0.0004390 0.0026295 -0.0013108 0.0040949
-0.0039428 0.0074717 0.0004896 -0.0001091 0.0003689 -0.0009876 -0.0003171 -0.0010253 0.0003676 -0.0002847 0.0000912 -0.0004581 0.0002339 -0.0006775 0.0002298 0.0011908 -0.0004740 0.0026276 -0.0013014 0.0040535
-0.0019072 -0.0112357 0.0004814 -0.0000479 0.0003612 -0.0009423 -0.0002114 -0.0009780 0.0003647 -0.0002561 0.0000948 -0.0003974 0.0002040 -0.0005238 0.0001842 0.0012796 -0.0005044 0.0026634 -0.0013489 0.0041233
-0.0057170 0.0050507 0.0004739 0.0000618 0.0003362 -0.0008452 -0.0001350 -0.0008896 0.0003483 -0.0001723 0.0000810 -0.0002875 0.0004782 -0.0005552 0.0001559 0.0013808 -0.0005368 0.0027143 -0.0013702 0.0041840
0.0062096 -0.0090717 0.0004598 0.0001720 0.0003153 -0.0007420 -0.0001741 -0.0007502 0.0003112 -0.0000475 0.0000152 -0.0001412 0.0004259 -0.0004508 0.0001126 0.0014764 -0.0005842 0.0027683 -0.0013785 0.0042439
0.0043219 -0.0133843 0.0004679 0.0002659 0.0003172 -0.0006599 -0.0001546 -0.0007185 0.0003152 0.0000636 -0.0000459 -0.0000050 0.0006219 -0.0004437 0.0001124 0.0016386 -0.0006363 0.0028442 -0.0014122 0.0043782
-0.0145385 0.0206234 0.0004615 0.0003597 0.0002902 -0.0005155 -0.0001683 -0.0005260 0.0003249 0.0001618 -0.0000559 0.0000811 0.0007827 -0.0004705 0.0001577 0.0016667 -0.0006614 0.0028239 -0.0014353 0.0043639
-0.0052436 0.0132252 0.0004796 0.0002055 0.0003313 -0.0006025 -0.0002041 -0.0006249 0.0003427 0.0000319 -0.0000722 -0.0000669 0.0006721 -0.0006591 0.0001644 0.0014672 -0.0006705 0.0026681 -0.0014404 0.0041774
0.0041189 -0.0075759 0.0005099 -0.0000952 0.0003870 -0.0008804 -0.0002235 -0.0010157 0.0003723 -0.0002164 -0.0000773 -0.0002970 0.0006230 -0.0008992 0.0001811 0.0013221 -0.0006796 0.0025636 -0.0014478 0.0040956
-0.0045062 0.0061553 0.0004937 -0.0001709 0.0003663 -0.0009628 -0.0002326 -0.0010589 0.0003653 -0.0002537 -0.0000568 -0.0003385 0.0004391 -0.0007508 0.0001941 0.0013262 -0.0006896 0.0025524 -0.0014464 0.0040926
0.0013371 -0.0055976 0.0004849 -0.0001137 0.0003583 -0.0009285 -0.0002405 -0.0009475 0.0003811 -0.0002147 -0.0000536 -0.0002741 0.0000855 -0.0003338 0.0001770 0.0014161 -0.0007051 0.0025843 -0.0014624 0.0041480
0.0011503 -0.0058993 0.0004784 -0.0000274 0.0003501 -0.0008489 -0.0002456 -0.0007834 0.0003849 -0.0001416 -0.0000260 -0.0001882 0.0000486 -0.0001784 0.0001680 0.0015217 -0.0007195 0.0026438 -0.0014530 0.0042082
-0.0028978 0.0028012 0.0004855 0.0000741 0.0003488 -0.0007519 -0.0002651 -0.0006746 0.0003631 -0.0000399 -0.0000455 -0.0000955 0.0001229 -0.0001172 0.0001503 0.0016137 -0.0007427 0.0027067 -0.0014459 0.0042799
-0.0037348 -0.0004898 0.0004969 0.0001787 0.0003560 -0.0006747 -0.0002095 -0.0006456 0.0003432 0.0000685 -0.0000434 -0.0000082 0.0001021 0.0000831 0.0001375 0.0017656 -0.0007710 0.0027882 -0.0014714 0.0044138
-0.0009050 0.0000396 0.0004999 0.0002872 0.0003518 -0.0005528 -0.0002090 -0.0004478 0.0003276 0.0002066 -0.0000596 0.0001165 0.0004276 0.0000024 0.0001296 0.0018669 -0.0007977 0.0028417 -0.0014813 0.0044531
0.0142416 -0.0177337 0.0005290 0.0002259 0.0003890 -0.0005433 -0.0002580 -0.0004016 0.0003216 0.0001622 -0.0001037 0.0000071 0.0005098 -0.0002623 0.0001184 0.0017122 -0.0008094 0.0027442 -0.0014934 0.0043397
0.0079898 -0.0014545 0.0005360 -0.0000021 0.0004130 -0.0007288 -0.0001842 -0.0007041 0.0003396 -0.0000482 -0.0000823 -0.0002357 0.0007291 -0.0007665 0.0001491 0.0015507 -0.0007961 0.0026259 -0.0015155 0.0042504
-0.0028468 0.0208564 0.0005045 -0.0000963 0.0003787 -0.0008177 -0.0001529 -0.0007647 0.0003451 -0.0001132 -0.0000766 -0.0002603 0.0008296 -0.0008099 0.0001904 0.0015183 -0.0007901 0.0026034 -0.0015212 0.0042393
-0.0013705 0.0182279 0.0004918 -0.0000583 0.0003719 -0.0008071 -0.0001419 -0.0006688 0.0003390 -0.0000879 -0.0001031 -0.0001903 0.0007095 -0.0005437 0.0002000 0.0015480 -0.0007967 0.0026231 -0.0015253 0.0042683
-0.0063736 0.0051425 0.0004900 0.0000055 0.0003617 -0.0007667 -0.0001192 -0.0006022 0.0003626 -0.0000545 -0.0000816 -0.0001258 0.0005990 -0.0003692 0.0002191 0.0016460 -0.0008003 0.0026740 -0.0015453 0.0043538
-0.0080541 0.0052639 0.0004903 0.0000961 0.0003453 -0.0006753 -0.0001540 -0.0004534 0.0003737 0.0000256 -0.0000787 -0.0000633 0.0003687 -0.0000852 0.0002029 0.0017299 -0.0008176 0.0027266 -0.0015564 0.0044265
0.0043085 -0.0026494 0.0005024 0.0001899 0.0003646 -0.0006054 -0.0001735 -0.0003707 0.0003848 0.0000964 -0.0001154 0.0000203 0.0000783 0.0002622 0.0001482 0.0018157 -0.0008411 0.0027845 -0.0015777 0.0045145
0.0001706 -0.0008825 0.0005197 0.0002834 0.0003841 -0.0005468 -0.0002322 -0.0003057 0.0003855 0.0001921 -0.0001291 0.0001011 0.0000245 0.0003584 0.0001234 0.0018856 -0.0008680 0.0028295 -0.0015508 0.0045129
-0.0100317 0.0088475 0.0005417 0.0002071 0.0004061 -0.0005691 -0.0003192 -0.0002804 0.0003824 0.0001697 -0.0001426 -0.0000356 0.0000655 0.0001111 0.0001230 0.0017868 -0.0008997 0.0027535 -0.0015476 0.0043771
0.0007793 -0.0073385 0.0005711 -0.0000335 0.0004642 -0.0007652 -0.0002554 -0.0005674 0.0004015 -0.0000325 -0.0001284 -0.0003192 0.0001260 -0.0002149 0.0001254 0.0016486 -0.0009164 0.0026391 -0.0015827 0.0042986
0.0140299 -0.0274643 0.0006065 -0.0001613 0.0005167 -0.0009335 -0.0001410 -0.0007898 0.0003922 -0.0001344 -0.0001251 -0.0003950 0.0004663 -0.0004804 0.0001327 0.0016107 -0.0009267 0.0026067 -0.0015847 0.0042939
0.0104998 -0.0116246 0.0006515 -0.0001424 0.0005536 -0.0009719 -0.0000449 -0.0006677 0.0003764 -0.0001019 -0.0001492 -0.0003551 0.0005557 -0.0004316 0.0001284 0.0016471 -0.0009392 0.0026253 -0.0015957 0.0043447
0.0001255 0.0048719 0.0006678 -0.0000716 0.0005556 -0.0009441 0.0000666 -0.0004828 0.0004064 -0.0000619 -0.0001729 -0.0002533 0.0008949 -0.0004558 0.0001753 0.0018300 -0.0009478 0.0027023 -0.0016001 0.0044916
-0.0100591 0.0081838 0.0006550 0.0000144 0.0005281 -0.0008646 0.0000678 -0.0003128 0.0004212 -0.0000080 -0.0001885 -0.0001053 0.0010542 -0.0002525 0.0002416 0.0020015 -0.0009527 0.0027816 -0.0016027 0.0046223
-0.0093243 -0.0057927 0.0006524 0.0001085 0.0005319 -0.0008012 0.0000506 -0.0002434 0.0004131 0.0000657 -0.0002322 0.0000148 0.0008487 0.0000707 0.0002172 0.0020816 -0.0009621 0.0028419 -0.0016155 0.0046978
-0.0113308 -0.0120720 0.0006604 0.0002064 0.0005465 -0.0007402 0.0000325 -0.0001289 0.0004188 0.0001357 -0.0002341 0.0000919 0.0007159 0.0002376 0.0002038 0.0021273 -0.0009585 0.0028995 -0.0016154 0.0047410
-0.0020901 -0.0021900 0.0006740 0.0001700 0.0005536 -0.0007439 -0.0000280 -0.0000502 0.0004305 0.0000618 -0.0001834 -0.0000422 0.0003912 0.0003665 0.0002376 0.0019872 -0.0009319 0.0028340 -0.0015937 0.0046230
0.0111651 -0.0197528 0.0006547 -0.0000485 0.0005547 -0.0009162 0.0000796 -0.0003127 0.0004316 -0.0001625 -0.0000884 -0.0003129 0.0001085 0.0002613 0.0002909 0.0017474 -0.0008782 0.0026999 -0.0015835 0.0044694
0.0093420 -0.0162582 0.0006106 -0.0001954 0.0005102 -0.0010799 0.0001352 -0.0005606 0.0004143 -0.0002986 0.0000312 -0.0004792 0.0004324 -0.0001156 0.0003434 0.0016878 -0.0008251 0.0026497 -0.0015335 0.0044245
0.0061976 -0.0076435 0.0006241 -0.0002536 0.0003604 -0.0010799 0.0000391 -0.0005744 0.0003668 -0.0002948 0.0000844 -0.0005158 0.0006597 -0.0002151 0.0003687 0.0017677 -0.0007948 0.0027008 -0.0014812 0.0044733
0.0063045 -0.0202417 0.0006735 -0.0003005 0.0001686 -0.0009678 0.0000834 -0.0005606 0.0003293 -0.0001869 0.0000990 -0.0004383 0.0006161 -0.0001053 0.0003345 0.0018694 -0.0008124 0.0027933 -0.0015065 0.0045685
-0.0027969 -0.0022932 0.0007421 -0.0002562 0.0000660 -0.0008279 0.0000782 -0.0004683 0.0003322 -0.0000706 0.0000455 -0.0002940 0.0010558 -0.0003752 0.0002816 0.0019670 -0.0008635 0.0028560 -0.0015427 0.0046361
0.0067036 0.0021777 0.0008407 -0.0001752 0.0000466 -0.0007288 -0.0000129 -0.0004511 0.0003172 -0.0000093 0.0000111 -0.0001827 0.0010725 -0.0002930 0.0002598 0.0020991 -0.0008934 0.0029350 -0.0015720 0.0047388
0.0049832 -0.0013078 0.0009063 -0.0000772 0.0000505 -0.0006629 -0.0000561 -0.0005192 0.0003217 0.0000518 0.0000075 -0.0000553 0.0011373 -0.0002985 0.0002521 0.0021728 -0.0009186 0.0029626 -0.0016167 0.0047581
-0.0058137 -0.0067541 0.0009359 -0.0001574 0.0000963 -0.0007496 -0.0001059 -0.0006731 0.0003452 -0.0000343 -0.0000400 -0.0001049 0.0011562 -0.0004878 0.0002674 0.0020307 -0.0009677 0.0028128 -0.0016574 0.0046030
0.0043340 -0.0154506 0.0009141 -0.0003762 0.0001887 -0.0009763 -0.0001420 -0.0009764 0.0003561 -0.0002372 -0.0000800 -0.0002945 0.0008651 -0.0005911 0.0002695 0.0018820 -0.0010174 0.0026449 -0.0016952 0.0044814
0.0002704 0.0004600 0.0008187 -0.0003817 0.0002720 -0.0010910 -0.0001373 -0.0011450 0.0003866 -0.0003277 -0.0000591 -0.0003624 0.0007414 -0.0006310 0.0002671 0.0018484 -0.0010315 0.0025960 -0.0017070 0.0044380
0.0026975 0.0071458 0.0007250 -0.0002617 0.0003078 -0.0010620 -0.0000924 -0.0010763 0.0003989 -0.0002848 -0.0000343 -0.0003256 0.0004604 -0.0003010 0.0002646 0.0018814 -0.0010327 0.0026230 -0.0016900 0.0044264
-0.0002393 0.0092658 0.0006703 -0.0001508 0.0003163 -0.0009734 -0.0000255 -0.0009182 0.0003903 -0.0001782 -0.0000347 -0.0002135 0.0001711 0.0000871 0.0002648 0.0019699 -0.0010316 0.0026979 -0.0017013 0.0044806
-0.0011385 0.0044052 0.0006316 -0.0000333 0.0003093 -0.0008387 0.0000102 -0.0007519 0.0003841 -0.0000483 -0.0000045 -0.0001206 0.0003979 0.0000070 0.0002706 0.0020538 -0.0010308 0.0027767 -0.0016914 0.0045278
0.0074305 -0.0112270 0.0005965 0.0000894 0.0002852 -0.0006767 -0.0000389 -0.0005315 0.0003766 0.0000907 0.0000002 -0.0000170 0.0005094 0.0000124 0.0002355 0.0021245 -0.0010334 0.0028422 -0.0016838 0.0045803
0.0037596 -0.0069368 0.0005631 0.0002095 0.0002796 -0.0005313 0.0000172 -0.0003837 0.0003812 0.0001901 0.0000302 0.0000164 0.0004864 0.0000084 0.0002064 0.0020589 -0.0010097 0.0028252 -0.0016931 0.0045122
0.0037390 0.0010613 0.0005220 0.0000838 0.0002858 -0.0005894 0.0001161 -0.0005553 0.0003854 0.0000932 0.0000845 -0.0001697 0.0009339 -0.0006042 0.0002385 0.0018291 -0.0009636 0.0027093 -0.0016845 0.0043235
0.0096789 -0.0066106 0.0005227 -0.0002395 0.0002687 -0.0007991 0.0000765 -0.0009118 0.0003772 -0.0001312 0.0001170 -0.0004336 0.0010985 -0.0010095 0.0002614 0.0016598 -0.0009171 0.0026513 -0.0016758 0.0042964
0.0108243 -0.0067559 0.0006723 -0.0004684 0.0003318 -0.0007939 0.0000338 -0.0013055 0.0005363 -0.0002858 0.0003539 -0.0004621 0.0012802 -0.0013287 0.0002357 0.0015576 -0.0008730 0.0027130 -0.0016512 0.0044118
0.0006613 0.0080266 0.0008595 -0.0005417 0.0004283 -0.0007116 0.0000036 -0.0015208 0.0006557 -0.0003186 0.0004605 -0.0003023 0.0013361 -0.0013489 0.0001821 0.0015507 -0.0008633 0.0027818 -0.0016485 0.0045027
-0.0115548 0.0138591 0.0009009 -0.0004430 0.0003813 -0.0007198 -0.0000056 -0.0013588 0.0005280 -0.0002463 0.0002702 -0.0001254 0.0010510 -0.0008690 0.0001544 0.0017184 -0.0008806 0.0028281 -0.0016786 0.0045333
-0.0085980 -0.0089223 0.0008576 -0.0002810 0.0002925 -0.0006707 0.0000758 -0.0011547 0.0004418 -0.0001450 0.0001618 -0.0000347 0.0008152 -0.0005205 0.0001671 0.0018561 -0.0009305 0.0028536 -0.0017128 0.0045565
0.0086806 -0.0291828 0.0007408 -0.0000769 0.0003143 -0.0005839 0.0000817 -0.0009539 0.0004080 -0.0000101 0.0000825 0.0000503 0.0005495 -0.0001216 0.0001631 0.0019872 -0.0010135 0.0028765 -0.0017395 0.0045929
0.0125734 -0.0206908 0.0005996 0.0001489 0.0003863 -0.0004846 0.0001136 -0.0007914 0.0003608 0.0000928 0.0000056 0.0001075 0.0001820 0.0002307 0.0001503 0.0020303 -0.0010727 0.0028522 -0.0017748 0.0045034
0.0143752 -0.0274240 0.0005877 0.0000577 0.0004761 -0.0006151 0.0001565 -0.0009738 0.0003475 -0.0000631 -0.0000010 -0.0001277 0.0003249 -0.0001840 0.0001699 0.0018940 -0.0011033 0.0027316 -0.0017796 0.0042959
0.0081287 -0.0187962 0.0006249 -0.0002243 0.0005518 -0.0009134 0.0000891 -0.0012882 0.0003645 -0.0003307 -0.0000136 -0.0003969 0.0005714 -0.0006127 0.0001915 0.0018110 -0.0011039 0.0026630 -0.0017511 0.0042384
-0.0003654 -0.0114365 0.0007068 -0.0003175 0.0006861 -0.0009758 0.0001608 -0.0016059 0.0006879 -0.0002501 0.0005263 -0.0002883 0.0009663 -0.0007680 0.0001972 0.0018071 -0.0011077 0.0027377 -0.0017779 0.0043074
0.0023528 -0.0266461 0.0007906 -0.0002301 0.0007892 -0.0009086 0.0003643 -0.0016141 0.0010138 -0.0000030 0.0010470 -0.0000560 0.0016133 -0.0009580 0.0001999 0.0018314 -0.0011283 0.0028275 -0.0018369 0.0043513
0.0073712 -0.0070724 0.0008249 -0.0000725 0.0007516 -0.0008840 0.0004656 -0.0012467 0.0010261 0.0000295 0.0009759 0.0000072 0.0015744 -0.0006528 0.0001771 0.0019213 -0.0011342 0.0028714 -0.0018485 0.0043767
0.0045520 0.0081022 0.0008849 0.0000582 0.0007467 -0.0008811 0.0004312 -0.0010895 0.0009838 -0.0000595 0.0008483 0.0000636 0.0014706 -0.0004050 0.0001452 0.0020294 -0.0011393 0.0029093 -0.0018714 0.0044506
-0.0010389 0.0099529 0.0009069 0.0001794 0.0007322 -0.0008464 0.0003668 -0.0009982 0.0008959 -0.0000825 0.0007676 0.0001980 0.0014074 -0.0002891 0.0001451 0.0021755 -0.0011469 0.0029738 -0.0018857 0.0045708
-0.0064157 0.0094485 0.0008891 0.0003136 0.0007123 -0.0007534 0.0003124 -0.0007628 0.0007984 0.0000236 0.0007179 0.0003572 0.0012032 -0.0000797 0.0001705 0.0022344 -0.0011590 0.0029789 -0.0018647 0.0045601
-0.0121624 0.0037230 0.0008693 0.0001954 0.0007103 -0.0008139 0.0003102 -0.0007232 0.0007178 -0.0000202 0.0005380 0.0001925 0.0010454 -0.0002023 0.0001849 0.0020797 -0.0011668 0.0028115 -0.0018432 0.0044194
0.0045914 -0.0108893 0.0008542 -0.0001251 0.0007111 -0.0010790 0.0002485 -0.0010426 0.0006255 -0.0003024 0.0002790 -0.0000993 0.0008356 -0.0001893 0.0002164 0.0020257 -0.0011728 0.0026579 -0.0017994 0.0043468
0.0057935 -0.0117151 0.0008157 -0.0002403 0.0006942 -0.0012337 0.0002901 -0.0013026 0.0005568 -0.0004404 0.0001325 -0.0001658 0.0005256 0.0001493 0.0002551 0.0021283 -0.0012114 0.0026156 -0.0017848 0.0043879
0.0006939 -0.0037171 0.0008065 -0.0002055 0.0006986 -0.0012657 0.0003597 -0.0012520 0.0005287 -0.0004104 0.0000976 -0.0001332 0.0007290 0.0001701 0.0003103 0.0022974 -0.0012609 0.0026473 -0.0017739 0.0044336
0.0018635 -0.0037414 0.0008041 -0.0001232 0.0007154 -0.0011959 0.0003123 -0.0010080 0.0005058 -0.0003369 0.0000405 -0.0000408 0.0009007 0.0002945 0.0003158 0.0024365 -0.0012943 0.0027161 -0.0017847 0.0044857
0.0037548 -0.0034296 0.0008208 -0.0000022 0.0007360 -0.0011105 0.0003628 -0.0008984 0.0005322 -0.0002791 -0.0000411 0.0000244 0.0008621 0.0004013 0.0002337 0.0024862 -0.0013152 0.0027749 -0.0018128 0.0045561
0.0010620 0.0025787 0.0008692 0.0001204 0.0007702 -0.0010977 0.0003794 -0.0008333 0.0005499 -0.0002096 -0.0000813 0.0001020 0.0010945 0.0002973 0.0002058 0.0025675 -0.0013146 0.0028544 -0.0018223 0.0046382
-0.0021045 0.0192444 0.0008568 0.0002444 0.0007477 -0.0009965 0.0003212 -0.0005695 0.0005182 -0.0000618 -0.0000999 0.0002306 0.0010934 0.0005092 0.0002181 0.0026403 -0.0012967 0.0029381 -0.0018435 0.0047067
0.0004607 0.0201351 0.0008234 0.0001985 0.0007266 -0.0009609 0.0003641 -0.0004600 0.0005167 -0.0000998 0.0000927 0.0001286 0.0012907 0.0003206 0.0004138 0.0025119 -0.0011547 0.0029039 -0.0018393 0.0045573
0.0055287 -0.0031342 0.0007389 -0.0000457 0.0006035 -0.0009556 0.0004635 -0.0005085 0.0005551 -0.0003234 0.0003108 -0.0002977 0.0014253 -0.0003826 0.0005064 0.0021104 -0.0010195 0.0027149 -0.0017305 0.0044110
0.0078311 -0.0133264 0.0008404 -0.0003178 0.0004832 -0.0011119 0.0003534 -0.0008395 0.0005894 -0.0004146 0.0002942 -0.0005170 0.0011809 -0.0005473 0.0003271 0.0017681 -0.0010043 0.0025866 -0.0016671 0.0043650
-0.0026192 -0.0093092 0.0008472 -0.0005250 0.0002826 -0.0011910 0.0002462 -0.0010450 0.0005226 -0.0003030 0.0002370 -0.0004323 0.0011512 -0.0005495 0.0001770 0.0016034 -0.0010169 0.0025469 -0.0017237 0.0041451
0.0159944 -0.0451940 0.0005945 -0.0005237 -0.0000396 -0.0009520 0.0002221 -0.0007937 0.0004136 -0.0001378 0.0001316 -0.0002822 0.0008622 -0.0004540 -0.0000371 0.0015137 -0.0011613 0.0024074 -0.0018072 0.0036384
0.0246866 -0.0711448 0.0004832 -0.0003946 -0.0001977 -0.0007391 0.0002230 -0.0007777 0.0003318 -0.0000461 -0.0000339 -0.0000991 0.0000970 -0.0001262 -0.0004460 0.0013159 -0.0014302 0.0020756 -0.0020148 0.0028239
-0.0056291 -0.0006447 0.0004464 -0.0003467 -0.0001791 -0.0004664 0.0001162 -0.0010436 0.0003686 -0.0000837 -0.0000266 0.0001549 -0.0001080 -0.0002709 -0.0008446 0.0010617 -0.0016199 0.0018279 -0.0021768 0.0023576
-0.0007412 0.0019857 0.0005245 -0.0002746 0.0000220 -0.0002356 -0.0001284 -0.0012898 0.0005477 -0.0001072 0.0001065 0.0004605 -0.0000648 -0.0002308 -0.0010614 0.0009561 -0.0017860 0.0016385 -0.0023692 0.0019317
0.0038677 -0.0147943 0.0005922 -0.0003451 0.0001208 -0.0002398 -0.0001255 -0.0013409 0.0005471 -0.0001874 0.0000052 0.0004930 -0.0002705 -0.0000414 -0.0011245 0.0008808 -0.0020191 0.0012212 -0.0026889 0.0012000
0.0056374 -0.0069707 0.0004742 -0.0003926 0.0001171 -0.0003969 0.0000049 -0.0011056 0.0004202 -0.0002844 -0.0001957 0.0002893 -0.0001289 -0.0001594 -0.0009011 0.0009801 -0.0020569 0.0010465 -0.0026070 0.0013000
0.0082642 0.0033510 0.0003765 -0.0001431 0.0002490 -0.0005148 0.0000509 -0.0008065 0.0004001 -0.0002495 -0.0002414 0.0001579 0.0001339 -0.0001088 -0.0005977 0.0012577 -0.0019241 0.0012269 -0.0023376 0.0018392
0.0047129 0.0066180 0.0003498 0.0000298 0.0003464 -0.0005394 0.0000437 -0.0007249 0.0004034 -0.0002159 -0.0001753 0.0001132 0.0003014 -0.0001035 -0.0004153 0.0014493 -0.0018249 0.0014113 -0.0022757 0.0020976
-0.0095483 0.0157477 0.0002987 0.0001236 0.0003095 -0.0004623 0.0000746 -0.0006733 0.0003914 -0.0001258 -0.0001171 0.0001402 0.0003622 -0.0001329 -0.0003434 0.0015365 -0.0017523 0.0015564 -0.0022010 0.0023064
-0.0288783 0.0350686 0.0002801 0.0002601 0.0002741 -0.0003436 0.0001302 -0.0005116 0.0003628 0.0000191 -0.0000877 0.0002038 0.0002534 0.0000991 -0.0002799 0.0016036 -0.0015510 0.0017886 -0.0020817 0.0029051
-0.0247577 0.0296119 0.0003001 0.0004104 0.0002659 -0.0002488 0.0001614 -0.0004050 0.0003277 0.0001236 0.0000146 0.0001025 0.0005224 -0.0000627 -0.0001031 0.0016423 -0.0010285 0.0023425 -0.0016260 0.0040747
0.0047444 -0.0062189 0.0002415 0.0005347 0.0001886 -0.0000847 0.0001030 -0.0002286 0.0002717 0.0001944 0.0001329 -0.0000605 0.0007180 -0.0003916 0.0000090 0.0014677 -0.0003217 0.0030801 -0.0008582 0.0049505
0.0100887 -0.0250958 -0.0000113 0.0003021 -0.0000118 0.0000737 0.0000450 -0.0003579 0.0001780 0.0001990 0.0000145 -0.0002211 -0.0000456 -0.0005653 -0.0004152 0.0007533 -0.0002577 0.0030961 -0.0011757 0.0042932
-0.0023089 -0.0006771 -0.0002077 -0.0000173 -0.0001366 0.0000771 0.0000025 -0.0007678 0.0001491 0.0001187 -0.0001622 -0.0002988 -0.0003361 -0.0009088 -0.0007935 0.0003424 -0.0006714 0.0027041 -0.0019619 0.0033721
0.0018409 0.0024615 -0.0002104 0.0000237 -0.0001211 0.0000642 0.0000006 -0.0007566 0.0001753 0.0001650 -0.0001584 -0.0001452 -0.0000431 -0.0009376 -0.0007596 0.0005445 -0.0009449 0.0025775 -0.0021034 0.0031139
-0.0045709 0.0070437 -0.0001747 0.0001831 -0.0000711 0.0001074 0.0000034 -0.0006159 0.0002240 0.0002750 -0.0002065 0.0000498 -0.0002494 -0.0006803 -0.0008916 0.0006183 -0.0012183 0.0023854 -0.0022217 0.0026646
-0.0105726 0.0139698 -0.0001374 0.0003089 -0.0000134 0.0001289 -0.0001108 -0.0005947 0.0002449 0.0003207 -0.0002645 0.0002035 -0.0003336 -0.0006438 -0.0010565 0.0005768 -0.0014339 0.0020818 -0.0022163 0.0021757
0.0042201 0.0056228 -0.0001757 0.0004192 -0.0000404 0.0002216 -0.0002031 -0.0004995 0.0002157 0.0003886 -0.0002972 0.0004148 -0.0005681 -0.0004004 -0.0012145 0.0005036 -0.0016202 0.0017311 -0.0022099 0.0017001
0.0097894 -0.0060860 -0.0002543 0.0005304 -0.0001146 0.0003550 -0.0002465 -0.0004372 0.0001644 0.0004535 -0.0003597 0.0006734 -0.0011257 -0.0000228 -0.0016472 0.0002305 -0.0018803 0.0012336 -0.0023540 0.0012276
0.0049751 -0.0077319 -0.0002889 0.0004064 -0.0002391 0.0004658 -0.0003401 -0.0005109 0.0001421 0.0003987 -0.0003586 0.0007508 -0.0013624 -0.0001498 -0.0019544 -0.0000905 -0.0020893 0.0008409 -0.0025325 0.0009072
-0.0128778 0.0181608 -0.0002632 0.0001350 -0.0003004 0.0003641 -0.0003751 -0.0006966 0.0001769 0.0002672 -0.0003184 0.0006716 -0.0014147 -0.0000782 -0.0017176 0.0000562 -0.0020809 0.0008924 -0.0025479 0.0009801
-0.0287593 0.0243187 -0.0001818 0.0001531 -0.0001909 0.0001684 -0.0002475 -0.0008651 0.0001859 0.0002032 -0.0003056 0.0006477 -0.0009983 -0.0001147 -0.0014670 0.0003515 -0.0020351 0.0010386 -0.0025236 0.0010726
0.0050127 -0.0060852 -0.0001628 0.0003359 -0.0001147 0.0001538 -0.0002493 -0.0008480 0.0001750 0.0002860 -0.0003454 0.0007439 -0.0008003 -0.0001852 -0.0015087 0.0004444 -0.0020772 0.0010799 -0.0025540 0.0010268
0.0076265 -0.0084759 -0.0002216 0.0004851 -0.0001439 0.0002588 -0.0002117 -0.0007569 0.0001515 0.0004787 -0.0004329 0.0010098 -0.0012821 0.0004211 -0.0017292 0.0005203 -0.0022579 0.0010685 -0.0028361 0.0009990
-0.0096635 0.0121049 -0.0002169 0.0006494 -0.0001507 0.0003886 -0.0001192 -0.0005255 0.0001360 0.0005886 -0.0005089 0.0012961 -0.0012212 0.0007535 -0.0018848 0.0006882 -0.0025187 0.0011037 -0.0033784 0.0010822
-0.0126372 0.0151296 -0.0001057 0.0007739 -0.0000829 0.0003970 -0.0001740 -0.0004335 0.0001213 0.0005271 -0.0005626 0.0014485 -0.0010828 0.0008615 -0.0019519 0.0009150 -0.0026743 0.0012353 -0.0037180 0.0012446
-0.0042100 0.0005916 0.0000334 0.0008476 0.0000036 0.0003352 -0.0002770 -0.0005816 0.0001258 0.0003674 -0.0006004 0.0013899 -0.0011447 0.0009083 -0.0019034 0.0009943 -0.0026926 0.0012759 -0.0037297 0.0012462
-0.0095747 0.0173587 0.0001540 0.0006305 0.0000932 0.0000458 -0.0004115 -0.0008684 0.0001544 0.0000731 -0.0005987 0.0010970 -0.0010817 0.0006404 -0.0017210 0.0009093 -0.0026545 0.0011558 -0.0035893 0.0011560
-0.0002913 0.0111675 0.0002566 0.0003154 0.0001853 -0.0003594 -0.0004928 -0.0011910 0.0001564 -0.0002136 -0.0005939 0.0008667 -0.0010796 0.0005675 -0.0015592 0.0009433 -0.0025985 0.0010884 -0.0034271 0.0011937
0.0122706 -0.0085655 0.0003211 0.0002340 0.0002408 -0.0005538 -0.0004537 -0.0013036 0.0001419 -0.0003339 -0.0005577 0.0007898 -0.0011945 0.0007561 -0.0014919 0.0010483 -0.0025504 0.0010951 -0.0033383 0.0012465
0.0130197 -0.0154727 0.0003430 0.0002492 0.0002416 -0.0005937 -0.0004037 -0.0012673 0.0001391 -0.0003913 -0.0005241 0.0007978 -0.0011315 0.0008611 -0.0014067 0.0011704 -0.0024654 0.0011690 -0.0031430 0.0012137
-0.0001538 -0.0000596 0.0003580 0.0003009 0.0002504 -0.0005551 -0.0003606 -0.0011473 0.0001232 -0.0003637 -0.0005030 0.0008434 -0.0010174 0.0010229 -0.0012860 0.0012903 -0.0023377 0.0012948 -0.0028733 0.0012116
-0.0269324 0.0329416 0.0003938 0.0003717 0.0002760 -0.0004931 -0.0002776 -0.0010265 0.0001095 -0.0003039 -0.0004410 0.0008519 -0.0005216 0.0008914 -0.0011252 0.0014382 -0.0022564 0.0014118 -0.0027331 0.0013293
-0.0007880 0.0139601 0.0004177 0.0004827 0.0002797 -0.0004090 -0.0002045 -0.0008616 0.0000999 -0.0002651 -0.0003955 0.0008147 -0.0002130 0.0006812 -0.0010013 0.0014373 -0.0022212 0.0014115 -0.0026674 0.0013057
0.0130823 -0.0184124 0.0004336 0.0003586 0.0002808 -0.0005136 -0.0000413 -0.0009942 0.0000917 -0.0004179 -0.0003804 0.0006337 -0.0005474 0.0007603 -0.0010060 0.0012290 -0.0022006 0.0012730 -0.0026389 0.0011450
0.0089656 -0.0285419 0.0004442 0.0001191 0.0002694 -0.0007411 0.0000040 -0.0013448 0.0000965 -0.0006883 -0.0003850 0.0004668 -0.0003702 0.0005503 -0.0010296 0.0011075 -0.0021920 0.0011718 -0.0026176 0.0010417
0.0052543 -0.0147525 0.0004246 0.0000223 0.0002207 -0.0008363 -0.0001289 -0.0015928 0.0000599 -0.0008461 -0.0003878 0.0004380 -0.0001039 0.0003766 -0.0010481 0.0011155 -0.0021797 0.0011609 -0.0025848 0.0010412
0.0037131 -0.0067620 0.0004092 0.0000158 0.0001880 -0.0008449 -0.0002129 -0.0016887 0.0000661 -0.0009538 -0.0003797 0.0004773 -0.0002802 0.0006622 -0.0010586 0.0012242 -0.0021602 0.0012263 -0.0025906 0.0011724
-0.0056277 0.0151420 0.0004475 0.0001652 0.0002201 -0.0008108 -0.0002065 -0.0015735 0.0000985 -0.0009655 -0.0003512 0.0005639 -0.0002712 0.0009069 -0.0009915 0.0013552 -0.0021569 0.0013196 -0.0025821 0.0013088
-0.0016736 0.0098563 0.0005079 0.0003470 0.0002578 -0.0007639 -0.0001852 -0.0013944 0.0000712 -0.0009195 -0.0003456 0.0006679 -0.0002328 0.0010844 -0.0009527 0.0014528 -0.0021626 0.0013836 -0.0025657 0.0014054
0.0127552 -0.0222218 0.0005309 0.0004774 0.0002645 -0.0006950 -0.0001919 -0.0012339 0.0000406 -0.0008722 -0.0003129 0.0007292 -0.0003195 0.0012727 -0.0009941 0.0014805 -0.0021636 0.0014057 -0.0025929 0.0014249
0.0128861 -0.0297445 0.0005500 0.0003940 0.0002686 -0.0007508 -0.0002074 -0.0013190 0.0000294 -0.0009980 -0.0002913 0.0005299 -0.0004127 0.0010657 -0.0010026 0.0012776 -0.0021713 0.0012803 -0.0025708 0.0012583
0.0041661 -0.0185840 0.0005850 0.0001294 0.0003070 -0.0010288 -0.0002297 -0.0017088 0.0000195 -0.0012799 -0.0003221 0.0002248 -0.0005912 0.0008067 -0.0010000 0.0010490 -0.0021854 0.0011042 -0.0025499 0.0010972
0.0014830 -0.0181154 0.0005910 -0.0000046 0.0003179 -0.0012346 -0.0001933 -0.0020392 0.0000020 -0.0014367 -0.0003010 0.0001251 -0.0002945 0.0005420 -0.0010020 0.0010080 -0.0021958 0.0010489 -0.0025578 0.0010569
