-0.0000000 -0.0000000 -0.0000000 -0.0000000 -0.0000000 -0.0000000 -0.0000000 -0.0000000 -0.0000000 -0.0000000 -0.0000000 -0.0000000 -0.0000000 -0.0000000 -0.0000000 -0.0000000 -0.0000000 -0.0000000 -0.0000000 -0.0000000
-0.0000000 -0.0000000 -0.0000000 -0.0000000 -0.0000000 -0.0000000 -0.0000000 -0.0000000 -0.0000000 -0.0000000 -0.0000000 -0.0000000 -0.0000000 -0.0000000 -0.0000000 -0.0000000 -0.0000000 -0.0000000 -0.0000000 -0.0000000
0.0000147 0.0000019 0.0000062 0.0000149 0.0000088 -0.0000009 0.0000036 0.0000149 0.0000013 0.0000198 0.0000061 0.0000402 0.0000095 0.0000360 0.0000026 0.0000423 0.0000124 0.0000546 0.0000093 0.0001109
0.0000092 0.0001221 0.0000072 0.0000740 -0.0000040 0.0000648 -0.0000076 0.0000460 -0.0000049 0.0000957 0.0000086 0.0001254 0.0000108 0.0001220 -0.0000249 0.0001347 0.0000150 0.0001337 0.0000017 0.0002320
0.0000016 0.0002219 0.0000018 0.0001028 -0.0000208 0.0001087 -0.0000219 0.0000630 -0.0000191 0.0001043 -0.0000000 0.0001029 -0.0000038 0.0000742 -0.0000244 0.0000324 0.0000013 0.0000481 -0.0000189 0.0000517
-0.0000105 0.0000045 -0.0000101 -0.0000398 -0.0000475 -0.0000667 -0.0000284 -0.0000395 -0.0000235 -0.0000362 -0.0000024 -0.0000771 -0.0000066 -0.0001103 -0.0000244 -0.0001533 -0.0000144 -0.0001660 -0.0000115 -0.0002774
-0.0000243 -0.0002875 -0.0000089 -0.0001743 -0.0000437 -0.0002311 0.0000078 -0.0000676 0.0000034 -0.0000868 0.0000156 -0.0001325 0.0000212 -0.0001298 -0.0000069 -0.0001492 -0.0000012 -0.0001685 0.0000212 -0.0002231
0.0000114 -0.0002373 0.0000079 -0.0001260 -0.0000185 -0.0001869 0.0000146 -0.0000436 0.0000122 -0.0000314 0.0000284 -0.0000410 0.0000358 -0.0000389 0.0000097 -0.0000733 0.0000187 -0.0000522 0.0000312 -0.0000310
0.0000286 -0.0000686 0.0000100 -0.0000228 -0.0000195 -0.0000772 -0.0000073 -0.0000242 -0.0000032 0.0000610 0.0000250 0.0000916 0.0000370 0.0000918 0.0000090 0.0000658 0.0000271 0.0001020 0.0000138 0.0001897
0.0000101 0.0001355 0.0000027 0.0001022 -0.0000308 0.0001014 -0.0000175 0.0000830 -0.0000175 0.0001988 0.0000125 0.0002239 0.0000239 0.0001857 0.0000070 0.0001015 0.0000170 0.0001063 -0.0000180 0.0002014
0.0000112 0.0001066 -0.0000091 0.0000567 -0.0000624 0.0000626 -0.0000577 0.0000177 -0.0000439 0.0001167 -0.0000102 0.0001069 -0.0000050 0.0000673 -0.0000288 -0.0000115 -0.0000056 -0.0000674 -0.0000288 -0.0000787
-0.0000015 -0.0001740 -0.0000133 -0.0001289 -0.0000764 -0.0001689 -0.0000650 -0.0001112 -0.0000423 -0.0000489 -0.0000055 -0.0000942 0.0000025 -0.0000680 -0.0000555 -0.0001109 -0.0000163 -0.0001669 -0.0000074 -0.0002259
0.0000139 -0.0003054 -0.0000011 -0.0001558 -0.0000411 -0.0001966 -0.0000238 -0.0000522 -0.0000142 -0.0000193 0.0000162 -0.0000605 0.0000340 -0.0000108 -0.0000171 -0.0001102 -0.0000086 -0.0001180 0.0000020 -0.0001329
0.0000100 -0.0001417 0.0000077 -0.0000686 -0.0000101 -0.0000779 -0.0000146 0.0000100 -0.0000162 0.0000549 0.0000181 0.0000560 0.0000405 0.0000894 0.0000034 -0.0000397 0.0000019 0.0000050 -0.0000049 0.0000747
-0.0000285 0.0000893 0.0000007 0.0000392 -0.0000216 0.0000630 -0.0000387 0.0000646 -0.0000367 0.0001630 0.0000137 0.0002175 0.0000338 0.0002276 -0.0000314 0.0000651 0.0000054 0.0001138 -0.0000152 0.0002453
-0.0000409 0.0002050 -0.0000067 0.0000657 -0.0000445 0.0001141 -0.0000696 0.0000702 -0.0000645 0.0001460 -0.0000035 0.0001854 0.0000071 0.0001633 -0.0000587 -0.0000268 -0.0000129 0.0000075 -0.0000479 0.0000144
-0.0000635 0.0000346 -0.0000202 -0.0000841 -0.0000680 -0.0000477 -0.0000762 -0.0000219 -0.0000737 -0.0000084 -0.0000055 0.0000049 -0.0000002 -0.0000108 -0.0000618 -0.0001959 -0.0000274 -0.0001491 -0.0000516 -0.0002812
-0.0000974 -0.0001330 -0.0000358 -0.0001894 -0.0000486 -0.0001385 -0.0000303 0.0000103 -0.0000508 -0.0000485 0.0000165 0.0000006 0.0000179 -0.0000074 -0.0000302 -0.0001865 -0.0000133 -0.0000931 -0.0000312 -0.0001910
-0.0001035 -0.0000312 -0.0000517 -0.0001548 -0.0000164 -0.0000384 -0.0000131 0.0000665 -0.0000527 -0.0000057 0.0000232 0.0001070 0.0000245 0.0000864 0.0000162 -0.0000721 0.0000028 0.0000535 -0.0000320 0.0000529
-0.0001126 0.0001707 -0.0000771 -0.0000683 -0.0000156 0.0001176 -0.0000318 0.0001172 -0.0000725 0.0000926 0.0000050 0.0002243 0.0000223 0.0002219 0.0000156 0.0001868 0.0000128 0.0002410 -0.0000531 0.0003310
-0.0001335 0.0004132 -0.0001040 0.0000250 -0.0000301 0.0002896 -0.0000537 0.0001884 -0.0000949 0.0001490 -0.0000262 0.0002215 -0.0000049 0.0002068 -0.0000062 0.0002111 -0.0000042 0.0001754 -0.0000805 0.0001893
-0.0001227 0.0002289 -0.0001284 -0.0001062 -0.0000607 0.0001415 -0.0000753 0.0000718 -0.0001094 -0.0000012 -0.0000464 0.0000058 -0.0000239 0.0000112 -0.0000104 0.0000311 -0.0000262 -0.0000674 -0.0000784 -0.0002354
-0.0001227 -0.0001614 -0.0001208 -0.0003020 -0.0000552 -0.0001184 -0.0000374 0.0000099 -0.0000767 -0.0001041 -0.0000335 -0.0001448 -0.0000052 -0.0000873 0.0000088 0.0000069 -0.0000174 -0.0000995 -0.0000571 -0.0003057
-0.0000648 -0.0002038 -0.0000997 -0.0002894 -0.0000232 -0.0001143 -0.0000202 0.0000364 -0.0000576 -0.0000742 -0.0000191 -0.0001023 0.0000135 -0.0000224 0.0000403 0.0000897 0.0000011 0.0000068 -0.0000279 -0.0000993
-0.0000065 -0.0000575 -0.0000777 -0.0001716 -0.0000098 -0.0000061 -0.0000555 0.0000156 -0.0000714 -0.0000024 -0.0000285 -0.0000107 0.0000166 0.0000975 0.0000578 0.0002533 0.0000118 0.0001413 -0.0000222 0.0001371
-0.0000411 0.0001629 -0.0000588 -0.0000160 -0.0000176 0.0001631 -0.0000806 0.0000893 -0.0000780 0.0001543 -0.0000385 0.0001201 0.0000031 0.0001834 0.0000268 0.0002755 0.0000015 0.0001079 -0.0000324 0.0001111
-0.0000741 0.0001279 -0.0000595 -0.0000562 -0.0000494 0.0000924 -0.0001136 0.0000182 -0.0000926 0.0000728 -0.0000532 0.0000031 -0.0000229 0.0000302 0.0000133 0.0000715 -0.0000264 -0.0001032 -0.0000549 -0.0003032
-0.0000968 -0.0002037 -0.0000717 -0.0002726 -0.0000562 -0.0001706 -0.0000851 -0.0000853 -0.0000690 -0.0001103 -0.0000499 -0.0002428 -0.0000159 -0.0001614 0.0000355 -0.0000152 -0.0000326 -0.0001958 -0.0000574 -0.0005528
-0.0001209 -0.0003072 -0.0000798 -0.0003439 -0.0000224 -0.0002262 -0.0000447 -0.0000720 -0.0000414 -0.0001361 -0.0000227 -0.0002446 0.0000144 -0.0001407 0.0000318 0.0000915 -0.0000170 -0.0001086 -0.0000310 -0.0003817
-0.0001283 -0.0000996 -0.0000792 -0.0002582 0.0000036 -0.0001063 -0.0000440 -0.0000536 -0.0000459 -0.0000779 -0.0000171 -0.0001300 0.0000281 -0.0000185 0.0000262 0.0002604 -0.0000009 0.0000495 -0.0000280 -0.0001009
-0.0001226 0.0001461 -0.0000840 -0.0001182 0.0000113 0.0000825 -0.0000353 0.0000568 -0.0000478 0.0000802 -0.0000225 0.0000446 0.0000302 0.0001647 0.0000430 0.0004100 0.0000086 0.0002293 -0.0000495 0.0001730
-0.0001368 0.0003624 -0.0001018 -0.0000324 -0.0000019 0.0002254 -0.0000512 0.0001197 -0.0000660 0.0001209 -0.0000379 0.0000600 0.0000112 0.0001482 0.0000369 0.0003720 -0.0000126 0.0001382 -0.0000751 0.0000104
-0.0001535 0.0001926 -0.0001190 -0.0001644 -0.0000279 0.0000696 -0.0000556 0.0000235 -0.0000700 -0.0000106 -0.0000480 -0.0001340 -0.0000000 -0.0000460 0.0000422 0.0001999 -0.0000340 -0.0000913 -0.0000753 -0.0003606
-0.0001493 -0.0000997 -0.0001198 -0.0003038 -0.0000138 -0.0001074 -0.0000196 -0.0000223 -0.0000465 -0.0000824 -0.0000363 -0.0002238 0.0000167 -0.0001205 0.0000817 0.0001625 -0.0000295 -0.0000958 -0.0000618 -0.0003665
-0.0001097 -0.0000507 -0.0001148 -0.0002729 0.0000038 -0.0000632 -0.0000121 -0.0000160 -0.0000384 -0.0000431 -0.0000219 -0.0001399 0.0000318 -0.0000516 0.0000940 0.0002505 -0.0000174 0.0000194 -0.0000551 -0.0001571
-0.0000754 0.0001266 -0.0001162 -0.0001648 -0.0000019 0.0000664 -0.0000243 0.0000231 -0.0000454 0.0000658 -0.0000166 0.0000086 0.0000417 0.0000986 0.0000694 0.0004002 -0.0000047 0.0001694 -0.0000587 0.0001410
-0.0001032 0.0003750 -0.0001225 -0.0000458 -0.0000112 0.0002337 -0.0000276 0.0001231 -0.0000550 0.0001412 -0.0000247 0.0000610 0.0000365 0.0001216 0.0000407 0.0003763 -0.0000203 0.0000890 -0.0000716 0.0000450
-0.0001200 0.0002520 -0.0001422 -0.0001471 -0.0000327 0.0001341 -0.0000226 0.0000960 -0.0000528 0.0000500 -0.0000271 -0.0000720 0.0000261 -0.0000328 0.0000351 0.0002033 -0.0000411 -0.0000967 -0.0000699 -0.0002864
-0.0001267 -0.0000243 -0.0001555 -0.0003104 -0.0000358 -0.0000651 -0.0000344 -0.0000188 -0.0000539 -0.0000725 -0.0000135 -0.0001621 0.0000327 -0.0001081 0.0000601 0.0001402 -0.0000309 -0.0001085 -0.0000419 -0.0002528
-0.0001194 0.0000045 -0.0001475 -0.0002785 -0.0000211 -0.0000517 -0.0000546 -0.0000604 -0.0000625 -0.0000603 -0.0000011 -0.0000898 0.0000482 -0.0000238 0.0000748 0.0002017 -0.0000121 -0.0000099 -0.0000218 -0.0000138
-0.0000838 0.0001478 -0.0001357 -0.0001586 -0.0000113 0.0000769 -0.0000446 0.0000223 -0.0000565 0.0000759 0.0000070 0.0000715 0.0000598 0.0001276 0.0000436 0.0003616 -0.0000020 0.0001522 -0.0000341 0.0002407
-0.0000878 0.0003518 -0.0001338 -0.0000546 -0.0000122 0.0002275 -0.0000414 0.0001178 -0.0000623 0.0001445 0.0000069 0.0001121 0.0000546 0.0001252 0.0000226 0.0003019 -0.0000198 0.0000507 -0.0000542 0.0000705
-0.0001141 0.0001426 -0.0001394 -0.0001683 -0.0000265 0.0000956 -0.0000454 0.0000572 -0.0000681 0.0000017 0.0000023 -0.0000870 0.0000412 -0.0000900 0.0000281 0.0000688 -0.0000409 -0.0002045 -0.0000426 -0.0003530
-0.0001106 -0.0002463 -0.0001355 -0.0003545 -0.0000382 -0.0001825 -0.0000705 -0.0001214 -0.0000690 -0.0001747 0.0000193 -0.0002302 0.0000487 -0.0002036 0.0000504 -0.0000004 -0.0000286 -0.0002410 -0.0000068 -0.0004214
-0.0000986 -0.0002339 -0.0001215 -0.0003437 -0.0000265 -0.0002102 -0.0000864 -0.0001841 -0.0000656 -0.0001738 0.0000417 -0.0001749 0.0000740 -0.0001318 0.0000699 0.0000605 -0.0000063 -0.0001481 0.0000266 -0.0002293
-0.0000889 -0.0000498 -0.0001033 -0.0002250 -0.0000055 -0.0000741 -0.0000666 -0.0000882 -0.0000533 -0.0000320 0.0000470 -0.0000316 0.0000892 0.0000021 0.0000728 0.0001944 0.0000081 0.0000047 0.0000228 0.0000455
-0.0000881 0.0001718 -0.0000942 -0.0000874 0.0000011 0.0001026 -0.0000487 0.0000375 -0.0000479 0.0000848 0.0000429 0.0000301 0.0000869 0.0000312 0.0000638 0.0001726 -0.0000065 -0.0000573 -0.0000064 -0.0000804
-0.0001299 0.0000155 -0.0001037 -0.0001791 -0.0000136 -0.0000132 -0.0000450 -0.0000339 -0.0000484 -0.0000415 0.0000382 -0.0001382 0.0000737 -0.0001630 0.0000392 -0.0000372 -0.0000288 -0.0002878 -0.0000038 -0.0004856
-0.0001143 -0.0004140 -0.0001060 -0.0003798 -0.0000313 -0.0003189 -0.0000594 -0.0002505 -0.0000473 -0.0002435 0.0000491 -0.0002902 0.0000750 -0.0003051 0.0000435 -0.0001155 -0.0000184 -0.0003319 0.0000281 -0.0005599
-0.0000747 -0.0004582 -0.0000925 -0.0003747 -0.0000170 -0.0003691 -0.0000593 -0.0003154 -0.0000354 -0.0002468 0.0000704 -0.0002385 0.0000978 -0.0002455 0.0000705 -0.0000532 0.0000016 -0.0002301 0.0000538 -0.0003572
-0.0000634 -0.0002644 -0.0000827 -0.0002466 0.0000077 -0.0002238 -0.0000405 -0.0002179 -0.0000209 -0.0001044 0.0000801 -0.0000889 0.0001164 -0.0000938 0.0000726 0.0000880 0.0000166 -0.0000753 0.0000514 -0.0000631
-0.0000319 -0.0000472 -0.0000789 -0.0000810 0.0000140 -0.0000072 -0.0000261 -0.0000520 -0.0000156 0.0000925 0.0000734 0.0001018 0.0001191 0.0000795 0.0000570 0.0002166 0.0000156 -0.0000172 0.0000274 0.0000224
-0.0000581 0.0000057 -0.0000879 -0.0000735 0.0000018 0.0000314 -0.0000191 -0.0000105 -0.0000199 0.0000898 0.0000548 0.0000263 0.0001027 0.0000024 0.0000417 0.0001336 -0.0000075 -0.0001714 0.0000082 -0.0002473
-0.0000783 -0.0002901 -0.0000973 -0.0002466 -0.0000153 -0.0001821 -0.0000338 -0.0001700 -0.0000325 -0.0001207 0.0000411 -0.0002345 0.0000893 -0.0002111 0.0000638 -0.0000108 -0.0000170 -0.0003031 0.0000242 -0.0004251
-0.0000476 -0.0004665 -0.0000871 -0.0003131 -0.0000109 -0.0003023 -0.0000508 -0.0002801 -0.0000362 -0.0002014 0.0000473 -0.0002703 0.0000979 -0.0002185 0.0000724 0.0000239 -0.0000023 -0.0002587 0.0000500 -0.0003032
-0.0000262 -0.0003234 -0.0000764 -0.0002201 0.0000014 -0.0002019 -0.0000474 -0.0002318 -0.0000280 -0.0000983 0.0000511 -0.0001522 0.0001124 -0.0000951 0.0000535 0.0001839 0.0000143 -0.0001324 0.0000562 -0.0000613
-0.0000557 -0.0000775 -0.0000671 -0.0000776 0.0000061 -0.0000118 -0.0000371 -0.0000941 -0.0000248 0.0000828 0.0000443 0.0000136 0.0001198 0.0000860 0.0000504 0.0003488 0.0000230 0.0000051 0.0000409 0.0001621
-0.0000965 0.0001049 -0.0000692 -0.0000095 -0.0000014 0.0001089 -0.0000294 -0.0000037 -0.0000348 0.0001292 0.0000279 0.0000077 0.0001029 0.0000763 0.0000533 0.0002747 0.0000043 -0.0000972 0.0000005 -0.0000557
-0.0001412 -0.0000713 -0.0000829 -0.0001373 -0.0000246 -0.0000250 -0.0000431 -0.0000881 -0.0000508 -0.0000417 0.0000158 -0.0001791 0.0000797 -0.0001044 0.0000623 0.0000574 -0.0000134 -0.0002798 -0.0000086 -0.0003740
-0.0001609 -0.0002836 -0.0000875 -0.0002521 -0.0000350 -0.0001954 -0.0000642 -0.0002096 -0.0000590 -0.0001549 0.0000242 -0.0002343 0.0000806 -0.0001429 0.0000714 0.0000325 -0.0000049 -0.0002505 0.0000263 -0.0002890
-0.0001270 -0.0001973 -0.0000854 -0.0001860 -0.0000211 -0.0001406 -0.0000579 -0.0001915 -0.0000574 -0.0000847 0.0000311 -0.0001227 0.0000939 -0.0000399 0.0000745 0.0001433 0.0000056 -0.0001219 0.0000395 -0.0000489
-0.0001012 0.0000328 -0.0000836 -0.0000448 0.0000113 0.0000967 -0.0000440 -0.0000513 -0.0000647 0.0000484 0.0000161 0.0000317 0.0000747 0.0000446 0.0000548 0.0002379 -0.0000080 -0.0000148 -0.0000241 0.0000800
-0.0000348 0.0003922 -0.0000623 0.0001199 0.0001000 0.0005518 -0.0000570 0.0000524 -0.0001133 0.0000165 -0.0000153 0.0000176 0.0000497 0.0000421 0.0000858 0.0002757 -0.0000313 -0.0001186 -0.0000412 0.0000066
0.0000183 0.0004931 -0.0000387 0.0000563 0.0001459 0.0006132 -0.0000583 -0.0000255 -0.0001342 -0.0001848 -0.0000409 -0.0002251 0.0000351 -0.0001457 0.0001179 0.0001778 -0.0000426 -0.0003252 -0.0000077 -0.0002563
0.0000706 0.0001669 -0.0000278 -0.0001403 0.0001227 0.0002720 -0.0000753 -0.0002308 -0.0001326 -0.0003825 -0.0000366 -0.0003877 0.0000280 -0.0003079 0.0001079 0.0000534 -0.0000370 -0.0003674 0.0000106 -0.0003666
0.0001165 0.0000335 -0.0000157 -0.0001522 0.0001118 0.0001696 -0.0000955 -0.0003222 -0.0001309 -0.0004050 -0.0000151 -0.0003364 0.0000506 -0.0002219 0.0001115 0.0001101 -0.0000135 -0.0002542 0.0000432 -0.0001380
0.0000849 0.0001844 -0.0000166 -0.0000563 0.0000789 0.0001750 -0.0000846 -0.0002287 -0.0001001 -0.0002136 -0.0000083 -0.0001791 0.0000640 -0.0000714 0.0001115 0.0002345 0.0000040 -0.0000824 0.0000317 0.0000958
0.0000552 0.0003112 -0.0000181 0.0000673 0.0000346 0.0002173 -0.0000830 -0.0000797 -0.0000802 0.0000182 -0.0000108 0.0000068 0.0000631 0.0000626 0.0001055 0.0002697 -0.0000013 -0.0000683 0.0000014 0.0000377
0.0000252 0.0001707 -0.0000310 -0.0000098 -0.0000109 0.0000888 -0.0000799 -0.0000781 -0.0000706 -0.0000073 -0.0000199 -0.0001034 0.0000453 -0.0000766 0.0000835 0.0001044 -0.0000245 -0.0002598 -0.0000138 -0.0003525
-0.0000363 -0.0002421 -0.0000503 -0.0002604 -0.0000462 -0.0002694 -0.0000955 -0.0003062 -0.0000729 -0.0002835 -0.0000167 -0.0003701 0.0000306 -0.0003291 0.0000906 -0.0000781 -0.0000286 -0.0003611 0.0000054 -0.0005719
-0.0000522 -0.0004452 -0.0000434 -0.0003519 -0.0000388 -0.0004629 -0.0001134 -0.0004636 -0.0000755 -0.0004072 0.0000021 -0.0003928 0.0000386 -0.0003623 0.0001109 -0.0001016 -0.0000142 -0.0002935 0.0000275 -0.0004965
-0.0000391 -0.0003594 -0.0000253 -0.0002691 -0.0000158 -0.0003852 -0.0001112 -0.0004290 -0.0000725 -0.0003424 0.0000067 -0.0002664 0.0000507 -0.0002503 0.0000998 0.0000287 0.0000002 -0.0001500 0.0000319 -0.0002727
-0.0000443 -0.0002004 -0.0000137 -0.0001350 -0.0000056 -0.0002019 -0.0001111 -0.0003247 -0.0000816 -0.0002373 -0.0000053 -0.0000905 0.0000492 -0.0000860 0.0000687 0.0002332 -0.0000014 0.0000145 0.0000053 -0.0000298
-0.0000324 -0.0000390 0.0000014 -0.0000238 -0.0000032 -0.0000331 -0.0001278 -0.0002692 -0.0001153 -0.0002535 -0.0000296 -0.0000739 0.0000209 -0.0000936 0.0000479 0.0002107 -0.0000299 -0.0000974 -0.0000301 -0.0002442
-0.0000594 -0.0002041 0.0000246 -0.0001227 -0.0000117 -0.0001765 -0.0001562 -0.0003860 -0.0001444 -0.0004896 -0.0000461 -0.0002716 -0.0000069 -0.0002923 0.0000599 -0.0000061 -0.0000573 -0.0003537 -0.0000505 -0.0007031
-0.0000247 -0.0005688 0.0000653 -0.0002829 0.0000041 -0.0004135 -0.0001784 -0.0005223 -0.0001688 -0.0008028 -0.0000460 -0.0003752 -0.0000154 -0.0004093 0.0000471 -0.0001011 -0.0000631 -0.0004090 -0.0000551 -0.0008550
0.0000509 -0.0006414 0.0001117 -0.0002316 0.0000325 -0.0004265 -0.0001790 -0.0005498 -0.0001973 -0.0009715 -0.0000371 -0.0002737 -0.0000217 -0.0003844 0.0000065 -0.0000868 -0.0000561 -0.0003294 -0.0000545 -0.0007727
0.0000141 -0.0005482 0.0001234 -0.0001194 0.0000493 -0.0003105 -0.0001788 -0.0004967 -0.0002476 -0.0011006 -0.0000370 -0.0001023 -0.0000457 -0.0003248 -0.0000305 -0.0001081 -0.0000548 -0.0001916 -0.0000748 -0.0005688
-0.0000051 -0.0004430 0.0000991 -0.0000327 0.0000509 -0.0001236 -0.0002047 -0.0004243 -0.0003300 -0.0013121 -0.0000524 0.0000072 -0.0000941 -0.0003748 -0.0000748 -0.0003239 -0.0000812 -0.0002669 -0.0001094 -0.0007036
-0.0000145 -0.0006591 0.0000643 -0.0001672 0.0000354 -0.0002263 -0.0002342 -0.0004936 -0.0004039 -0.0016780 -0.0000583 -0.0000973 -0.0001342 -0.0005919 -0.0000992 -0.0006646 -0.0001081 -0.0004795 -0.0001300 -0.0011319
-0.0000301 -0.0010432 0.0000480 -0.0003939 0.0000613 -0.0004280 -0.0002151 -0.0005322 -0.0004315 -0.0020129 -0.0000445 -0.0002072 -0.0001368 -0.0007325 -0.0001193 -0.0008156 -0.0001041 -0.0005307 -0.0001184 -0.0012647
-0.0000005 -0.0010747 0.0000575 -0.0004036 0.0001244 -0.0003734 -0.0001685 -0.0004208 -0.0004363 -0.0020825 -0.0000227 -0.0001228 -0.0001444 -0.0007632 -0.0001547 -0.0008683 -0.0001070 -0.0004815 -0.0001480 -0.0012048
0.0000109 -0.0008170 0.0000540 -0.0002963 0.0001615 -0.0001906 -0.0001673 -0.0003086 -0.0004746 -0.0020507 -0.0000263 0.0000190 -0.0001786 -0.0007520 -0.0001735 -0.0008627 -0.0001193 -0.0003619 -0.0002072 -0.0010136
0.0000222 -0.0005056 0.0000397 -0.0001544 0.0001623 0.0000357 -0.0002057 -0.0002251 -0.0005360 -0.0020460 -0.0000608 0.0000731 -0.0002264 -0.0007797 -0.0002005 -0.0009159 -0.0001473 -0.0004177 -0.0002906 -0.0011861
0.0000553 -0.0004785 0.0000428 -0.0002455 0.0001727 -0.0000719 -0.0002285 -0.0003965 -0.0006499 -0.0025397 -0.0001019 -0.0002253 -0.0003059 -0.0012398 -0.0003108 -0.0016737 -0.0002243 -0.0007658 -0.0004486 -0.0021355
0.0000871 -0.0008445 0.0000714 -0.0004883 0.0001875 -0.0005605 -0.0001619 -0.0005816 -0.0006884 -0.0030678 -0.0000837 -0.0005007 -0.0003220 -0.0016396 -0.0003553 -0.0024767 -0.0002721 -0.0009918 -0.0006117 -0.0030628
0.0000383 -0.0013724 0.0000507 -0.0006962 0.0001674 -0.0009785 -0.0000711 -0.0005565 -0.0007138 -0.0033900 -0.0000545 -0.0005231 -0.0002992 -0.0016367 -0.0002527 -0.0023855 -0.0002755 -0.0009888 -0.0007299 -0.0035009
-0.0001322 -0.0017026 -0.0000821 -0.0008969 0.0001180 -0.0011248 -0.0000436 -0.0005254 -0.0008217 -0.0037714 -0.0000707 -0.0005119 -0.0003001 -0.0015426 -0.0001914 -0.0019300 -0.0002734 -0.0008766 -0.0007918 -0.0035112
-0.0002516 -0.0016521 -0.0001788 -0.0008893 0.0000871 -0.0010194 -0.0000397 -0.0004832 -0.0008892 -0.0039499 -0.0000837 -0.0004716 -0.0002849 -0.0014457 -0.0001958 -0.0017223 -0.0002727 -0.0009054 -0.0007925 -0.0035055
-0.0002301 -0.0017631 -0.0001858 -0.0009389 0.0000729 -0.0011231 -0.0000523 -0.0006234 -0.0009213 -0.0042020 -0.0000956 -0.0006688 -0.0002763 -0.0015477 -0.0001580 -0.0017383 -0.0002741 -0.0010730 -0.0007346 -0.0036055
-0.0001979 -0.0020599 -0.0001837 -0.0011131 0.0000742 -0.0013975 -0.0000773 -0.0008681 -0.0009207 -0.0044472 -0.0000991 -0.0009226 -0.0002514 -0.0016236 -0.0000733 -0.0015883 -0.0002506 -0.0010975 -0.0006525 -0.0034510
-0.0001344 -0.0020516 -0.0001748 -0.0011061 0.0001051 -0.0014193 -0.0000875 -0.0009663 -0.0008972 -0.0044560 -0.0000880 -0.0009443 -0.0001996 -0.0014888 -0.0000231 -0.0012916 -0.0002178 -0.0010003 -0.0005854 -0.0031117
-0.0000601 -0.0018400 -0.0001635 -0.0009703 0.0001369 -0.0012542 -0.0000758 -0.0009104 -0.0008657 -0.0042934 -0.0000837 -0.0008320 -0.0001523 -0.0012943 -0.0000065 -0.0010597 -0.0001953 -0.0008589 -0.0005489 -0.0027131
-0.0000592 -0.0015395 -0.0001710 -0.0008050 0.0001514 -0.0010142 -0.0000668 -0.0007743 -0.0008497 -0.0040933 -0.0000941 -0.0007343 -0.0001472 -0.0012283 -0.0000001 -0.0010209 -0.0002057 -0.0008879 -0.0005722 -0.0027471
-0.0001004 -0.0016104 -0.0002198 -0.0008870 0.0001193 -0.0010798 -0.0000868 -0.0008267 -0.0008490 -0.0041323 -0.0001124 -0.0008716 -0.0001666 -0.0013728 -0.0000030 -0.0011141 -0.0002310 -0.0010605 -0.0005865 -0.0030826
-0.0001533 -0.0019310 -0.0002656 -0.0011017 0.0001008 -0.0013274 -0.0000670 -0.0009011 -0.0008098 -0.0042171 -0.0001074 -0.0010162 -0.0001529 -0.0014798 0.0000255 -0.0011595 -0.0002324 -0.0011215 -0.0005745 -0.0031515
-0.0001917 -0.0019395 -0.0002754 -0.0011115 0.0001291 -0.0013212 -0.0000083 -0.0008053 -0.0007607 -0.0041117 -0.0000847 -0.0009377 -0.0001232 -0.0014190 0.0000428 -0.0011396 -0.0002215 -0.0010432 -0.0005818 -0.0030000
-0.0002116 -0.0017542 -0.0002778 -0.0009968 0.0001403 -0.0011916 -0.0000005 -0.0007318 -0.0007677 -0.0040113 -0.0000793 -0.0007462 -0.0001314 -0.0013306 0.0000157 -0.0010535 -0.0002207 -0.0009082 -0.0006290 -0.0028301
-0.0002492 -0.0014742 -0.0002771 -0.0008328 0.0001187 -0.0010397 -0.0000249 -0.0006733 -0.0007954 -0.0039352 -0.0000776 -0.0005361 -0.0001773 -0.0013242 -0.0000236 -0.0010632 -0.0002515 -0.0009673 -0.0007066 -0.0029811
-0.0003218 -0.0014356 -0.0002773 -0.0008714 0.0000669 -0.0011212 -0.0000613 -0.0007715 -0.0008228 -0.0040604 -0.0000827 -0.0005627 -0.0002253 -0.0014890 -0.0000576 -0.0012416 -0.0002879 -0.0011688 -0.0007496 -0.0033022
-0.0003348 -0.0016727 -0.0002744 -0.0010361 0.0000425 -0.0013041 -0.0000467 -0.0008673 -0.0008139 -0.0041998 -0.0000643 -0.0006017 -0.0002233 -0.0015626 -0.0000496 -0.0013732 -0.0002930 -0.0011987 -0.0007610 -0.0033394
-0.0003055 -0.0017245 -0.0002668 -0.0010585 0.0000690 -0.0012490 0.0000248 -0.0007625 -0.0007845 -0.0041421 -0.0000296 -0.0004549 -0.0001961 -0.0014426 -0.0000436 -0.0013920 -0.0002782 -0.0010636 -0.0007733 -0.0031115
-0.0002963 -0.0015846 -0.0002763 -0.0010058 0.0000858 -0.0010719 0.0000587 -0.0006176 -0.0007905 -0.0040385 -0.0000280 -0.0002737 -0.0001978 -0.0013010 -0.0000724 -0.0013683 -0.0002652 -0.0008794 -0.0008122 -0.0028742
-0.0003118 -0.0014118 -0.0003111 -0.0009312 0.0000691 -0.0008944 0.0000426 -0.0005708 -0.0008468 -0.0040681 -0.0000550 -0.0002254 -0.0002439 -0.0013345 -0.0001206 -0.0016317 -0.0002900 -0.0009468 -0.0008826 -0.0030863
-0.0003650 -0.0015958 -0.0003529 -0.0010667 0.0000304 -0.0010385 -0.0000061 -0.0007398 -0.0009156 -0.0043476 -0.0000767 -0.0004055 -0.0002855 -0.0015330 -0.0001682 -0.0020048 -0.0003171 -0.0011622 -0.0009224 -0.0035114
-0.0003479 -0.0020533 -0.0003772 -0.0012606 0.0000389 -0.0012386 -0.0000107 -0.0008173 -0.0009236 -0.0045209 -0.0000664 -0.0005147 -0.0002637 -0.0015756 -0.0001911 -0.0020787 -0.0003079 -0.0012044 -0.0009278 -0.0036149
-0.0003298 -0.0021795 -0.0003825 -0.0012406 0.0001050 -0.0011336 0.0000060 -0.0006742 -0.0009250 -0.0045187 -0.0000606 -0.0004490 -0.0002496 -0.0014876 -0.0001810 -0.0020520 -0.0002970 -0.0011346 -0.0009426 -0.0035016
-0.0003856 -0.0020750 -0.0004109 -0.0011313 0.0001575 -0.0009035 -0.0000804 -0.0005599 -0.0009867 -0.0045469 -0.0000740 -0.0003037 -0.0002711 -0.0013819 -0.0001925 -0.0019801 -0.0002891 -0.0009757 -0.0009665 -0.0032502
-0.0004393 -0.0018827 -0.0004560 -0.0010210 0.0001749 -0.0006443 -0.0001988 -0.0004955 -0.0010594 -0.0045876 -0.0000979 -0.0002614 -0.0003057 -0.0013923 -0.0002144 -0.0019639 -0.0003117 -0.0010258 -0.0010080 -0.0033359
-0.0004760 -0.0019139 -0.0004807 -0.0010889 0.0001587 -0.0006756 -0.0002705 -0.0005522 -0.0011180 -0.0047829 -0.0001384 -0.0004798 -0.0003580 -0.0014819 -0.0001491 -0.0018198 -0.0003605 -0.0012494 -0.0010808 -0.0037364
-0.0005102 -0.0020588 -0.0004732 -0.0011849 0.0001671 -0.0007744 -0.0002942 -0.0005671 -0.0011057 -0.0048445 -0.0001829 -0.0006083 -0.0003611 -0.0014023 -0.0000658 -0.0015315 -0.0003664 -0.0012685 -0.0011035 -0.0037683
-0.0004933 -0.0019099 -0.0004538 -0.0011114 0.0001992 -0.0006823 -0.0002791 -0.0005117 -0.0010735 -0.0046915 -0.0002158 -0.0005257 -0.0003778 -0.0013511 -0.0000285 -0.0013761 -0.0003746 -0.0012335 -0.0011438 -0.0036746
-0.0004749 -0.0016671 -0.0004508 -0.0009819 0.0001971 -0.0005322 -0.0003060 -0.0005254 -0.0011026 -0.0045908 -0.0002405 -0.0003865 -0.0004468 -0.0013048 -0.0000162 -0.0011799 -0.0004044 -0.0011670 -0.0012391 -0.0035944
-0.0005100 -0.0013538 -0.0004652 -0.0008357 0.0001618 -0.0003416 -0.0003814 -0.0005455 -0.0011658 -0.0045940 -0.0002877 -0.0004513 -0.0005082 -0.0011341 -0.0000014 -0.0010729 -0.0004303 -0.0012059 -0.0012922 -0.0036484
-0.0005140 -0.0013463 -0.0004872 -0.0008779 0.0001029 -0.0003731 -0.0004499 -0.0007201 -0.0012434 -0.0048205 -0.0003527 -0.0007792 -0.0005913 -0.0007752 0.0000657 -0.0008933 -0.0004453 -0.0012950 -0.0012731 -0.0035893
-0.0005068 -0.0014264 -0.0004902 -0.0009259 0.0000936 -0.0003594 -0.0004662 -0.0009086 -0.0012669 -0.0049166 -0.0003945 -0.0009280 -0.0005869 -0.0004485 0.0001272 -0.0006283 -0.0004134 -0.0011599 -0.0011895 -0.0031517
-0.0004333 -0.0012634 -0.0004743 -0.0007808 0.0001338 -0.0001200 -0.0004568 -0.0008735 -0.0012360 -0.0046915 -0.0003933 -0.0008312 -0.0004685 -0.0005118 0.0000914 -0.0005336 -0.0003405 -0.0008960 -0.0010669 -0.0025345
-0.0003847 -0.0010050 -0.0004580 -0.0005989 0.0001429 0.0001145 -0.0004871 -0.0007648 -0.0012179 -0.0044195 -0.0003978 -0.0006999 -0.0004074 -0.0005652 0.0000695 -0.0003638 -0.0002934 -0.0006571 -0.0009877 -0.0019593
-0.0004046 -0.0006336 -0.0004577 -0.0004735 0.0001133 0.0002744 -0.0005469 -0.0007481 -0.0012310 -0.0043208 -0.0004336 -0.0007931 -0.0004263 -0.0006405 0.0000791 -0.0003409 -0.0003048 -0.0007270 -0.0009735 -0.0019539
-0.0003984 -0.0006022 -0.0004624 -0.0005316 0.0000786 0.0002121 -0.0005947 -0.0008331 -0.0012327 -0.0043561 -0.0004361 -0.0009451 -0.0004107 -0.0007935 0.0000709 -0.0004292 -0.0003050 -0.0008807 -0.0009306 -0.0020924
-0.0003817 -0.0006732 -0.0004510 -0.0005772 0.0000794 0.0001872 -0.0005899 -0.0008162 -0.0011880 -0.0042144 -0.0004045 -0.0008868 -0.0003511 -0.0007273 0.0001311 -0.0002400 -0.0002791 -0.0008225 -0.0008765 -0.0018868
-0.0003732 -0.0003632 -0.0004242 -0.0004619 0.0001015 0.0004000 -0.0005903 -0.0006414 -0.0011402 -0.0039099 -0.0003930 -0.0007370 -0.0003106 -0.0005502 0.0001949 0.0001628 -0.0002512 -0.0006778 -0.0008406 -0.0015285
-0.0003482 0.0000940 -0.0003983 -0.0002847 0.0000954 0.0006705 -0.0006413 -0.0004775 -0.0011316 -0.0036209 -0.0004014 -0.0005860 -0.0003086 -0.0004153 0.0002204 0.0004236 -0.0002430 -0.0006725 -0.0008358 -0.0014571
-0.0003225 0.0002614 -0.0003967 -0.0002925 0.0000473 0.0006786 -0.0007031 -0.0004936 -0.0011397 -0.0035995 -0.0004187 -0.0007211 -0.0003339 -0.0005189 0.0002612 0.0003823 -0.0002556 -0.0008544 -0.0008311 -0.0017727
-0.0003144 0.0001163 -0.0003899 -0.0004610 0.0000230 0.0004945 -0.0007261 -0.0005827 -0.0011186 -0.0036877 -0.0004071 -0.0009215 -0.0003195 -0.0006525 0.0002712 0.0002915 -0.0002600 -0.0009767 -0.0007922 -0.0019939
-0.0002802 0.0000953 -0.0003587 -0.0004751 0.0000625 0.0005043 -0.0006904 -0.0005342 -0.0010774 -0.0035725 -0.0003567 -0.0008379 -0.0002655 -0.0005810 0.0002919 0.0003301 -0.0002437 -0.0009317 -0.0007435 -0.0018713
-0.0002572 0.0003275 -0.0003361 -0.0003525 0.0000891 0.0006614 -0.0006926 -0.0004788 -0.0010678 -0.0034005 -0.0003356 -0.0006728 -0.0002512 -0.0004455 0.0003127 0.0005436 -0.0002231 -0.0007987 -0.0007239 -0.0016075
-0.0002088 0.0005128 -0.0003352 -0.0003018 0.0000527 0.0007163 -0.0007483 -0.0005428 -0.0010937 -0.0033811 -0.0003563 -0.0007246 -0.0002820 -0.0004619 0.0003111 0.0006891 -0.0002313 -0.0008523 -0.0007271 -0.0016803
-0.0001899 0.0003820 -0.0003361 -0.0004243 0.0000073 0.0005489 -0.0007691 -0.0006549 -0.0010858 -0.0034614 -0.0003626 -0.0009324 -0.0002638 -0.0005213 0.0003714 0.0007662 -0.0002293 -0.0009803 -0.0006865 -0.0018397
-0.0001801 0.0003215 -0.0003143 -0.0004886 0.0000261 0.0004806 -0.0007193 -0.0005608 -0.0010046 -0.0033064 -0.0003161 -0.0009197 -0.0001703 -0.0003838 0.0004535 0.0009502 -0.0001958 -0.0009166 -0.0006275 -0.0017191
-0.0000823 0.0005274 -0.0002815 -0.0003792 0.0000773 0.0006503 -0.0006507 -0.0002981 -0.0009141 -0.0029832 -0.0002592 -0.0007105 -0.0000961 -0.0001872 0.0004717 0.0012422 -0.0001668 -0.0007570 -0.0006045 -0.0014565
-0.0000150 0.0007863 -0.0002639 -0.0002246 0.0000915 0.0008531 -0.0006432 -0.0001375 -0.0008724 -0.0027090 -0.0002370 -0.0004742 -0.0000750 -0.0000192 0.0004657 0.0015445 -0.0001517 -0.0005520 -0.0006138 -0.0011464
-0.0000236 0.0010211 -0.0002707 -0.0001383 0.0000563 0.0009412 -0.0006833 -0.0001504 -0.0008658 -0.0026164 -0.0002476 -0.0004525 -0.0001018 -0.0000758 0.0004738 0.0015712 -0.0001754 -0.0006233 -0.0006330 -0.0013096
-0.0000607 0.0008283 -0.0002817 -0.0002797 -0.0000013 0.0007016 -0.0007082 -0.0003143 -0.0008393 -0.0027061 -0.0002472 -0.0006378 -0.0001137 -0.0002826 0.0004805 0.0014466 -0.0001953 -0.0008508 -0.0006207 -0.0016848
-0.0000732 0.0005018 -0.0002725 -0.0004251 -0.0000107 0.0004591 -0.0006600 -0.0003277 -0.0007560 -0.0026431 -0.0002018 -0.0006414 -0.0000664 -0.0003361 0.0004954 0.0014169 -0.0001782 -0.0008569 -0.0005875 -0.0017007
-0.0000618 0.0005197 -0.0002559 -0.0003762 0.0000222 0.0004864 -0.0005919 -0.0001597 -0.0006784 -0.0024062 -0.0001575 -0.0004581 -0.0000310 -0.0002918 0.0005032 0.0014934 -0.0001617 -0.0007302 -0.0005723 -0.0015145
-0.0000658 0.0006844 -0.0002507 -0.0002601 0.0000248 0.0005849 -0.0005925 -0.0000830 -0.0006658 -0.0022135 -0.0001540 -0.0002816 -0.0000322 -0.0002068 0.0005003 0.0016035 -0.0001529 -0.0005582 -0.0005765 -0.0012019
-0.0001197 0.0009119 -0.0002638 -0.0001162 -0.0000115 0.0007145 -0.0006674 -0.0001303 -0.0006937 -0.0020950 -0.0001660 -0.0002454 0.0000761 -0.0000732 0.0003290 0.0010774 -0.0001334 -0.0004183 -0.0003223 -0.0006364
-0.0001991 0.0006599 -0.0003185 -0.0000906 0.0000431 0.0007156 -0.0007727 -0.0005107 -0.0009948 -0.0029382 -0.0002085 -0.0004910 0.0000471 -0.0004364 -0.0000215 -0.0005081 0.0000609 0.0007329 -0.0000316 -0.0000475
-0.0002912 -0.0000932 -0.0002511 0.0000277 0.0003009 0.0008648 -0.0006965 -0.0007427 -0.0013790 -0.0041616 -0.0002727 -0.0007149 -0.0002067 -0.0013893 -0.0004071 -0.0024685 0.0002060 0.0017477 -0.0002895 -0.0008682
-0.0002764 -0.0005176 0.0000503 0.0006225 0.0004312 0.0009495 -0.0006053 -0.0006738 -0.0015226 -0.0043706 -0.0002603 -0.0004748 -0.0003282 -0.0018433 -0.0006698 -0.0036237 0.0002032 0.0017368 -0.0007903 -0.0023873
-0.0001507 -0.0003928 0.0002214 0.0011631 0.0003510 0.0008825 -0.0006289 -0.0006289 -0.0015594 -0.0041157 -0.0002093 0.0000007 -0.0003084 -0.0015535 -0.0007076 -0.0036564 0.0002242 0.0018260 -0.0010232 -0.0027724
-0.0001313 -0.0000400 0.0002110 0.0014039 0.0003066 0.0010667 -0.0006149 -0.0004244 -0.0015528 -0.0039054 -0.0002139 0.0002405 -0.0002604 -0.0012007 -0.0006776 -0.0034168 0.0002179 0.0018306 -0.0011644 -0.0031614
-0.0001626 -0.0000103 0.0002302 0.0014826 0.0002906 0.0011156 -0.0006042 -0.0003461 -0.0015872 -0.0039944 -0.0002398 0.0001281 -0.0002297 -0.0010784 -0.0006256 -0.0033223 0.0002209 0.0017465 -0.0013284 -0.0039523
-0.0001715 -0.0003453 0.0002170 0.0013430 0.0002745 0.0009711 -0.0006047 -0.0004111 -0.0016257 -0.0042136 -0.0002421 0.0000130 -0.0002021 -0.0010161 -0.0005742 -0.0032092 0.0002351 0.0017942 -0.0013862 -0.0042402
-0.0001853 -0.0003867 0.0001996 0.0012978 0.0002598 0.0009427 -0.0006087 -0.0003688 -0.0016289 -0.0041712 -0.0002322 0.0001400 -0.0001743 -0.0008325 -0.0004992 -0.0028575 0.0002626 0.0019596 -0.0013488 -0.0039287
-0.0001342 -0.0000259 0.0002257 0.0014568 0.0002592 0.0011160 -0.0005900 -0.0001462 -0.0015956 -0.0038567 -0.0002326 0.0003773 -0.0001427 -0.0005459 -0.0004235 -0.0022900 0.0002934 0.0021241 -0.0012575 -0.0032572
-0.0000755 0.0005304 0.0002684 0.0017021 0.0002458 0.0013705 -0.0005786 0.0001382 -0.0015706 -0.0034914 -0.0002470 0.0006151 -0.0001294 -0.0002784 -0.0003980 -0.0019269 0.0003011 0.0020808 -0.0011556 -0.0027696
-0.0000611 0.0008941 0.0002970 0.0017510 0.0002054 0.0013971 -0.0005619 0.0002343 -0.0015558 -0.0034197 -0.0002519 0.0006242 -0.0001651 -0.0003898 -0.0003004 -0.0016277 0.0002152 0.0015491 -0.0010986 -0.0028002
0.0000070 0.0010081 0.0003160 0.0015321 0.0001285 0.0010499 -0.0005085 0.0000869 -0.0015351 -0.0036255 -0.0002827 0.0003347 -0.0002952 -0.0007053 -0.0001210 -0.0014346 -0.0001527 -0.0000325 -0.0013152 -0.0036476
0.0000747 0.0010673 0.0003732 0.0013815 0.0000061 0.0006760 -0.0005211 -0.0001896 -0.0014912 -0.0035871 -0.0002484 0.0003256 -0.0003380 -0.0009804 -0.0001091 -0.0018143 -0.0003956 -0.0011094 -0.0014487 -0.0041759
0.0000581 0.0010085 0.0004616 0.0014190 -0.0000733 0.0005677 -0.0005236 -0.0002240 -0.0014277 -0.0033068 -0.0001737 0.0006644 -0.0002966 -0.0011550 -0.0002104 -0.0021530 -0.0003642 -0.0009539 -0.0014246 -0.0040153
0.0000698 0.0008379 0.0005343 0.0014266 -0.0000853 0.0006433 -0.0004779 -0.0001285 -0.0014340 -0.0031663 -0.0001751 0.0009876 -0.0003541 -0.0011485 -0.0002214 -0.0021257 -0.0004106 -0.0009360 -0.0015582 -0.0041527
0.0000935 0.0006528 0.0005849 0.0013160 -0.0001198 0.0006062 -0.0005099 -0.0003081 -0.0014959 -0.0033087 -0.0002161 0.0009000 -0.0004460 -0.0013592 -0.0002333 -0.0020876 -0.0004474 -0.0010588 -0.0016044 -0.0043597
0.0001150 0.0003751 0.0006334 0.0011613 -0.0001884 0.0003286 -0.0005796 -0.0006298 -0.0015291 -0.0035444 -0.0002747 0.0005220 -0.0005112 -0.0016103 -0.0002137 -0.0018448 -0.0004618 -0.0011414 -0.0015736 -0.0043511
0.0002110 0.0001745 0.0006730 0.0010839 -0.0002226 0.0001394 -0.0006165 -0.0008025 -0.0015124 -0.0035458 -0.0003025 0.0004412 -0.0005143 -0.0015461 -0.0001134 -0.0013631 -0.0004521 -0.0009974 -0.0015469 -0.0040864
0.0002984 0.0003228 0.0007019 0.0011676 -0.0002087 0.0002453 -0.0005978 -0.0007006 -0.0014465 -0.0032755 -0.0003138 0.0005768 -0.0004922 -0.0013261 -0.0000411 -0.0007935 -0.0004533 -0.0008664 -0.0015428 -0.0037248
0.0003857 0.0007261 0.0007417 0.0013569 -0.0002056 0.0004835 -0.0005964 -0.0005417 -0.0013768 -0.0028828 -0.0003452 0.0007762 -0.0005041 -0.0010966 0.0000246 -0.0001593 -0.0004753 -0.0007912 -0.0015204 -0.0032236
0.0004690 0.0012966 0.0007785 0.0015196 -0.0002360 0.0006834 -0.0006361 -0.0005126 -0.0013283 -0.0026351 -0.0003898 0.0007120 -0.0005392 -0.0010235 0.0000749 0.0002591 -0.0005151 -0.0009543 -0.0014595 -0.0030845
0.0004869 0.0013800 0.0007926 0.0014315 -0.0002782 0.0006046 -0.0006688 -0.0006218 -0.0012845 -0.0026247 -0.0004155 0.0004461 -0.0005396 -0.0010028 0.0001149 0.0005218 -0.0005280 -0.0011104 -0.0013791 -0.0031347
0.0005015 0.0012441 0.0008128 0.0013293 -0.0002851 0.0005025 -0.0006572 -0.0006290 -0.0012310 -0.0025621 -0.0004382 0.0003582 -0.0005379 -0.0008008 0.0001963 0.0010279 -0.0005202 -0.0009992 -0.0013331 -0.0029376
0.0005190 0.0014649 0.0008282 0.0014065 -0.0002689 0.0006583 -0.0006466 -0.0004980 -0.0011987 -0.0023773 -0.0004587 0.0004902 -0.0005453 -0.0004828 0.0002589 0.0015242 -0.0005141 -0.0007937 -0.0013128 -0.0025470
0.0004928 0.0017890 0.0008250 0.0015442 -0.0002741 0.0008772 -0.0006843 -0.0003845 -0.0012038 -0.0021775 -0.0004774 0.0007315 -0.0005563 -0.0002030 0.0002543 0.0018090 -0.0005005 -0.0005472 -0.0013140 -0.0020773
0.0004798 0.0021021 0.0008093 0.0016666 -0.0003006 0.0010373 -0.0007215 -0.0003340 -0.0012322 -0.0021040 -0.0005154 0.0007364 -0.0005933 -0.0001571 0.0002065 0.0018620 -0.0005244 -0.0005963 -0.0013439 -0.0021262
0.0004581 0.0019564 0.0007915 0.0015447 -0.0003447 0.0008941 -0.0007431 -0.0004374 -0.0012558 -0.0022426 -0.0005443 0.0005065 -0.0006244 -0.0002713 0.0001858 0.0016983 -0.0005541 -0.0007583 -0.0013571 -0.0024028
0.0004571 0.0016065 0.0007912 0.0013820 -0.0003589 0.0007056 -0.0007415 -0.0005344 -0.0012605 -0.0023340 -0.0005392 0.0004738 -0.0006187 -0.0002720 0.0001474 0.0015971 -0.0005491 -0.0007078 -0.0013491 -0.0023326
0.0005120 0.0015799 0.0007976 0.0014173 -0.0003364 0.0007673 -0.0007222 -0.0004947 -0.0012635 -0.0022621 -0.0005280 0.0006477 -0.0006152 -0.0001640 0.0001064 0.0017088 -0.0005403 -0.0005598 -0.0013626 -0.0021405
0.0005207 0.0017329 0.0007952 0.0015174 -0.0003284 0.0008979 -0.0007329 -0.0004123 -0.0012743 -0.0021161 -0.0005405 0.0008490 -0.0006342 -0.0000210 0.0001166 0.0018771 -0.0005384 -0.0003898 -0.0013922 -0.0018944
0.0005361 0.0018815 0.0007802 0.0015524 -0.0003468 0.0009604 -0.0007608 -0.0003901 -0.0012956 -0.0020969 -0.0005762 0.0007657 -0.0006685 -0.0000469 0.0001243 0.0018104 -0.0005634 -0.0004979 -0.0014030 -0.0020408
0.0005402 0.0016270 0.0007740 0.0013760 -0.0003695 0.0007649 -0.0007793 -0.0005395 -0.0012966 -0.0022744 -0.0005841 0.0004857 -0.0006631 -0.0001770 0.0000989 0.0016457 -0.0005711 -0.0006859 -0.0013472 -0.0022307
0.0005490 0.0012828 0.0007974 0.0012436 -0.0003495 0.0005853 -0.0007694 -0.0006243 -0.0012629 -0.0023260 -0.0005595 0.0004327 -0.0006162 -0.0001087 0.0001051 0.0016872 -0.0005489 -0.0006533 -0.0012606 -0.0020137
0.0005640 0.0012797 0.0008338 0.0013187 -0.0002960 0.0006451 -0.0007689 -0.0005449 -0.0012194 -0.0021393 -0.0005313 0.0005963 -0.0005622 0.0001127 0.0001001 0.0018298 -0.0005180 -0.0005163 -0.0011882 -0.0016571
0.0005271 0.0013366 0.0008552 0.0014381 -0.0002610 0.0007752 -0.0007901 -0.0004652 -0.0012042 -0.0019376 -0.0005201 0.0008218 -0.0005362 0.0003306 0.0000433 0.0018781 -0.0004947 -0.0004336 -0.0011373 -0.0014459
0.0004910 0.0011699 0.0008912 0.0014171 -0.0002724 0.0006800 -0.0008405 -0.0006678 -0.0012314 -0.0020344 -0.0005359 0.0006885 -0.0005745 0.0001654 0.0000039 0.0016145 -0.0005182 -0.0005882 -0.0011379 -0.0017189
0.0005063 0.0008292 0.0009249 0.0012323 -0.0002776 0.0004229 -0.0008787 -0.0009527 -0.0012481 -0.0022377 -0.0005649 0.0003909 -0.0006143 -0.0001028 0.0000020 0.0014297 -0.0005416 -0.0007235 -0.0011628 -0.0020267
0.0005729 0.0007916 0.0009398 0.0011518 -0.0002492 0.0003472 -0.0008513 -0.0009360 -0.0011918 -0.0021288 -0.0005892 0.0003593 -0.0006229 -0.0000921 0.0000606 0.0016586 -0.0005469 -0.0006682 -0.0011748 -0.0019838
0.0006364 0.0010836 0.0009647 0.0012676 -0.0002327 0.0003948 -0.0008284 -0.0008037 -0.0011222 -0.0018732 -0.0005937 0.0004828 -0.0006372 -0.0000424 0.0000739 0.0017798 -0.0005485 -0.0005435 -0.0012212 -0.0019612
0.0006848 0.0013475 0.0009739 0.0013926 -0.0002401 0.0004441 -0.0008322 -0.0007391 -0.0011144 -0.0018226 -0.0006229 0.0004302 -0.0006802 -0.0001325 0.0000324 0.0016156 -0.0005732 -0.0006296 -0.0012828 -0.0023166
0.0006452 0.0010843 0.0009768 0.0013027 -0.0002517 0.0003198 -0.0008397 -0.0007995 -0.0011310 -0.0020041 -0.0006451 0.0002289 -0.0006928 -0.0002028 0.0000030 0.0014191 -0.0005897 -0.0008159 -0.0012440 -0.0024964
0.0006730 0.0006624 0.0010123 0.0012525 -0.0002284 0.0002242 -0.0008450 -0.0007530 -0.0011293 -0.0021051 -0.0006186 0.0002629 -0.0006750 -0.0000887 -0.0000533 0.0013008 -0.0005667 -0.0008255 -0.0011760 -0.0023258
0.0007502 0.0007241 0.0010503 0.0013903 -0.0001929 0.0003291 -0.0008480 -0.0005883 -0.0011146 -0.0020086 -0.0005993 0.0004434 -0.0006767 0.0000289 -0.0000722 0.0012531 -0.0005523 -0.0007464 -0.0011652 -0.0021920
0.0007348 0.0009024 0.0010483 0.0014619 -0.0001835 0.0004049 -0.0008595 -0.0005180 -0.0011145 -0.0020073 -0.0006105 0.0004196 -0.0007095 -0.0000524 -0.0000778 0.0011089 -0.0005752 -0.0008573 -0.0011774 -0.0024378
0.0007108 0.0007035 0.0010434 0.0013319 -0.0001829 0.0002458 -0.0008613 -0.0006109 -0.0011044 -0.0021718 -0.0006248 0.0001795 -0.0007489 -0.0002965 -0.0000284 0.0011218 -0.0006107 -0.0010787 -0.0012425 -0.0030853
0.0007086 0.0004452 0.0010588 0.0011961 -0.0001445 0.0000988 -0.0008195 -0.0006209 -0.0010715 -0.0022404 -0.0006450 0.0000048 -0.0007470 -0.0002849 0.0001593 0.0015862 -0.0006140 -0.0010742 -0.0013534 -0.0034763
0.0007115 0.0005979 0.0010615 0.0012421 -0.0000869 0.0002142 -0.0007691 -0.0004854 -0.0010552 -0.0021668 -0.0006849 -0.0000343 -0.0007370 -0.0000111 0.0003088 0.0021395 -0.0006140 -0.0009843 -0.0014040 -0.0033960
0.0007141 0.0008552 0.0010541 0.0012746 -0.0000783 0.0002680 -0.0007781 -0.0005139 -0.0010738 -0.0022280 -0.0007214 -0.0001336 -0.0007561 0.0000662 0.0003416 0.0022515 -0.0006398 -0.0010712 -0.0014017 -0.0034348
0.0007121 0.0007401 0.0010573 0.0011524 -0.0000967 0.0000667 -0.0008081 -0.0007389 -0.0010850 -0.0024602 -0.0007315 -0.0003467 -0.0007621 -0.0000344 0.0003445 0.0020764 -0.0006479 -0.0012130 -0.0013622 -0.0035620
0.0007416 0.0005337 0.0010669 0.0010558 -0.0000711 -0.0000730 -0.0007974 -0.0008722 -0.0010596 -0.0025857 -0.0006907 -0.0003361 -0.0007086 0.0000560 0.0003604 0.0020198 -0.0006055 -0.0011253 -0.0012318 -0.0031256
0.0008164 0.0006729 0.0011007 0.0011268 -0.0000234 0.0000038 -0.0007959 -0.0009032 -0.0010185 -0.0024390 -0.0006348 -0.0001011 -0.0006315 0.0002835 0.0003315 0.0020439 -0.0005600 -0.0009457 -0.0011006 -0.0025062
0.0008254 0.0008471 0.0011162 0.0011504 -0.0000143 0.0000282 -0.0008161 -0.0009521 -0.0009891 -0.0023668 -0.0006137 -0.0000813 -0.0005872 0.0003245 0.0003054 0.0020349 -0.0005527 -0.0009381 -0.0010346 -0.0023782
0.0008702 0.0006679 0.0011125 0.0010414 -0.0000167 -0.0001204 -0.0008123 -0.0009834 -0.0009445 -0.0024651 -0.0005879 -0.0002284 -0.0005141 0.0003806 0.0003182 0.0021160 -0.0005178 -0.0008594 -0.0009159 -0.0021563
0.0009197 0.0004083 0.0011332 0.0010079 0.0000215 -0.0001965 -0.0007698 -0.0009110 -0.0008632 -0.0024132 -0.0005435 -0.0001902 -0.0004046 0.0006878 0.0003460 0.0023863 -0.0004517 -0.0005611 -0.0007831 -0.0016718
0.0008864 0.0005795 0.0011488 0.0011327 0.0000677 -0.0000569 -0.0007318 -0.0006932 -0.0007977 -0.0021906 -0.0005277 -0.0000581 -0.0003734 0.0008080 0.0003364 0.0023776 -0.0004148 -0.0003457 -0.0007462 -0.0014599
0.0008937 0.0009538 0.0011506 0.0012650 0.0000704 0.0000577 -0.0007225 -0.0005603 -0.0007694 -0.0020455 -0.0005507 -0.0000868 -0.0004127 0.0006513 0.0002712 0.0021497 -0.0004243 -0.0004374 -0.0007616 -0.0016813
0.0009092 0.0009127 0.0011411 0.0011919 0.0000455 -0.0000818 -0.0007317 -0.0006410 -0.0007579 -0.0021518 -0.0005597 -0.0002504 -0.0004265 0.0004821 0.0002565 0.0018500 -0.0004380 -0.0006546 -0.0007377 -0.0020461
0.0009036 0.0007278 0.0011445 0.0010707 0.0000610 -0.0002257 -0.0007117 -0.0006951 -0.0007245 -0.0022166 -0.0005197 -0.0002655 -0.0004040 0.0004031 0.0002799 0.0015170 -0.0004171 -0.0007095 -0.0006785 -0.0021085
0.0009307 0.0008793 0.0011686 0.0011165 0.0001164 -0.0001427 -0.0006709 -0.0006439 -0.0006880 -0.0021555 -0.0004713 -0.0001297 -0.0003808 0.0004312 0.0002697 0.0014464 -0.0003958 -0.0006501 -0.0006448 -0.0019678
0.0009638 0.0011489 0.0011786 0.0012225 0.0001504 0.0000191 -0.0006598 -0.0005911 -0.0006632 -0.0020644 -0.0004532 -0.0000779 -0.0003659 0.0003937 0.0002570 0.0014774 -0.0004041 -0.0007243 -0.0006236 -0.0019607
0.0009851 0.0012245 0.0011760 0.0011662 0.0001465 -0.0000193 -0.0006749 -0.0006676 -0.0006282 -0.0020868 -0.0004433 -0.0002219 -0.0003332 0.0002768 0.0002691 0.0014774 -0.0004073 -0.0008709 -0.0005568 -0.0020358
0.0010709 0.0011703 0.0012016 0.0010623 0.0001668 -0.0001273 -0.0006693 -0.0007825 -0.0005795 -0.0021264 -0.0004121 -0.0003376 -0.0002666 0.0002943 0.0003360 0.0015548 -0.0003693 -0.0008278 -0.0004645 -0.0018435
0.0011363 0.0013468 0.0012384 0.0011288 0.0002259 -0.0000088 -0.0006404 -0.0007589 -0.0005227 -0.0020233 -0.0003640 -0.0002436 -0.0001942 0.0004265 0.0003945 0.0016907 -0.0003267 -0.0006920 -0.0003880 -0.0015039
0.0011974 0.0016050 0.0012572 0.0012697 0.0002781 0.0001879 -0.0006269 -0.0007072 -0.0004962 -0.0019293 -0.0003307 -0.0001353 -0.0001571 0.0004855 0.0003870 0.0016633 -0.0003171 -0.0007029 -0.0003596 -0.0015373
0.0012469 0.0015268 0.0012665 0.0012339 0.0003000 0.0001584 -0.0006213 -0.0007784 -0.0004992 -0.0020663 -0.0003226 -0.0002679 -0.0001404 0.0004236 0.0003950 0.0014973 -0.0003102 -0.0008200 -0.0003211 -0.0017701
0.0012452 0.0012825 0.0012822 0.0010763 0.0003337 -0.0000033 -0.0005979 -0.0008878 -0.0004764 -0.0022528 -0.0002968 -0.0004363 -0.0000895 0.0004265 0.0004239 0.0015110 -0.0002781 -0.0008080 -0.0002421 -0.0017040
0.0013081 0.0012768 0.0013131 0.0010902 0.0004085 0.0000587 -0.0005526 -0.0008659 -0.0004357 -0.0022239 -0.0002557 -0.0003989 -0.0000300 0.0005465 0.0004472 0.0016404 -0.0002436 -0.0006952 -0.0001887 -0.0014497
0.0013507 0.0014706 0.0013325 0.0012075 0.0004645 0.0002410 -0.0005305 -0.0007952 -0.0004179 -0.0021239 -0.0002414 -0.0002888 -0.0000025 0.0006762 0.0004682 0.0017262 -0.0002265 -0.0005815 -0.0001702 -0.0012377
0.0013362 0.0015914 0.0013305 0.0012317 0.0004786 0.0002829 -0.0005332 -0.0008270 -0.0004269 -0.0021918 -0.0002556 -0.0004167 -0.0000082 0.0006060 0.0004687 0.0016797 -0.0002391 -0.0006646 -0.0001734 -0.0014010
0.0013424 0.0013931 0.0013343 0.0011055 0.0004902 0.0001290 -0.0005236 -0.0009468 -0.0004167 -0.0023740 -0.0002554 -0.0006911 0.0000014 0.0004716 0.0004692 0.0016282 -0.0002368 -0.0007784 -0.0001476 -0.0015431
0.0013755 0.0012941 0.0013523 0.0010661 0.0005322 0.0000892 -0.0004913 -0.0009646 -0.0003753 -0.0023864 -0.0002243 -0.0007272 0.0000483 0.0005208 0.0005057 0.0016982 -0.0002088 -0.0006991 -0.0001091 -0.0013483
0.0013949 0.0014580 0.0013661 0.0011710 0.0005813 0.0002262 -0.0004644 -0.0008885 -0.0003487 -0.0022820 -0.0002099 -0.0006331 0.0000755 0.0006340 0.0005352 0.0018233 -0.0001860 -0.0005420 -0.0000982 -0.0010298
0.0013881 0.0017259 0.0013684 0.0013229 0.0005992 0.0004098 -0.0004552 -0.0007827 -0.0003501 -0.0021422 -0.0002218 -0.0005132 0.0000719 0.0007462 0.0005403 0.0019027 -0.0001867 -0.0004631 -0.0001113 -0.0009007
0.0013493 0.0018185 0.0013548 0.0013254 0.0005790 0.0004166 -0.0004610 -0.0008041 -0.0003623 -0.0022021 -0.0002485 -0.0006570 0.0000535 0.0006481 0.0005344 0.0018161 -0.0002130 -0.0005771 -0.0001308 -0.0011120
0.0013310 0.0016115 0.0013439 0.0011863 0.0005674 0.0002383 -0.0004548 -0.0009298 -0.0003453 -0.0023651 -0.0002531 -0.0009182 0.0000606 0.0005145 0.0005536 0.0017526 -0.0002134 -0.0006475 -0.0001110 -0.0011695
0.0013391 0.0015649 0.0013515 0.0011794 0.0005999 0.0002301 -0.0004224 -0.0009290 -0.0003085 -0.0023403 -0.0002281 -0.0009096 0.0000968 0.0005933 0.0005877 0.0018542 -0.0001826 -0.0005364 -0.0000727 -0.0009180
0.0013276 0.0018046 0.0013625 0.0013046 0.0006352 0.0004024 -0.0004067 -0.0008389 -0.0002940 -0.0022099 -0.0002162 -0.0007732 0.0001214 0.0007476 0.0005819 0.0020617 -0.0001577 -0.0003648 -0.0000659 -0.0005782
0.0013567 0.0020917 0.0013624 0.0014732 0.0006344 0.0006134 -0.0004123 -0.0007300 -0.0002965 -0.0020432 -0.0002251 -0.0006074 0.0001188 0.0008833 0.0005671 0.0022049 -0.0001547 -0.0002731 -0.0000947 -0.0004533
0.0013403 0.0021809 0.0013455 0.0014918 0.0005964 0.0006089 -0.0004271 -0.0007548 -0.0003003 -0.0020949 -0.0002332 -0.0006855 0.0000926 0.0007316 0.0005435 0.0020534 -0.0001807 -0.0004081 -0.0001335 -0.0007038
0.0013129 0.0019995 0.0013314 0.0013641 0.0005636 0.0003992 -0.0004220 -0.0008852 -0.0002694 -0.0022422 -0.0002035 -0.0008344 0.0001056 0.0005316 0.0005359 0.0018692 -0.0001901 -0.0005264 -0.0001286 -0.0008183
0.0013561 0.0019330 0.0013417 0.0013533 0.0005767 0.0003523 -0.0003947 -0.0008940 -0.0002231 -0.0021959 -0.0001554 -0.0007478 0.0001498 0.0005916 0.0005710 0.0018721 -0.0001671 -0.0004459 -0.0001010 -0.0006000
0.0013202 0.0021346 0.0013499 0.0014724 0.0005936 0.0004929 -0.0003811 -0.0008137 -0.0002058 -0.0020636 -0.0001331 -0.0005872 0.0001660 0.0007159 0.0005921 0.0019705 -0.0001486 -0.0002826 -0.0001056 -0.0002945
0.0013090 0.0024035 0.0013395 0.0016325 0.0005878 0.0006785 -0.0003885 -0.0007238 -0.0002096 -0.0019070 -0.0001358 -0.0003894 0.0001572 0.0008383 0.0005612 0.0021227 -0.0001429 -0.0000926 -0.0001480 0.0000327
0.0013274 0.0026738 0.0013179 0.0017376 0.0005612 0.0007841 -0.0003996 -0.0006988 -0.0002208 -0.0018675 -0.0001527 -0.0003668 0.0001210 0.0007403 0.0005263 0.0020060 -0.0001749 -0.0001724 -0.0002072 -0.0001016
0.0012632 0.0025292 0.0012898 0.0016417 0.0005076 0.0005993 -0.0004025 -0.0008158 -0.0002012 -0.0019810 -0.0001591 -0.0005500 0.0000994 0.0004668 0.0005070 0.0017108 -0.0002080 -0.0003898 -0.0002177 -0.0004192
0.0012010 0.0021724 0.0012866 0.0015378 0.0004789 0.0003634 -0.0003869 -0.0009195 -0.0001480 -0.0019899 -0.0001417 -0.0006381 0.0001409 0.0003311 0.0004519 0.0014838 -0.0001654 -0.0003103 -0.0001250 -0.0001845
0.0011606 0.0021276 0.0013251 0.0016673 0.0004841 0.0003550 -0.0003677 -0.0008631 -0.0001231 -0.0019015 -0.0001151 -0.0005332 0.0001743 0.0002465 0.0003219 0.0010859 -0.0000855 -0.0000017 -0.0000275 0.0002268
0.0011360 0.0022908 0.0014034 0.0019539 0.0004943 0.0004724 -0.0003597 -0.0006876 -0.0001490 -0.0018461 -0.0001010 -0.0003140 0.0001480 0.0001550 0.0001994 0.0007191 -0.0000497 0.0002612 -0.0000257 0.0005313
0.0011420 0.0025798 0.0014245 0.0021805 0.0004773 0.0006149 -0.0003500 -0.0005543 -0.0001742 -0.0017844 -0.0001054 -0.0002304 0.0001054 0.0000282 0.0001798 0.0005118 -0.0000695 0.0001783 -0.0000813 0.0003901
0.0011006 0.0024695 0.0013832 0.0020950 0.0004234 0.0004743 -0.0003549 -0.0006437 -0.0001796 -0.0018896 -0.0001115 -0.0004009 0.0000793 -0.0001652 0.0001758 0.0003862 -0.0000885 -0.0000205 -0.0001219 0.0000568
0.0010501 0.0021874 0.0013614 0.0019286 0.0003951 0.0002750 -0.0003543 -0.0007351 -0.0001700 -0.0020121 -0.0000891 -0.0004452 0.0000814 -0.0002400 0.0002212 0.0005051 -0.0000984 -0.0000925 -0.0001602 0.0000039
0.0011262 0.0024268 0.0013424 0.0019389 0.0003862 0.0003297 -0.0003340 -0.0006739 -0.0001330 -0.0018621 -0.0000644 -0.0002953 0.0000764 -0.0002150 0.0002758 0.0006580 -0.0001239 -0.0001307 -0.0002303 0.0000299
0.0011725 0.0028191 0.0013241 0.0020416 0.0003666 0.0004640 -0.0003297 -0.0005926 -0.0001263 -0.0016814 -0.0000685 -0.0001168 0.0000452 -0.0001051 0.0002231 0.0008634 -0.0001506 -0.0000585 -0.0003271 0.0001609
0.0011746 0.0030935 0.0012990 0.0021947 0.0003359 0.0006634 -0.0003528 -0.0004698 -0.0001615 -0.0015606 -0.0000894 0.0000820 0.0000025 0.0000204 0.0002036 0.0010178 -0.0001859 -0.0000733 -0.0004258 0.0000871
0.0011508 0.0030816 0.0012719 0.0021604 0.0002891 0.0006544 -0.0003862 -0.0005168 -0.0001908 -0.0016588 -0.0001223 -0.0000288 -0.0000439 -0.0001145 0.0002273 0.0009259 -0.0002352 -0.0002888 -0.0005050 -0.0002900
0.0010861 0.0028119 0.0012588 0.0019974 0.0002503 0.0004643 -0.0003973 -0.0006738 -0.0001894 -0.0018376 -0.0001333 -0.0002346 -0.0000659 -0.0002673 0.0002166 0.0009152 -0.0002573 -0.0003863 -0.0005441 -0.0004304
0.0010618 0.0027590 0.0012604 0.0019837 0.0002480 0.0004578 -0.0003889 -0.0006510 -0.0001705 -0.0017585 -0.0001224 -0.0001709 -0.0000614 -0.0001918 0.0002311 0.0010295 -0.0002469 -0.0002940 -0.0005585 -0.0002232
0.0010397 0.0029497 0.0012502 0.0020846 0.0002504 0.0006052 -0.0003929 -0.0005295 -0.0001699 -0.0015919 -0.0001294 -0.0000217 -0.0000626 -0.0000478 0.0002437 0.0011928 -0.0002403 -0.0001483 -0.0005869 0.0000798
0.0009992 0.0032218 0.0012287 0.0022324 0.0002289 0.0008103 -0.0004101 -0.0003968 -0.0001923 -0.0014246 -0.0001563 0.0001512 -0.0000810 0.0001251 0.0002320 0.0013696 -0.0002426 0.0000023 -0.0006247 0.0003485
0.0009419 0.0034041 0.0012000 0.0022865 0.0001830 0.0009086 -0.0004267 -0.0003739 -0.0002222 -0.0014140 -0.0001947 0.0001089 -0.0001166 0.0000938 0.0002121 0.0013398 -0.0002728 -0.0001064 -0.0006764 0.0001857
0.0008893 0.0032128 0.0011706 0.0021776 0.0001411 0.0007679 -0.0004412 -0.0004658 -0.0002313 -0.0015305 -0.0002121 -0.0000865 -0.0001249 -0.0000200 0.0001958 0.0011940 -0.0002892 -0.0003060 -0.0006592 0.0000572
0.0009320 0.0031917 0.0011822 0.0022057 0.0002312 0.0010641 -0.0004381 -0.0003389 -0.0002312 -0.0013285 -0.0003058 -0.0004654 -0.0001070 0.0000965 0.0002692 0.0015085 -0.0002266 -0.0000027 -0.0003512 0.0014603
0.0013638 0.0044545 0.0014357 0.0029607 0.0004932 0.0020821 -0.0003813 0.0000952 -0.0001718 -0.0005870 -0.0003869 -0.0005918 -0.0000702 0.0004338 0.0003545 0.0020727 -0.0001127 0.0007373 0.0000250 0.0033610
0.0019511 0.0062586 0.0018328 0.0040533 0.0006794 0.0028632 -0.0003748 0.0003501 -0.0001221 -0.0000477 -0.0003189 -0.0001033 -0.0000337 0.0006983 0.0002634 0.0020298 -0.0000266 0.0012136 0.0000918 0.0040092
0.0020989 0.0067587 0.0019704 0.0045457 0.0006068 0.0029072 -0.0004627 0.0002720 -0.0001706 -0.0000400 -0.0002599 0.0002653 -0.0000565 0.0006558 0.0001117 0.0015747 -0.0000229 0.0010673 -0.0000255 0.0035317
0.0018938 0.0059881 0.0018914 0.0043205 0.0004049 0.0023206 -0.0005457 -0.0000039 -0.0002112 -0.0002429 -0.0002522 0.0001938 -0.0000975 0.0004402 0.0000671 0.0012268 -0.0000511 0.0007467 -0.0000993 0.0028908
0.0017608 0.0053765 0.0018351 0.0039944 0.0003289 0.0019127 -0.0005836 -0.0002262 -0.0002388 -0.0004690 -0.0002826 -0.0000902 -0.0001077 0.0003169 0.0001173 0.0012980 -0.0000565 0.0006767 -0.0000715 0.0028886
0.0018562 0.0055091 0.0018389 0.0039466 0.0004202 0.0021149 -0.0005758 -0.0002208 -0.0002865 -0.0005400 -0.0003154 -0.0002046 -0.0000967 0.0003836 0.0001813 0.0015099 -0.0000628 0.0009411 0.0000468 0.0035855
0.0021374 0.0062172 0.0019615 0.0042299 0.0005220 0.0023722 -0.0005496 -0.0001263 -0.0003548 -0.0005648 -0.0003185 -0.0000360 -0.0001242 0.0003944 0.0000957 0.0012221 -0.0000559 0.0012917 0.0000176 0.0037964
0.0021641 0.0062881 0.0020716 0.0044948 0.0004426 0.0021721 -0.0005732 -0.0001368 -0.0004580 -0.0006320 -0.0003096 0.0003702 -0.0001996 0.0003871 -0.0000987 0.0006638 -0.0000576 0.0013601 -0.0001960 0.0032451
0.0019881 0.0057051 0.0020717 0.0044379 0.0002942 0.0017649 -0.0006296 -0.0002773 -0.0005656 -0.0008886 -0.0003361 0.0003534 -0.0002665 0.0002580 -0.0001778 0.0003565 -0.0000996 0.0011329 -0.0003184 0.0026987
0.0019607 0.0053512 0.0020719 0.0042773 0.0002587 0.0015589 -0.0006456 -0.0003610 -0.0006043 -0.0011229 -0.0003736 0.0000106 -0.0003026 0.0000720 -0.0001412 0.0003717 -0.0001334 0.0008812 -0.0003497 0.0022532
0.0019855 0.0051063 0.0020728 0.0041541 0.0002323 0.0014007 -0.0006515 -0.0003584 -0.0005658 -0.0010235 -0.0003661 0.0000242 -0.0003008 0.0001104 -0.0001110 0.0005605 -0.0001282 0.0008380 -0.0003590 0.0021240
0.0019884 0.0050098 0.0020778 0.0041676 0.0001854 0.0013267 -0.0006677 -0.0003055 -0.0005335 -0.0007805 -0.0003503 0.0002207 -0.0002937 0.0002378 -0.0000925 0.0008242 -0.0001129 0.0009450 -0.0003780 0.0022096
0.0019347 0.0050437 0.0020599 0.0042376 0.0001335 0.0013938 -0.0006918 -0.0001934 -0.0005449 -0.0005782 -0.0003613 0.0004545 -0.0003219 0.0004246 -0.0000647 0.0011805 -0.0001441 0.0010080 -0.0004941 0.0021931
0.0018681 0.0052041 0.0019907 0.0042155 0.0000740 0.0015064 -0.0007148 -0.0000902 -0.0005843 -0.0005181 -0.0003990 0.0004992 -0.0003790 0.0005550 -0.0000175 0.0014121 -0.0002288 0.0007098 -0.0006621 0.0016318
0.0017997 0.0049259 0.0019319 0.0039636 -0.0000243 0.0012627 -0.0007422 -0.0001847 -0.0005914 -0.0005807 -0.0003968 0.0003838 -0.0004022 0.0004627 -0.0000041 0.0012669 -0.0002852 0.0003117 -0.0007406 0.0009445
0.0017483 0.0044436 0.0019105 0.0037036 -0.0001137 0.0008908 -0.0007632 -0.0002858 -0.0005676 -0.0005755 -0.0003558 0.0004174 -0.0003802 0.0004136 -0.0000116 0.0011948 -0.0002796 0.0002873 -0.0007381 0.0008260
0.0017816 0.0043367 0.0018941 0.0036563 -0.0001446 0.0008469 -0.0007629 -0.0002052 -0.0005702 -0.0004593 -0.0003408 0.0005843 -0.0003745 0.0005284 -0.0000142 0.0013638 -0.0002671 0.0004374 -0.0007335 0.0009910
0.0017929 0.0044391 0.0018831 0.0037223 -0.0001656 0.0009654 -0.0007812 -0.0000830 -0.0005927 -0.0003062 -0.0003518 0.0007759 -0.0003885 0.0006526 -0.0000253 0.0015518 -0.0002652 0.0005843 -0.0007571 0.0011928
0.0017589 0.0046075 0.0018640 0.0038214 -0.0002081 0.0011333 -0.0008256 0.0000240 -0.0006329 -0.0001735 -0.0003869 0.0008912 -0.0004179 0.0007054 -0.0000238 0.0016419 -0.0002891 0.0005550 -0.0008106 0.0010988
0.0017520 0.0044484 0.0018370 0.0037169 -0.0002592 0.0010630 -0.0008661 -0.0000201 -0.0006692 -0.0002563 -0.0004243 0.0007226 -0.0004420 0.0005855 -0.0000356 0.0015642 -0.0003245 0.0003557 -0.0008434 0.0007592
0.0017334 0.0041135 0.0018262 0.0034995 -0.0002804 0.0008407 -0.0008848 -0.0001315 -0.0006771 -0.0003890 -0.0004307 0.0005201 -0.0004389 0.0004787 -0.0000369 0.0015221 -0.0003309 0.0002709 -0.0008264 0.0006257
0.0017673 0.0039504 0.0018376 0.0034374 -0.0002674 0.0008024 -0.0009044 -0.0001383 -0.0006845 -0.0003634 -0.0004087 0.0005895 -0.0004215 0.0005287 -0.0000295 0.0015230 -0.0003102 0.0003397 -0.0007842 0.0007676
0.0017819 0.0039781 0.0018489 0.0034875 -0.0002582 0.0008816 -0.0009418 -0.0000665 -0.0006960 -0.0002637 -0.0003813 0.0008097 -0.0004099 0.0006298 -0.0000604 0.0015263 -0.0002923 0.0004634 -0.0007776 0.0009803
0.0017355 0.0041422 0.0018408 0.0035843 -0.0002757 0.0010026 -0.0009717 0.0000482 -0.0007083 -0.0001022 -0.0003836 0.0010301 -0.0004294 0.0006883 -0.0000610 0.0015558 -0.0003016 0.0004730 -0.0008300 0.0008882
0.0016768 0.0040697 0.0018197 0.0034879 -0.0003128 0.0009129 -0.0009893 0.0000132 -0.0007322 -0.0001661 -0.0004143 0.0008806 -0.0004661 0.0005364 -0.0000593 0.0014890 -0.0003350 0.0002726 -0.0008735 0.0004998
0.0016387 0.0037446 0.0018137 0.0032599 -0.0003319 0.0006606 -0.0009908 -0.0001185 -0.0007379 -0.0003606 -0.0004197 0.0005911 -0.0004660 0.0003699 -0.0000767 0.0014247 -0.0003452 0.0001356 -0.0008474 0.0003047
0.0016522 0.0036133 0.0018276 0.0031852 -0.0003118 0.0005928 -0.0009858 -0.0001255 -0.0007284 -0.0003784 -0.0004048 0.0005546 -0.0004425 0.0003885 -0.0000493 0.0014500 -0.0003235 0.0001967 -0.0007996 0.0004111
0.0016840 0.0037332 0.0018366 0.0032441 -0.0002804 0.0006890 -0.0009824 -0.0000530 -0.0007338 -0.0003065 -0.0004038 0.0006371 -0.0004360 0.0004826 -0.0000365 0.0015594 -0.0003020 0.0003226 -0.0007853 0.0006258
0.0017023 0.0039277 0.0018295 0.0033526 -0.0002605 0.0008244 -0.0009810 0.0000309 -0.0007471 -0.0001926 -0.0004112 0.0007868 -0.0004396 0.0006147 -0.0000343 0.0016757 -0.0002914 0.0004593 -0.0007952 0.0008453
0.0016933 0.0040673 0.0018106 0.0033726 -0.0002781 0.0008709 -0.0009956 0.0000461 -0.0007653 -0.0002146 -0.0004319 0.0007050 -0.0004629 0.0005332 -0.0000347 0.0015763 -0.0003223 0.0003193 -0.0008126 0.0005954
0.0016884 0.0037863 0.0017993 0.0031905 -0.0003028 0.0006527 -0.0009962 -0.0000870 -0.0007630 -0.0004134 -0.0004362 0.0004170 -0.0004738 0.0002823 -0.0000332 0.0014036 -0.0003520 0.0000600 -0.0008181 0.0001071
0.0016968 0.0034461 0.0018047 0.0030098 -0.0002793 0.0004290 -0.0009684 -0.0002074 -0.0007415 -0.0005468 -0.0004069 0.0003065 -0.0004646 0.0001088 -0.0000168 0.0012302 -0.0003406 -0.0000084 -0.0007739 0.0000428
0.0017860 0.0034616 0.0018249 0.0030006 -0.0002058 0.0004998 -0.0009643 -0.0002726 -0.0007505 -0.0006083 -0.0003722 0.0003885 -0.0004353 0.0000829 0.0000061 0.0012665 -0.0003183 0.0000556 -0.0007285 0.0003354
0.0018652 0.0036154 0.0018335 0.0029980 -0.0001701 0.0006038 -0.0009782 -0.0003007 -0.0007455 -0.0005488 -0.0003607 0.0005017 -0.0004136 0.0001263 0.0000036 0.0014394 -0.0003037 0.0001575 -0.0007511 0.0005361
0.0018526 0.0038648 0.0018169 0.0030293 -0.0002066 0.0006370 -0.0009715 -0.0002376 -0.0007060 -0.0003418 -0.0003672 0.0005585 -0.0004283 0.0000817 0.0000236 0.0014783 -0.0003314 0.0000675 -0.0008083 0.0002551
0.0018309 0.0037115 0.0018069 0.0029165 -0.0002498 0.0004061 -0.0009599 -0.0003437 -0.0006608 -0.0003545 -0.0003602 0.0003588 -0.0004337 -0.0001378 0.0000747 0.0013652 -0.0003705 -0.0001956 -0.0008351 -0.0002919
0.0018149 0.0031448 0.0018161 0.0026421 -0.0002663 -0.0000256 -0.0009418 -0.0005793 -0.0005940 -0.0005177 -0.0003118 0.0001256 -0.0003982 -0.0003285 0.0000804 0.0012079 -0.0003678 -0.0003608 -0.0007932 -0.0005970
0.0018207 0.0028525 0.0018358 0.0025274 -0.0002352 -0.0001984 -0.0009079 -0.0007015 -0.0005278 -0.0005642 -0.0002377 0.0001696 -0.0003332 -0.0002999 0.0001113 0.0012670 -0.0003407 -0.0003219 -0.0007283 -0.0005161
0.0018449 0.0029063 0.0018538 0.0025457 -0.0001914 -0.0001417 -0.0008778 -0.0006992 -0.0004813 -0.0005077 -0.0001846 0.0003188 -0.0002818 -0.0001781 0.0001487 0.0013502 -0.0003134 -0.0001932 -0.0006927 -0.0002834
0.0018726 0.0031357 0.0018579 0.0026534 -0.0001699 -0.0000163 -0.0008517 -0.0006510 -0.0004795 -0.0004342 -0.0001474 0.0005447 -0.0002636 -0.0001601 0.0000730 0.0009871 -0.0003029 -0.0000720 -0.0007233 -0.0000669
0.0018931 0.0033497 0.0018406 0.0026420 -0.0001597 0.0000586 -0.0008220 -0.0006790 -0.0005457 -0.0005854 -0.0001436 0.0005813 -0.0002757 -0.0002600 0.0000001 0.0007144 -0.0003282 -0.0001274 -0.0007921 -0.0001209
0.0018485 0.0030160 0.0018288 0.0023959 -0.0001683 -0.0001503 -0.0007977 -0.0008363 -0.0005941 -0.0009176 -0.0001667 0.0002988 -0.0002940 -0.0003935 0.0000181 0.0007846 -0.0003525 -0.0002755 -0.0008168 -0.0003472
0.0017931 0.0025570 0.0018351 0.0022164 -0.0001664 -0.0004142 -0.0007698 -0.0009801 -0.0005675 -0.0010845 -0.0001638 0.0001110 -0.0002779 -0.0004597 0.0000406 0.0008310 -0.0003388 -0.0002640 -0.0007893 -0.0003233
0.0018419 0.0025729 0.0018438 0.0022446 -0.0001261 -0.0003989 -0.0007340 -0.0009670 -0.0005219 -0.0010169 -0.0001368 0.0001809 -0.0002310 -0.0003545 0.0000527 0.0010037 -0.0003110 -0.0001220 -0.0007372 -0.0000058
0.0018642 0.0027642 0.0018500 0.0023781 -0.0000902 -0.0002375 -0.0007215 -0.0009115 -0.0004908 -0.0008734 -0.0001133 0.0003541 -0.0001775 -0.0001614 0.0000524 0.0011654 -0.0002722 0.0001113 -0.0006907 0.0004664
0.0018088 0.0030183 0.0018380 0.0025473 -0.0000872 -0.0000384 -0.0007268 -0.0008115 -0.0004924 -0.0007271 -0.0001255 0.0005404 -0.0001474 0.0000603 0.0000274 0.0013452 -0.0002498 0.0003171 -0.0006795 0.0007952
0.0018002 0.0030871 0.0018092 0.0025569 -0.0001133 -0.0000001 -0.0007292 -0.0007951 -0.0005182 -0.0007980 -0.0001687 0.0003995 -0.0001622 0.0000120 0.0000154 0.0013702 -0.0002736 0.0002146 -0.0006960 0.0006501
0.0017832 0.0028291 0.0017916 0.0023845 -0.0001388 -0.0001934 -0.0007304 -0.0009097 -0.0005203 -0.0010136 -0.0001869 0.0000794 -0.0001640 -0.0001560 0.0000476 0.0013447 -0.0002853 0.0000760 -0.0007061 0.0003854
0.0017662 0.0026818 0.0017886 0.0022982 -0.0001289 -0.0002937 -0.0007109 -0.0009372 -0.0005013 -0.0010800 -0.0001745 0.0000270 -0.0001545 -0.0001688 0.0000571 0.0013906 -0.0002785 0.0001074 -0.0007095 0.0003766
0.0018061 0.0028030 0.0017894 0.0023744 -0.0001078 -0.0001916 -0.0006955 -0.0008713 -0.0004918 -0.0010200 -0.0001680 0.0001376 -0.0001688 -0.0001519 0.0000534 0.0014173 -0.0002828 0.0001745 -0.0007357 0.0004643
0.0017961 0.0030281 0.0017825 0.0024965 -0.0001102 -0.0000452 -0.0007079 -0.0007807 -0.0005025 -0.0009240 -0.0001892 0.0002621 -0.0002067 -0.0001422 0.0000399 0.0014984 -0.0002992 0.0002607 -0.0007976 0.0005289
0.0017629 0.0032635 0.0017638 0.0026276 -0.0001309 0.0001162 -0.0007403 -0.0007036 -0.0005285 -0.0008644 -0.0002298 0.0002642 -0.0002592 -0.0001834 0.0000130 0.0015085 -0.0003385 0.0001538 -0.0008596 0.0003150
0.0017136 0.0030935 0.0017498 0.0025403 -0.0001683 0.0000082 -0.0007691 -0.0007957 -0.0005425 -0.0009739 -0.0002534 0.0000634 -0.0002787 -0.0002804 0.0000067 0.0014255 -0.0003705 -0.0000534 -0.0008628 0.0000338
0.0016748 0.0027847 0.0017495 0.0023755 -0.0001818 -0.0001961 -0.0007716 -0.0009089 -0.0005239 -0.0010719 -0.0002411 -0.0000705 -0.0002576 -0.0003137 -0.0000069 0.0013429 -0.0003666 -0.0000837 -0.0008245 0.0000466
0.0016816 0.0028247 0.0017547 0.0024114 -0.0001554 -0.0001651 -0.0007556 -0.0008362 -0.0005011 -0.0009917 -0.0002251 0.0000229 -0.0002322 -0.0002006 0.0000130 0.0013857 -0.0003416 0.0000458 -0.0007941 0.0002964
0.0016594 0.0030805 0.0017504 0.0025361 -0.0001430 -0.0000197 -0.0007427 -0.0007382 -0.0004950 -0.0008577 -0.0002201 0.0001946 -0.0002145 -0.0000348 0.0000160 0.0014948 -0.0003155 0.0002356 -0.0007788 0.0007036
0.0016243 0.0033791 0.0017246 0.0026878 -0.0001501 0.0001621 -0.0007449 -0.0006276 -0.0005125 -0.0007711 -0.0002305 0.0002481 -0.0002120 0.0000603 -0.0000295 0.0014737 -0.0003122 0.0002453 -0.0007690 0.0007407
0.0015954 0.0032601 0.0016883 0.0026141 -0.0001744 0.0000606 -0.0007259 -0.0006162 -0.0005300 -0.0009069 -0.0002460 0.0000334 -0.0002183 -0.0000412 -0.0000692 0.0012326 -0.0003048 0.0001440 -0.0007336 0.0004480
0.0015867 0.0029777 0.0016809 0.0024906 -0.0001687 -0.0001590 -0.0006832 -0.0006563 -0.0005189 -0.0010765 -0.0002275 -0.0001497 -0.0002069 -0.0001828 -0.0001027 0.0008609 -0.0002683 0.0001790 -0.0006711 0.0004095
0.0016256 0.0029951 0.0016972 0.0025556 -0.0001212 -0.0001266 -0.0006453 -0.0005664 -0.0005008 -0.0010671 -0.0001960 -0.0000861 -0.0001886 -0.0001486 -0.0001302 0.0007845 -0.0002277 0.0003409 -0.0006183 0.0006467
0.0016865 0.0031650 0.0017055 0.0026770 -0.0000877 0.0000440 -0.0006162 -0.0004192 -0.0004890 -0.0009605 -0.0001854 0.0000486 -0.0001842 -0.0000326 -0.0001555 0.0008679 -0.0001976 0.0005602 -0.0005966 0.0009361
0.0016933 0.0034201 0.0017006 0.0028073 -0.0000694 0.0002112 -0.0006092 -0.0003141 -0.0005073 -0.0009442 -0.0002094 0.0000050 -0.0002087 -0.0000238 -0.0001399 0.0008631 -0.0002047 0.0005452 -0.0006005 0.0008734
0.0016993 0.0032571 0.0016817 0.0026936 -0.0000787 0.0001053 -0.0006139 -0.0003886 -0.0005240 -0.0011297 -0.0002687 -0.0003783 -0.0002413 -0.0001990 -0.0001038 0.0008306 -0.0002147 0.0003850 -0.0005457 0.0007114
0.0017238 0.0029451 0.0016748 0.0025213 -0.0000698 -0.0000813 -0.0005839 -0.0004658 -0.0004881 -0.0012228 -0.0002953 -0.0006966 -0.0002183 -0.0002830 -0.0000832 0.0008092 -0.0001790 0.0004272 -0.0004213 0.0008978
0.0017376 0.0029911 0.0016812 0.0025810 -0.0000163 -0.0000262 -0.0005396 -0.0003853 -0.0004337 -0.0011250 -0.0002858 -0.0007420 -0.0001726 -0.0002015 -0.0000561 0.0008553 -0.0001374 0.0005729 -0.0003187 0.0011997
0.0017477 0.0031692 0.0016873 0.0027157 0.0000334 0.0001445 -0.0005114 -0.0002675 -0.0003947 -0.0009785 -0.0002821 -0.0006773 -0.0001569 -0.0001535 -0.0000701 0.0008053 -0.0001185 0.0006708 -0.0002778 0.0013247
0.0017305 0.0032829 0.0016777 0.0027729 0.0000554 0.0002353 -0.0004904 -0.0002424 -0.0003906 -0.0010241 -0.0002699 -0.0007336 -0.0001650 -0.0003196 -0.0001139 0.0004697 -0.0001265 0.0005409 -0.0002498 0.0010720
0.0017056 0.0031329 0.0016736 0.0026806 0.0001174 0.0002502 -0.0004690 -0.0003522 -0.0004112 -0.0013180 -0.0002300 -0.0009117 -0.0001418 -0.0005550 -0.0001246 0.0000228 -0.0001240 0.0003410 -0.0001804 0.0007655
0.0017610 0.0030549 0.0017263 0.0026855 0.0002582 0.0004381 -0.0004135 -0.0003549 -0.0004079 -0.0014913 -0.0001584 -0.0008837 -0.0000684 -0.0005518 -0.0001189 -0.0001200 -0.0000927 0.0003786 -0.0001002 0.0008456
0.0018674 0.0032372 0.0017860 0.0028398 0.0003887 0.0007520 -0.0003342 -0.0001981 -0.0003663 -0.0014020 -0.0000908 -0.0006923 0.0000098 -0.0003797 -0.0000895 0.0000515 -0.0000597 0.0005469 -0.0000406 0.0011594
0.0019243 0.0035172 0.0018007 0.0029906 0.0004461 0.0009686 -0.0002713 -0.0000476 -0.0003132 -0.0012114 -0.0000505 -0.0005536 0.0000632 -0.0002381 -0.0000278 0.0002594 -0.0000594 0.0005226 -0.0000216 0.0011307
0.0019410 0.0033975 0.0017968 0.0028985 0.0004388 0.0008140 -0.0002376 -0.0001396 -0.0002703 -0.0012907 -0.0000427 -0.0007327 0.0000866 -0.0002779 0.0000374 0.0003919 -0.0000772 0.0003290 -0.0000057 0.0008144
0.0019332 0.0029396 0.0017999 0.0026327 0.0004350 0.0004610 -0.0002609 -0.0004874 -0.0002609 -0.0016056 -0.0000356 -0.0009993 0.0001002 -0.0004230 0.0000528 0.0003387 -0.0000689 0.0002404 0.0000372 0.0006377
0.0020001 0.0027620 0.0018261 0.0025761 0.0004714 0.0003432 -0.0002810 -0.0006561 -0.0002525 -0.0017215 -0.0000050 -0.0010035 0.0001273 -0.0004087 0.0000797 0.0003341 -0.0000375 0.0003133 0.0001163 0.0008131
0.0020869 0.0029211 0.0018510 0.0026806 0.0005100 0.0004506 -0.0002448 -0.0005540 -0.0002000 -0.0015736 0.0000304 -0.0008675 0.0001819 -0.0002535 0.0001010 0.0004906 0.0000013 0.0004754 0.0002055 0.0012152
0.0020999 0.0031989 0.0018505 0.0027822 0.0005323 0.0006162 -0.0002215 -0.0004501 -0.0001617 -0.0014695 0.0000439 -0.0008837 0.0002244 -0.0002637 0.0001174 0.0004864 0.0000051 0.0004038 0.0002580 0.0012264
0.0021022 0.0030590 0.0018462 0.0026596 0.0005396 0.0005111 -0.0002252 -0.0005678 -0.0001532 -0.0016358 0.0000404 -0.0011334 0.0002394 -0.0004360 0.0001499 0.0004517 -0.0000035 0.0002322 0.0002974 0.0010081
0.0021143 0.0027253 0.0018483 0.0024695 0.0005497 0.0002682 -0.0002239 -0.0007515 -0.0001219 -0.0017834 0.0000534 -0.0012946 0.0002667 -0.0004892 0.0001847 0.0005622 0.0000160 0.0002480 0.0003477 0.0010254
0.0021436 0.0027220 0.0018537 0.0024702 0.0005764 0.0002512 -0.0001985 -0.0007491 -0.0000731 -0.0017076 0.0000798 -0.0012388 0.0003126 -0.0003654 0.0002249 0.0007495 0.0000473 0.0003650 0.0003976 0.0012545
0.0021621 0.0028805 0.0018581 0.0025682 0.0005996 0.0003523 -0.0001598 -0.0006536 -0.0000353 -0.0015452 0.0000948 -0.0010995 0.0003441 -0.0002068 0.0002340 0.0009276 0.0000684 0.0005312 0.0004049 0.0015379
0.0021397 0.0030831 0.0018510 0.0027001 0.0005985 0.0004761 -0.0001291 -0.0005090 0.0000025 -0.0012870 0.0000880 -0.0009495 0.0003597 -0.0000591 0.0002439 0.0010207 0.0000645 0.0005982 0.0003822 0.0015717
0.0020652 0.0029875 0.0018285 0.0026519 0.0005579 0.0003513 -0.0001240 -0.0004829 0.0000277 -0.0012529 0.0000615 -0.0010888 0.0003409 -0.0001857 0.0002043 0.0007763 0.0000356 0.0004406 0.0003504 0.0011434
0.0019874 0.0025381 0.0018082 0.0024290 0.0005021 -0.0000764 -0.0001124 -0.0005948 0.0000548 -0.0013954 0.0000548 -0.0013574 0.0003018 -0.0005363 0.0001575 0.0002189 0.0000227 0.0002792 0.0003110 0.0006949
0.0019279 0.0022540 0.0017864 0.0022858 0.0004726 -0.0003693 -0.0000597 -0.0005916 0.0000913 -0.0013698 0.0000714 -0.0013588 0.0002704 -0.0006882 0.0001158 -0.0000004 0.0000188 0.0002721 0.0002432 0.0004990
0.0018878 0.0022248 0.0017517 0.0022381 0.0004403 -0.0004293 0.0000042 -0.0004483 0.0001208 -0.0012354 0.0000812 -0.0012249 0.0002538 -0.0006179 0.0000916 0.0001775 0.0000158 0.0003661 0.0001851 0.0005200
0.0018579 0.0023267 0.0017209 0.0022714 0.0004012 -0.0003788 0.0000340 -0.0002958 0.0001287 -0.0010725 0.0000795 -0.0010374 0.0002455 -0.0005207 0.0001041 0.0003311 0.0000014 0.0003660 0.0001188 0.0003836
0.0017576 0.0021699 0.0016955 0.0021797 0.0003710 -0.0004599 0.0000295 -0.0003157 0.0001106 -0.0011587 0.0000646 -0.0010734 0.0002127 -0.0005476 0.0001091 0.0003999 -0.0000402 0.0001879 0.0000520 -0.0000971
0.0016938 0.0016399 0.0016726 0.0018937 0.0003553 -0.0006843 0.0000128 -0.0005092 0.0001116 -0.0013663 0.0000912 -0.0011602 0.0002085 -0.0007303 0.0000639 0.0001249 -0.0000501 0.0000504 0.0000784 -0.0003126
0.0016824 0.0013297 0.0016814 0.0017830 0.0003702 -0.0007285 0.0000135 -0.0006007 0.0001466 -0.0013432 0.0001612 -0.0009744 0.0002445 -0.0008867 0.0000021 -0.0001964 -0.0000261 0.0000991 0.0001276 -0.0001348
0.0016668 0.0013925 0.0017026 0.0018967 0.0003878 -0.0005810 0.0000175 -0.0005608 0.0001672 -0.0011930 0.0002030 -0.0007142 0.0002672 -0.0008631 -0.0000168 -0.0001772 -0.0000077 0.0002731 0.0001370 0.0002019
0.0016679 0.0015619 0.0016982 0.0020317 0.0003794 -0.0003912 -0.0000338 -0.0005482 0.0001424 -0.0010757 0.0002010 -0.0004810 0.0002491 -0.0008045 -0.0000299 -0.0001398 -0.0000206 0.0002993 0.0001166 0.0002967
0.0016325 0.0015563 0.0016827 0.0019954 0.0003338 -0.0004338 -0.0001080 -0.0006856 0.0000986 -0.0011854 0.0001723 -0.0005576 0.0002036 -0.0009449 -0.0000604 -0.0001881 -0.0000495 0.0001416 0.0001095 0.0000913
0.0016070 0.0013378 0.0016783 0.0018586 0.0003023 -0.0006131 -0.0001438 -0.0008516 0.0000850 -0.0013476 0.0001616 -0.0007365 0.0001979 -0.0010783 -0.0000562 -0.0002051 -0.0000542 0.0000779 0.0001333 0.0000300
0.0016143 0.0012987 0.0016870 0.0018726 0.0003210 -0.0006028 -0.0001429 -0.0008617 0.0000972 -0.0012971 0.0001794 -0.0006587 0.0002203 -0.0010111 -0.0000500 -0.0001395 -0.0000433 0.0001696 0.0001354 0.0002510
0.0016063 0.0015360 0.0016880 0.0019939 0.0003380 -0.0004407 -0.0001429 -0.0007847 0.0000834 -0.0011870 0.0001862 -0.0004794 0.0002295 -0.0008827 -0.0000738 -0.0000653 -0.0000394 0.0003148 0.0001132 0.0005801
0.0015821 0.0018388 0.0016797 0.0021371 0.0003327 -0.0002178 -0.0001601 -0.0006625 0.0000430 -0.0010977 0.0001711 -0.0003428 0.0002219 -0.0007890 -0.0000886 -0.0000391 -0.0000507 0.0003409 0.0000966 0.0006175
0.0015381 0.0018054 0.0016953 0.0021217 0.0003178 -0.0002201 -0.0001906 -0.0006947 -0.0000161 -0.0012975 0.0001404 -0.0004834 0.0002010 -0.0008633 -0.0000865 -0.0001433 -0.0000758 0.0002082 0.0000895 0.0003549
0.0015203 0.0015490 0.0017493 0.0020441 0.0003256 -0.0003433 -0.0001987 -0.0007691 -0.0000457 -0.0015356 0.0001366 -0.0006236 0.0002086 -0.0008971 -0.0000640 -0.0001850 -0.0000759 0.0001951 0.0000970 0.0003078
0.0015838 0.0015509 0.0017901 0.0021201 0.0003573 -0.0002683 -0.0001932 -0.0007118 -0.0000541 -0.0015165 0.0001559 -0.0004929 0.0002169 -0.0007925 -0.0000840 -0.0000776 -0.0000545 0.0003584 0.0001016 0.0005257
0.0016265 0.0017993 0.0017898 0.0022703 0.0003682 -0.0000936 -0.0002108 -0.0006235 -0.0000829 -0.0014341 0.0001567 -0.0002766 0.0001991 -0.0006743 -0.0001389 0.0000170 -0.0000454 0.0005428 0.0000850 0.0008235
0.0016008 0.0020768 0.0017741 0.0024384 0.0003579 0.0001237 -0.0002509 -0.0005318 -0.0001405 -0.0014014 0.0001294 -0.0001372 0.0001530 -0.0006383 -0.0001674 -0.0000265 -0.0000645 0.0005416 0.0000356 0.0007981
0.0015851 0.0020031 0.0017597 0.0024089 0.0003368 0.0001143 -0.0003104 -0.0006096 -0.0002143 -0.0016384 0.0000826 -0.0002955 0.0000997 -0.0007574 -0.0001712 -0.0001158 -0.0000947 0.0003918 0.0000112 0.0005466
0.0015843 0.0017682 0.0017565 0.0022844 0.0003294 -0.0000397 -0.0003393 -0.0007324 -0.0002452 -0.0018596 0.0000632 -0.0004837 0.0000960 -0.0008090 -0.0001735 -0.0000727 -0.0000925 0.0003755 0.0000334 0.0005645
0.0016193 0.0017701 0.0017599 0.0023151 0.0003557 0.0000035 -0.0003346 -0.0006867 -0.0002566 -0.0018611 0.0000490 -0.0004824 0.0001001 -0.0007113 -0.0001382 0.0000882 -0.0000758 0.0005089 0.0000581 0.0008318
0.0016435 0.0020361 0.0017613 0.0024440 0.0003925 0.0002084 -0.0003561 -0.0005802 -0.0003031 -0.0018757 -0.0000106 -0.0005241 0.0000755 -0.0005769 -0.0000953 0.0004062 -0.0000720 0.0006836 0.0000805 0.0012755
0.0016300 0.0023987 0.0017528 0.0025942 0.0004091 0.0004511 -0.0004129 -0.0005145 -0.0003801 -0.0019875 -0.0000980 -0.0007330 0.0000141 -0.0005765 -0.0000390 0.0006576 -0.0000943 0.0006184 0.0001195 0.0014395
0.0016218 0.0023603 0.0017444 0.0025228 0.0004049 0.0004013 -0.0005075 -0.0006682 -0.0004573 -0.0022674 -0.0001866 -0.0011438 -0.0000389 -0.0006583 0.0000447 0.0008028 -0.0001199 0.0004280 0.0001900 0.0013183
0.0016111 0.0020814 0.0017449 0.0023450 0.0004151 0.0001747 -0.0005580 -0.0008872 -0.0004754 -0.0024331 -0.0001714 -0.0012640 0.0000184 -0.0005085 0.0001117 0.0008610 -0.0001286 0.0004016 0.0003674 0.0016776
0.0016959 0.0021448 0.0018280 0.0024003 0.0005521 0.0004023 -0.0006488 -0.0011500 -0.0006139 -0.0026783 -0.0000575 -0.0007697 0.0001019 -0.0000310 0.0001526 0.0011330 -0.0001304 0.0008710 0.0006039 0.0029307
0.0020963 0.0030298 0.0020981 0.0028778 0.0007425 0.0011049 -0.0008215 -0.0012261 -0.0007925 -0.0028206 -0.0000213 -0.0002979 0.0001301 0.0005853 0.0001983 0.0018691 -0.0000732 0.0017669 0.0007450 0.0043525
0.0025594 0.0042215 0.0023975 0.0035208 0.0007974 0.0015561 -0.0009433 -0.0010685 -0.0007840 -0.0026750 -0.0000681 -0.0003242 0.0001147 0.0007347 0.0002142 0.0021435 -0.0000319 0.0020105 0.0007489 0.0042936
0.0027127 0.0044270 0.0025262 0.0036666 0.0007195 0.0012477 -0.0009812 -0.0011094 -0.0006422 -0.0025435 -0.0000401 -0.0004551 0.0000567 0.0000841 0.0000496 0.0013301 -0.0000373 0.0014421 0.0005239 0.0025332
0.0027070 0.0040311 0.0025171 0.0034798 0.0005671 0.0005405 -0.0009162 -0.0010932 -0.0004008 -0.0021031 0.0000799 -0.0002639 0.0000611 -0.0004406 -0.0000917 0.0007176 -0.0000403 0.0009361 0.0003122 0.0012506
0.0026847 0.0039417 0.0024761 0.0033893 0.0004769 0.0002551 -0.0008958 -0.0009811 -0.0002922 -0.0017114 0.0000795 -0.0002612 0.0001186 -0.0001423 -0.0000339 0.0010719 -0.0000361 0.0008681 0.0002948 0.0012295
0.0027089 0.0040189 0.0024503 0.0034055 0.0004596 0.0003607 -0.0009186 -0.0009068 -0.0003003 -0.0015766 0.0000375 -0.0002564 0.0001317 0.0000955 -0.0000136 0.0012897 -0.0000232 0.0009630 0.0002869 0.0013688
0.0027061 0.0040716 0.0024199 0.0033833 0.0004206 0.0003674 -0.0009247 -0.0009107 -0.0002920 -0.0015785 0.0000453 -0.0002346 0.0001124 -0.0000993 -0.0000285 0.0011610 -0.0000429 0.0008102 0.0002790 0.0011276
0.0026487 0.0038524 0.0023816 0.0031930 0.0003855 0.0001984 -0.0009411 -0.0010673 -0.0002711 -0.0016664 0.0000386 -0.0004933 0.0001285 -0.0002744 0.0000054 0.0010413 -0.0000494 0.0005739 0.0003206 0.0008180
0.0026421 0.0036161 0.0023683 0.0030367 0.0004115 0.0001081 -0.0009315 -0.0011673 -0.0002328 -0.0016549 0.0000563 -0.0005966 0.0001823 -0.0002774 0.0000475 0.0011045 -0.0000223 0.0005732 0.0003927 0.0009288
0.0026653 0.0037369 0.0023637 0.0030659 0.0004612 0.0002559 -0.0009180 -0.0010886 -0.0002043 -0.0015272 0.0000694 -0.0005337 0.0002260 -0.0001397 0.0000798 0.0012644 0.0000159 0.0007178 0.0004417 0.0012431
0.0026541 0.0039316 0.0023509 0.0031808 0.0004596 0.0004116 -0.0009218 -0.0010053 -0.0001809 -0.0013422 0.0000977 -0.0002770 0.0002624 0.0000242 0.0000491 0.0012309 0.0000421 0.0009259 0.0004393 0.0015005
0.0026084 0.0040574 0.0023319 0.0032466 0.0004416 0.0004658 -0.0009161 -0.0010180 -0.0001634 -0.0012717 0.0001330 -0.0000927 0.0002780 -0.0000022 -0.0000136 0.0009504 0.0000225 0.0008603 0.0003922 0.0012590
0.0025506 0.0037639 0.0022993 0.0031000 0.0004156 0.0002766 -0.0009072 -0.0011506 -0.0001496 -0.0013739 0.0001500 -0.0001698 0.0002848 -0.0001584 -0.0000429 0.0007289 0.0000040 0.0006391 0.0003776 0.0008535
0.0025186 0.0033851 0.0022859 0.0029435 0.0004078 0.0000899 -0.0008935 -0.0012367 -0.0001255 -0.0014021 0.0001622 -0.0002008 0.0003119 -0.0001609 -0.0000474 0.0008022 0.0000201 0.0006257 0.0003915 0.0008100
0.0025381 0.0034198 0.0022934 0.0029772 0.0004258 0.0001456 -0.0008705 -0.0011841 -0.0001025 -0.0012850 0.0001721 -0.0000920 0.0003312 -0.0000421 -0.0000124 0.0009283 0.0000396 0.0007363 0.0003897 0.0009815
0.0025186 0.0036247 0.0022898 0.0030727 0.0004233 0.0002707 -0.0008698 -0.0011060 -0.0001057 -0.0011395 0.0001636 0.0000617 0.0003234 0.0000933 -0.0000134 0.0010673 0.0000470 0.0008976 0.0003688 0.0012625
0.0025150 0.0038602 0.0022713 0.0032012 0.0003984 0.0004480 -0.0008920 -0.0010116 -0.0001338 -0.0010295 0.0001383 0.0001509 0.0002985 0.0001388 -0.0000472 0.0011111 0.0000294 0.0008542 0.0003293 0.0011960
0.0025152 0.0037439 0.0022471 0.0031385 0.0003574 0.0003879 -0.0009214 -0.0010772 -0.0001655 -0.0011341 0.0001104 0.0000141 0.0002771 0.0000259 -0.0000388 0.0009789 0.0000028 0.0006506 0.0003164 0.0008943
0.0024713 0.0034784 0.0022343 0.0029835 0.0003437 0.0002116 -0.0009251 -0.0011898 -0.0001722 -0.0012550 0.0001073 -0.0001080 0.0002874 -0.0000193 -0.0000263 0.0009353 0.0000061 0.0006152 0.0003480 0.0009090
0.0024868 0.0034838 0.0022397 0.0029989 0.0003732 0.0002706 -0.0009057 -0.0011338 -0.0001671 -0.0011832 0.0001192 -0.0000268 0.0003095 0.0000849 -0.0000247 0.0010351 0.0000340 0.0007382 0.0003816 0.0011748
0.0025156 0.0036569 0.0022407 0.0031018 0.0003994 0.0004505 -0.0009057 -0.0010298 -0.0001802 -0.0010618 0.0001069 0.0000865 0.0003049 0.0002173 -0.0000172 0.0011844 0.0000503 0.0009024 0.0003844 0.0014888
0.0024832 0.0039070 0.0022232 0.0032426 0.0003920 0.0006615 -0.0009334 -0.0009158 -0.0002102 -0.0009249 0.0000789 0.0002333 0.0002798 0.0003401 -0.0000209 0.0012624 0.0000405 0.0009610 0.0003472 0.0015621
0.0024395 0.0039242 0.0022045 0.0032261 0.0003534 0.0006606 -0.0009660 -0.0009373 -0.0002510 -0.0009974 0.0000417 0.0001414 0.0002402 0.0002355 -0.0000535 0.0011060 0.0000097 0.0007793 0.0003035 0.0012105
0.0024035 0.0035953 0.0021944 0.0030357 0.0003213 0.0004352 -0.0009804 -0.0010593 -0.0002627 -0.0011764 0.0000315 -0.0000763 0.0002278 0.0000542 -0.0000442 0.0009430 -0.0000030 0.0006135 0.0002994 0.0008524
0.0024105 0.0034376 0.0021939 0.0029413 0.0003311 0.0003479 -0.0009522 -0.0010378 -0.0002261 -0.0011213 0.0000699 -0.0000055 0.0002517 0.0000648 -0.0000309 0.0009427 0.0000119 0.0006324 0.0003025 0.0008157
0.0024450 0.0036046 0.0021945 0.0029971 0.0003485 0.0004481 -0.0009187 -0.0009265 -0.0001986 -0.0009407 0.0001044 0.0002072 0.0002610 0.0001366 -0.0000526 0.0009651 0.0000306 0.0007312 0.0002838 0.0009488
0.0024302 0.0038669 0.0021822 0.0031020 0.0003394 0.0005827 -0.0009184 -0.0008071 -0.0002023 -0.0007653 0.0001114 0.0004434 0.0002351 0.0001877 -0.0000780 0.0009950 0.0000277 0.0008656 0.0002382 0.0011132
0.0024210 0.0041268 0.0021596 0.0032260 0.0003122 0.0007423 -0.0009350 -0.0006875 -0.0002262 -0.0006368 0.0001042 0.0006134 0.0001916 0.0001435 -0.0001117 0.0008675 -0.0000070 0.0007812 0.0001765 0.0009103
0.0024095 0.0040052 0.0021352 0.0031240 0.0002607 0.0006261 -0.0009608 -0.0007627 -0.0002620 -0.0007758 0.0000806 0.0004679 0.0001455 -0.0000827 -0.0001221 0.0006064 -0.0000458 0.0005081 0.0001417 0.0003884
0.0023772 0.0036281 0.0021233 0.0028869 0.0002360 0.0003461 -0.0009626 -0.0009096 -0.0002680 -0.0009764 0.0000730 0.0002495 0.0001303 -0.0002579 -0.0001149 0.0005312 -0.0000510 0.0003871 0.0001536 0.0001624
0.0024102 0.0035139 0.0021323 0.0028497 0.0002683 0.0003302 -0.0009340 -0.0008851 -0.0002472 -0.0009451 0.0000876 0.0002661 0.0001517 -0.0002099 -0.0000957 0.0006236 -0.0000291 0.0004567 0.0001783 0.0003074
0.0024527 0.0036629 0.0021325 0.0029381 0.0002900 0.0004654 -0.0009156 -0.0007878 -0.0002435 -0.0008287 0.0000882 0.0003957 0.0001538 -0.0001017 -0.0000808 0.0007368 -0.0000142 0.0006047 0.0001702 0.0005417
0.0024376 0.0038975 0.0021195 0.0030618 0.0002747 0.0006373 -0.0009309 -0.0006765 -0.0002615 -0.0006799 0.0000679 0.0005694 0.0001276 0.0000155 -0.0000823 0.0008558 -0.0000164 0.0007763 0.0001314 0.0007753
0.0023952 0.0041326 0.0021065 0.0031982 0.0002464 0.0008260 -0.0009673 -0.0005572 -0.0002927 -0.0005185 0.0000313 0.0007686 0.0000867 0.0001562 -0.0001118 0.0010206 -0.0000297 0.0009643 0.0000667 0.0010580
0.0023336 0.0043950 0.0020790 0.0033632 0.0002078 0.0010425 -0.0010081 -0.0004315 -0.0003412 -0.0003795 -0.0000176 0.0008927 0.0000397 0.0002261 -0.0001762 0.0011100 -0.0000622 0.0009176 -0.0000131 0.0009793
0.0022673 0.0043169 0.0020404 0.0032951 0.0001531 0.0009582 -0.0010509 -0.0004793 -0.0003911 -0.0004918 -0.0000711 0.0007029 -0.0000109 0.0000775 -0.0002109 0.0009786 -0.0001041 0.0006685 -0.0000634 0.0005781
0.0022129 0.0039629 0.0020131 0.0030818 0.0001162 0.0006938 -0.0010640 -0.0006198 -0.0004088 -0.0006798 -0.0000930 0.0004766 -0.0000249 -0.0000318 -0.0002002 0.0009043 -0.0001128 0.0005898 -0.0000437 0.0005241
0.0021775 0.0039115 0.0020058 0.0030619 0.0001190 0.0007065 -0.0010584 -0.0006016 -0.0004106 -0.0006483 -0.0000930 0.0004995 0.0000013 0.0000866 -0.0001881 0.0010011 -0.0000917 0.0006897 0.0000018 0.0008217
0.0021863 0.0040741 0.0020030 0.0031606 0.0001310 0.0009020 -0.0010708 -0.0005006 -0.0004295 -0.0005290 -0.0001107 0.0005945 0.0000180 0.0002627 -0.0001757 0.0011688 -0.0000659 0.0008521 0.0000228 0.0012082
0.0021773 0.0042930 0.0019907 0.0032929 0.0001201 0.0011437 -0.0010985 -0.0003880 -0.0004643 -0.0003882 -0.0001454 0.0007177 0.0000123 0.0004435 -0.0001812 0.0013278 -0.0000567 0.0010295 0.0000114 0.0015904
0.0021227 0.0045160 0.0019687 0.0034472 0.0000810 0.0013577 -0.0011409 -0.0002442 -0.0005048 -0.0002169 -0.0001908 0.0008852 -0.0000141 0.0006430 -0.0002049 0.0014676 -0.0000566 0.0012343 -0.0000222 0.0019672
0.0020892 0.0047167 0.0019419 0.0035864 0.0000345 0.0015364 -0.0011846 -0.0001049 -0.0005526 -0.0001043 -0.0002489 0.0008883 -0.0000666 0.0006626 -0.0002349 0.0014135 -0.0000811 0.0011200 -0.0000633 0.0018061
0.0020414 0.0044803 0.0019141 0.0034547 -0.0000250 0.0013753 -0.0012294 -0.0001647 -0.0005931 -0.0002409 -0.0002990 0.0005958 -0.0001151 0.0004662 -0.0002358 0.0011786 -0.0001112 0.0008087 -0.0000653 0.0013188
0.0020017 0.0040097 0.0019011 0.0032189 -0.0000524 0.0010695 -0.0012496 -0.0002788 -0.0006002 -0.0003861 -0.0003084 0.0003872 -0.0001205 0.0003766 -0.0002317 0.0011169 -0.0001049 0.0007371 -0.0000226 0.0012304
0.0020064 0.0038990 0.0019105 0.0031897 -0.0000257 0.0010507 -0.0012401 -0.0002305 -0.0005909 -0.0003253 -0.0003007 0.0004235 -0.0001054 0.0004675 -0.0002226 0.0011902 -0.0000824 0.0008390 0.0000150 0.0014391
0.0020001 0.0040152 0.0019151 0.0032766 -0.0000150 0.0011875 -0.0012434 -0.0001156 -0.0005964 -0.0001996 -0.0003103 0.0005252 -0.0001042 0.0006112 -0.0002167 0.0013408 -0.0000651 0.0010085 0.0000243 0.0017446
0.0019732 0.0042305 0.0019073 0.0034022 -0.0000350 0.0013733 -0.0012753 0.0000084 -0.0006230 -0.0000552 -0.0003356 0.0006639 -0.0001263 0.0007636 -0.0002319 0.0015234 -0.0000615 0.0011444 0.0000060 0.0019500
0.0019454 0.0043349 0.0018937 0.0034203 -0.0000650 0.0014228 -0.0013116 0.0000214 -0.0006634 -0.0000858 -0.0003750 0.0005625 -0.0001688 0.0006782 -0.0002464 0.0014245 -0.0000835 0.0009561 -0.0000078 0.0016443
0.0019134 0.0040223 0.0018834 0.0032161 -0.0001006 0.0011826 -0.0013382 -0.0001230 -0.0006861 -0.0003119 -0.0003940 0.0002279 -0.0001876 0.0004407 -0.0002379 0.0011904 -0.0000975 0.0006464 0.0000271 0.0011693
0.0019377 0.0036140 0.0018954 0.0030289 -0.0000877 0.0009516 -0.0013312 -0.0001942 -0.0006604 -0.0004131 -0.0003642 0.0000948 -0.0001538 0.0004209 -0.0001892 0.0011311 -0.0000757 0.0006057 0.0000955 0.0011126
0.0020015 0.0035541 0.0019170 0.0030429 -0.0000279 0.0009745 -0.0012885 -0.0001239 -0.0006173 -0.0003396 -0.0003263 0.0001707 -0.0001083 0.0005320 -0.0001478 0.0012051 -0.0000457 0.0007002 0.0001415 0.0012781
0.0019988 0.0037186 0.0019270 0.0031246 0.0000048 0.0010976 -0.0012656 -0.0000373 -0.0006003 -0.0002342 -0.0003100 0.0003019 -0.0000948 0.0006349 -0.0001427 0.0013254 -0.0000308 0.0008434 0.0001304 0.0014432
0.0020146 0.0039282 0.0019170 0.0032172 0.0000092 0.0012402 -0.0012587 0.0000570 -0.0006064 -0.0001135 -0.0003056 0.0005036 -0.0001136 0.0006896 -0.0001688 0.0013084 -0.0000471 0.0008278 0.0000634 0.0012611
0.0020373 0.0039661 0.0018880 0.0031511 -0.0000206 0.0011865 -0.0012693 -0.0000040 -0.0006191 -0.0002122 -0.0003081 0.0004230 -0.0001507 0.0004748 -0.0001988 0.0010496 -0.0000838 0.0005378 0.0000211 0.0007049
0.0020398 0.0036592 0.0018713 0.0029038 -0.0000523 0.0008852 -0.0012762 -0.0001970 -0.0006030 -0.0004672 -0.0002887 0.0001381 -0.0001435 0.0002016 -0.0002055 0.0007832 -0.0000933 0.0003012 0.0000574 0.0003334
0.0020809 0.0033460 0.0018924 0.0027735 -0.0000125 0.0007100 -0.0012230 -0.0002222 -0.0005357 -0.0005031 -0.0002287 0.0001272 -0.0000781 0.0002078 -0.0001925 0.0007169 -0.0000703 0.0003224 0.0001192 0.0003718
0.0021051 0.0033647 0.0019161 0.0028202 0.0000406 0.0007414 -0.0011610 -0.0001071 -0.0004637 -0.0003539 -0.0001738 0.0002856 -0.0000244 0.0003404 -0.0001802 0.0007826 -0.0000453 0.0004536 0.0001478 0.0005529
0.0021060 0.0035087 0.0019167 0.0029169 0.0000478 0.0008271 -0.0011435 -0.0000120 -0.0004402 -0.0002020 -0.0001562 0.0004635 -0.0000147 0.0004659 -0.0001819 0.0008831 -0.0000317 0.0006138 0.0001247 0.0007232
0.0020918 0.0037183 0.0019066 0.0030354 0.0000329 0.0009690 -0.0011607 0.0000484 -0.0004580 -0.0000934 -0.0001597 0.0006794 -0.0000408 0.0005520 -0.0002173 0.0009569 -0.0000435 0.0006511 0.0000604 0.0006561
0.0020639 0.0038205 0.0018861 0.0030153 0.0000022 0.0009651 -0.0011944 -0.0000223 -0.0004793 -0.0001720 -0.0001669 0.0006433 -0.0000853 0.0003866 -0.0002529 0.0008183 -0.0000771 0.0004214 0.0000004 0.0001832
0.0020630 0.0035742 0.0018692 0.0028121 -0.0000289 0.0007154 -0.0011969 -0.0001836 -0.0004633 -0.0003533 -0.0001418 0.0004563 -0.0000910 0.0001388 -0.0002437 0.0006082 -0.0000988 0.0002017 -0.0000026 -0.0002188
0.0020760 0.0033669 0.0018751 0.0027031 -0.0000113 0.0005781 -0.0011499 -0.0002212 -0.0004044 -0.0003532 -0.0000840 0.0005072 -0.0000350 0.0001615 -0.0002339 0.0006722 -0.0000856 0.0002067 0.0000408 -0.0001692
0.0020808 0.0034980 0.0018827 0.0027502 0.0000311 0.0006674 -0.0010965 -0.0001264 -0.0003502 -0.0002318 -0.0000320 0.0006713 0.0000201 0.0002788 -0.0002270 0.0007864 -0.0000605 0.0003076 0.0000639 0.0000586
0.0021092 0.0036979 0.0018734 0.0028286 0.0000396 0.0008070 -0.0010616 -0.0000004 -0.0003141 -0.0000557 -0.0000052 0.0008395 0.0000429 0.0003428 -0.0002014 0.0008405 -0.0000633 0.0003001 0.0000278 -0.0000196
0.0021196 0.0036398 0.0018577 0.0027468 0.0000089 0.0007182 -0.0010465 -0.0000358 -0.0002389 -0.0000426 0.0000122 0.0007292 0.0000476 0.0001280 -0.0001728 0.0007472 -0.0000956 0.0000273 -0.0000170 -0.0005898
0.0020915 0.0031526 0.0018511 0.0024968 -0.0000402 0.0003326 -0.0009519 -0.0001022 -0.0000966 -0.0000332 0.0000364 0.0004448 0.0000599 -0.0001682 -0.0001140 0.0006539 -0.0001183 -0.0002312 -0.0000221 -0.0010752
0.0020902 0.0027357 0.0018506 0.0023284 -0.0000585 0.0000309 -0.0008687 -0.0002538 0.0000227 -0.0000863 0.0000689 0.0002506 0.0000235 -0.0005899 -0.0000477 0.0006647 -0.0001449 -0.0004090 -0.0000348 -0.0012353
0.0020545 0.0026587 0.0017817 0.0021852 -0.0000462 0.0000672 -0.0008440 -0.0003810 0.0000057 0.0000425 0.0000123 0.0002932 0.0000182 -0.0006203 0.0000068 0.0008413 -0.0001505 -0.0003934 -0.0000368 -0.0011364
0.0019573 0.0026923 0.0016680 0.0021575 -0.0000340 0.0002823 -0.0007877 -0.0002328 -0.0000654 0.0003091 -0.0000627 0.0005106 0.0000418 -0.0003776 -0.0001064 0.0001456 -0.0001864 -0.0004670 -0.0003818 -0.0022476
0.0015563 0.0014444 0.0015641 0.0021329 -0.0000535 0.0000527 -0.0006074 -0.0003538 -0.0002934 -0.0005741 -0.0001385 0.0001465 -0.0000692 -0.0009426 -0.0003255 -0.0013529 -0.0002791 -0.0008756 -0.0007465 -0.0038215
0.0011310 -0.0003519 0.0015710 0.0020736 -0.0000787 -0.0005028 -0.0004473 -0.0006664 -0.0005077 -0.0015743 -0.0002313 -0.0005045 -0.0001550 -0.0015014 -0.0003558 -0.0019352 -0.0003037 -0.0010603 -0.0007165 -0.0040768
0.0010957 -0.0008150 0.0016333 0.0020970 -0.0000749 -0.0008077 -0.0004341 -0.0008634 -0.0005051 -0.0017413 -0.0002063 -0.0005736 -0.0001264 -0.0015275 -0.0003559 -0.0020435 -0.0002929 -0.0010543 -0.0007547 -0.0042819
0.0010912 -0.0008295 0.0016268 0.0021191 -0.0000579 -0.0008345 -0.0003929 -0.0009264 -0.0004983 -0.0018163 -0.0001576 -0.0003404 -0.0001051 -0.0014852 -0.0003808 -0.0021084 -0.0003066 -0.0010168 -0.0008634 -0.0044946
0.0010334 -0.0007242 0.0016153 0.0022239 -0.0000434 -0.0006868 -0.0003412 -0.0008039 -0.0004709 -0.0016956 -0.0001601 -0.0002274 -0.0001017 -0.0014355 -0.0003107 -0.0017952 -0.0003319 -0.0010697 -0.0009505 -0.0046963
0.0010618 -0.0007329 0.0016103 0.0021993 -0.0000602 -0.0007173 -0.0002985 -0.0007351 -0.0004387 -0.0016526 -0.0001938 -0.0004623 -0.0001061 -0.0014510 -0.0002109 -0.0014638 -0.0003456 -0.0012474 -0.0009437 -0.0049195
0.0011600 -0.0007773 0.0016346 0.0020995 -0.0000674 -0.0008914 -0.0002669 -0.0008262 -0.0004064 -0.0017778 -0.0001923 -0.0007265 -0.0000902 -0.0015125 -0.0001240 -0.0013735 -0.0003322 -0.0013091 -0.0008662 -0.0048475
0.0012630 -0.0005903 0.0016745 0.0021583 -0.0000400 -0.0008995 -0.0002594 -0.0009371 -0.0003737 -0.0018005 -0.0001548 -0.0006723 -0.0000483 -0.0014581 -0.0000824 -0.0012853 -0.0003012 -0.0012358 -0.0007575 -0.0043919
0.0014051 -0.0002279 0.0017257 0.0023253 -0.0000041 -0.0007265 -0.0002678 -0.0009339 -0.0003264 -0.0016251 -0.0001236 -0.0004832 0.0000011 -0.0012576 -0.0000744 -0.0009162 -0.0002596 -0.0010672 -0.0006197 -0.0036597
0.0015000 0.0003077 0.0017739 0.0025175 0.0000229 -0.0004089 -0.0002868 -0.0008002 -0.0002539 -0.0012886 -0.0001053 -0.0002772 0.0000483 -0.0010500 -0.0000375 -0.0004966 -0.0002398 -0.0010176 -0.0005315 -0.0033301
0.0015579 0.0005205 0.0017869 0.0024990 0.0000180 -0.0003102 -0.0003190 -0.0007771 -0.0002014 -0.0011910 -0.0001048 -0.0003804 0.0000635 -0.0010879 0.0000331 -0.0004134 -0.0002467 -0.0011649 -0.0004999 -0.0035070
0.0016001 0.0003783 0.0017900 0.0023261 0.0000091 -0.0004742 -0.0003490 -0.0009196 -0.0001839 -0.0013448 -0.0001011 -0.0006113 0.0000663 -0.0012092 0.0000728 -0.0003491 -0.0002385 -0.0012237 -0.0004658 -0.0035387
0.0016508 0.0004342 0.0017989 0.0022954 0.0000195 -0.0005106 -0.0003616 -0.0009644 -0.0001723 -0.0013601 -0.0000891 -0.0006069 0.0000774 -0.0011929 0.0000869 -0.0001800 -0.0002194 -0.0011427 -0.0004418 -0.0033594
0.0016895 0.0006512 0.0018034 0.0023787 0.0000378 -0.0003904 -0.0003557 -0.0008675 -0.0001574 -0.0012113 -0.0000872 -0.0004651 0.0000869 -0.0010734 0.0001212 -0.0000145 -0.0002089 -0.0009966 -0.0004519 -0.0031121
0.0016569 0.0009241 0.0018001 0.0025031 0.0000405 -0.0001944 -0.0003494 -0.0007134 -0.0001544 -0.0010087 -0.0000955 -0.0002537 0.0000936 -0.0008894 0.0001095 0.0001864 -0.0002039 -0.0008849 -0.0004760 -0.0029313
0.0015974 0.0010878 0.0017817 0.0025259 0.0000235 -0.0001145 -0.0003601 -0.0006555 -0.0001681 -0.0009883 -0.0001163 -0.0003166 0.0000758 -0.0009218 0.0000894 0.0001634 -0.0002256 -0.0010004 -0.0004952 -0.0031171
0.0015935 0.0009176 0.0017659 0.0023973 0.0000086 -0.0002443 -0.0003495 -0.0006961 -0.0001606 -0.0010872 -0.0001282 -0.0005484 0.0000660 -0.0010656 0.0001160 0.0000972 -0.0002389 -0.0011443 -0.0004816 -0.0032875
0.0016337 0.0007979 0.0017693 0.0023307 0.0000130 -0.0003129 -0.0003504 -0.0007007 -0.0001450 -0.0011018 -0.0001165 -0.0005593 0.0000866 -0.0010361 0.0001301 0.0001385 -0.0002208 -0.0010820 -0.0004220 -0.0030572
0.0016699 0.0010376 0.0017816 0.0024142 0.0000241 -0.0001822 -0.0003815 -0.0006410 -0.0001522 -0.0010144 -0.0001112 -0.0004387 0.0001013 -0.0009309 0.0001139 0.0001726 -0.0002039 -0.0009325 -0.0003679 -0.0026704
0.0017405 0.0013789 0.0017864 0.0025618 0.0000343 0.0000677 -0.0003959 -0.0005157 -0.0001557 -0.0008617 -0.0001186 -0.0003204 0.0001008 -0.0008407 0.0001058 0.0002782 -0.0002053 -0.0009248 -0.0003596 -0.0025707
0.0017835 0.0014090 0.0017800 0.0025186 0.0000283 0.0000901 -0.0004159 -0.0005223 -0.0001602 -0.0009176 -0.0001305 -0.0004542 0.0000927 -0.0009173 0.0001381 0.0002184 -0.0002133 -0.0010757 -0.0003459 -0.0027909
0.0018174 0.0011671 0.0017832 0.0023402 0.0000237 -0.0000824 -0.0004297 -0.0006066 -0.0001485 -0.0010513 -0.0001278 -0.0006466 0.0001011 -0.0010073 0.0001535 0.0001967 -0.0001997 -0.0011194 -0.0002931 -0.0028152
0.0018747 0.0012050 0.0017983 0.0023103 0.0000476 -0.0000963 -0.0004444 -0.0006226 -0.0001457 -0.0010789 -0.0001264 -0.0006774 0.0001210 -0.0009612 0.0001599 0.0004003 -0.0001704 -0.0010073 -0.0002151 -0.0024941
0.0020404 0.0018553 0.0018863 0.0025260 0.0001809 0.0003644 -0.0004852 -0.0005467 -0.0002008 -0.0010901 -0.0001537 -0.0006765 0.0001299 -0.0008284 0.0002054 0.0006217 -0.0001388 -0.0008162 -0.0001560 -0.0020754
0.0022784 0.0028247 0.0020547 0.0029261 0.0003506 0.0009911 -0.0005148 -0.0003717 -0.0002480 -0.0010742 -0.0001822 -0.0007435 0.0001251 -0.0007965 0.0002250 0.0006244 -0.0001417 -0.0008482 -0.0001468 -0.0021386
0.0023742 0.0030332 0.0021519 0.0030066 0.0003783 0.0009810 -0.0005153 -0.0003645 -0.0002334 -0.0011437 -0.0001923 -0.0009665 0.0001200 -0.0009352 0.0002116 0.0005017 -0.0001571 -0.0010492 -0.0001188 -0.0024553
0.0023652 0.0026717 0.0021667 0.0028432 0.0003564 0.0006831 -0.0005223 -0.0005069 -0.0002121 -0.0012706 -0.0001814 -0.0011210 0.0001355 -0.0009879 0.0002187 0.0005273 -0.0001421 -0.0010714 -0.0000568 -0.0024201
0.0023848 0.0025736 0.0021766 0.0028323 0.0003627 0.0006269 -0.0005363 -0.0005601 -0.0001974 -0.0012586 -0.0001624 -0.0010695 0.0001706 -0.0008968 0.0002354 0.0005472 -0.0001148 -0.0009670 0.0000255 -0.0021352
0.0023978 0.0026424 0.0022042 0.0029463 0.0003680 0.0006937 -0.0005614 -0.0004957 -0.0001573 -0.0010909 -0.0001298 -0.0008324 0.0002188 -0.0007018 0.0002099 0.0005242 -0.0000877 -0.0007943 0.0001014 -0.0017524
0.0024169 0.0028631 0.0022330 0.0031440 0.0004055 0.0009519 -0.0005761 -0.0003522 -0.0001356 -0.0008831 -0.0000944 -0.0005023 0.0002406 -0.0006226 0.0001616 0.0004107 -0.0000812 -0.0007259 0.0001043 -0.0017327
0.0024730 0.0029852 0.0022305 0.0031358 0.0004200 0.0010164 -0.0005786 -0.0004084 -0.0001489 -0.0009266 -0.0000945 -0.0005131 0.0002115 -0.0008655 0.0001196 0.0001262 -0.0001061 -0.0009089 0.0000700 -0.0020913
0.0024668 0.0027337 0.0022130 0.0029074 0.0003644 0.0006623 -0.0005876 -0.0006311 -0.0001248 -0.0010924 -0.0000832 -0.0007125 0.0002198 -0.0010587 0.0001122 0.0000212 -0.0001107 -0.0010356 0.0000834 -0.0021812
0.0024880 0.0024975 0.0022072 0.0028187 0.0003636 0.0005288 -0.0005390 -0.0005761 -0.0000584 -0.0010100 -0.0000480 -0.0006986 0.0002698 -0.0009641 0.0001630 0.0001952 -0.0000809 -0.0009436 0.0001232 -0.0019343
0.0025223 0.0025918 0.0022074 0.0028782 0.0003969 0.0006602 -0.0005169 -0.0004517 -0.0000433 -0.0009004 -0.0000440 -0.0006164 0.0002815 -0.0008173 0.0001881 0.0004095 -0.0000586 -0.0008046 0.0001302 -0.0016673
0.0024974 0.0027781 0.0022033 0.0029688 0.0003912 0.0007845 -0.0005479 -0.0003960 -0.0000665 -0.0008244 -0.0000598 -0.0004941 0.0002650 -0.0007160 0.0001947 0.0004731 -0.0000631 -0.0007723 0.0001041 -0.0016759
0.0024726 0.0027478 0.0021955 0.0029270 0.0003664 0.0007165 -0.0005566 -0.0003975 -0.0000695 -0.0008451 -0.0000692 -0.0005511 0.0002486 -0.0007876 0.0001950 0.0003697 -0.0000789 -0.0009109 0.0000901 -0.0019974
0.0024596 0.0025095 0.0021937 0.0027464 0.0003501 0.0004906 -0.0005395 -0.0004835 -0.0000376 -0.0009375 -0.0000614 -0.0007250 0.0002542 -0.0009311 0.0001980 0.0003121 -0.0000744 -0.0010212 0.0001091 -0.0021767
0.0024598 0.0024151 0.0022023 0.0026784 0.0003552 0.0003844 -0.0005348 -0.0005278 -0.0000068 -0.0009264 -0.0000392 -0.0007197 0.0002699 -0.0009105 0.0002371 0.0003566 -0.0000562 -0.0009691 0.0001311 -0.0020570
0.0024751 0.0025246 0.0022106 0.0027439 0.0003641 0.0004117 -0.0005306 -0.0004964 0.0000074 -0.0008302 -0.0000252 -0.0005954 0.0002796 -0.0007818 0.0002596 0.0004663 -0.0000376 -0.0008323 0.0001321 -0.0018190
0.0024718 0.0027157 0.0022097 0.0028606 0.0003683 0.0005373 -0.0005077 -0.0003781 0.0000206 -0.0006795 -0.0000287 -0.0004660 0.0002816 -0.0006891 0.0002504 0.0005417 -0.0000443 -0.0008315 0.0001143 -0.0018392
0.0024500 0.0026506 0.0021965 0.0027949 0.0003492 0.0004725 -0.0005124 -0.0004219 0.0000166 -0.0007709 -0.0000466 -0.0006215 0.0002682 -0.0008098 0.0002494 0.0004341 -0.0000665 -0.0010253 0.0001079 -0.0021739
0.0024543 0.0023103 0.0021923 0.0025797 0.0003442 0.0002353 -0.0004969 -0.0005814 0.0000340 -0.0009802 -0.0000492 -0.0008786 0.0002751 -0.0009736 0.0002839 0.0003183 -0.0000593 -0.0011317 0.0001367 -0.0022863
0.0024822 0.0021937 0.0022036 0.0025136 0.0003690 0.0001533 -0.0004827 -0.0006700 0.0000504 -0.0010435 -0.0000353 -0.0009174 0.0003007 -0.0009644 0.0003219 0.0003558 -0.0000336 -0.0010700 0.0001777 -0.0020969
0.0025520 0.0023032 0.0022135 0.0025805 0.0003903 0.0002335 -0.0004840 -0.0006512 0.0000517 -0.0009759 -0.0000303 -0.0008363 0.0003168 -0.0008532 0.0003343 0.0004987 -0.0000142 -0.0009340 0.0001922 -0.0018144
0.0025815 0.0025030 0.0022149 0.0026975 0.0004056 0.0004041 -0.0004693 -0.0005283 0.0000584 -0.0008180 -0.0000412 -0.0006960 0.0003234 -0.0006885 0.0003484 0.0007040 -0.0000011 -0.0007542 0.0001762 -0.0014673
0.0025568 0.0027797 0.0022053 0.0028214 0.0004041 0.0005787 -0.0004809 -0.0004490 0.0000425 -0.0007486 -0.0000679 -0.0006730 0.0003040 -0.0006741 0.0003489 0.0006812 -0.0000181 -0.0008200 0.0001402 -0.0015508
0.0025215 0.0026346 0.0021878 0.0026982 0.0003711 0.0004176 -0.0005027 -0.0005733 0.0000318 -0.0009019 -0.0000870 -0.0008848 0.0002857 -0.0008562 0.0003290 0.0004618 -0.0000471 -0.0010757 0.0001209 -0.0019463
0.0024987 0.0022328 0.0021835 0.0024791 0.0003702 0.0001491 -0.0004619 -0.0006846 0.0000674 -0.0010208 -0.0000751 -0.0010612 0.0003052 -0.0009569 0.0003288 0.0004018 -0.0000397 -0.0011321 0.0001448 -0.0019791
0.0024958 0.0022130 0.0021887 0.0024746 0.0004033 0.0001604 -0.0004341 -0.0006900 0.0000864 -0.0010135 -0.0000569 -0.0010285 0.0003272 -0.0008979 0.0003315 0.0004988 -0.0000128 -0.0010312 0.0001717 -0.0017502
0.0024994 0.0024083 0.0021949 0.0025595 0.0004129 0.0002788 -0.0004448 -0.0006746 0.0000756 -0.0009515 -0.0000596 -0.0009047 0.0003343 -0.0007657 0.0003505 0.0006190 0.0000078 -0.0008827 0.0001735 -0.0014283
0.0025087 0.0026319 0.0021952 0.0026901 0.0004108 0.0004638 -0.0004519 -0.0005636 0.0000662 -0.0007818 -0.0000707 -0.0007224 0.0003311 -0.0005968 0.0003762 0.0007401 0.0000180 -0.0006940 0.0001475 -0.0010781
0.0024858 0.0028992 0.0021817 0.0028475 0.0003975 0.0006566 -0.0004937 -0.0004666 0.0000370 -0.0006143 -0.0000935 -0.0004991 0.0003148 -0.0004129 0.0003619 0.0009101 0.0000145 -0.0005279 0.0001044 -0.0008131
0.0024631 0.0030548 0.0021543 0.0028742 0.0003599 0.0007023 -0.0005439 -0.0005117 -0.0000121 -0.0006674 -0.0001468 -0.0005975 0.0002601 -0.0004994 0.0003374 0.0008732 -0.0000158 -0.0006638 0.0000499 -0.0010073
0.0024147 0.0028120 0.0021228 0.0026889 0.0003181 0.0004810 -0.0005701 -0.0006919 -0.0000341 -0.0008912 -0.0001839 -0.0009318 0.0002266 -0.0007256 0.0003401 0.0006859 -0.0000384 -0.0009003 0.0000309 -0.0012852
0.0024110 0.0025264 0.0021181 0.0025582 0.0003234 0.0003226 -0.0005399 -0.0007458 -0.0000000 -0.0009141 -0.0001663 -0.0009935 0.0002623 -0.0007026 0.0003653 0.0007108 -0.0000229 -0.0008856 0.0000546 -0.0011865
0.0024453 0.0025773 0.0021273 0.0026118 0.0003529 0.0004274 -0.0004964 -0.0006400 0.0000286 -0.0007753 -0.0001426 -0.0008441 0.0002946 -0.0005560 0.0003684 0.0008720 -0.0000023 -0.0007468 0.0000588 -0.0009357
0.0024314 0.0027901 0.0021284 0.0027284 0.0003525 0.0005973 -0.0005157 -0.0005512 0.0000138 -0.0006391 -0.0001464 -0.0006539 0.0002878 -0.0004018 0.0003516 0.0010269 0.0000118 -0.0005695 0.0000355 -0.0006232
0.0024333 0.0030311 0.0021216 0.0028685 0.0003223 0.0007615 -0.0005797 -0.0005017 -0.0000238 -0.0005073 -0.0001665 -0.0004388 0.0002498 -0.0002682 0.0003379 0.0010857 0.0000085 -0.0004763 -0.0000086 -0.0005064
0.0024272 0.0030855 0.0021011 0.0028665 0.0002742 0.0007468 -0.0006331 -0.0005657 -0.0000558 -0.0005474 -0.0001859 -0.0004640 0.0002077 -0.0003646 0.0003189 0.0009123 -0.0000173 -0.0006188 -0.0000443 -0.0007251
0.0023875 0.0028614 0.0020863 0.0026968 0.0002395 0.0005226 -0.0006542 -0.0007041 -0.0000534 -0.0006870 -0.0001813 -0.0006318 0.0002025 -0.0005135 0.0002969 0.0007763 -0.0000289 -0.0007616 -0.0000377 -0.0008826
0.0023756 0.0027086 0.0020913 0.0026301 0.0002505 0.0004267 -0.0006360 -0.0007144 -0.0000208 -0.0006498 -0.0001539 -0.0005861 0.0002343 -0.0004377 0.0003147 0.0008279 -0.0000176 -0.0006935 -0.0000256 -0.0007312
0.0023791 0.0028232 0.0020986 0.0027171 0.0002740 0.0005332 -0.0006121 -0.0006234 0.0000014 -0.0005017 -0.0001355 -0.0004178 0.0002520 -0.0002930 0.0003208 0.0009416 -0.0000024 -0.0005465 -0.0000373 -0.0004675
0.0023623 0.0030335 0.0020950 0.0028444 0.0002638 0.0006784 -0.0006220 -0.0005453 -0.0000060 -0.0003498 -0.0001419 -0.0002177 0.0002359 -0.0001452 0.0003033 0.0010687 0.0000026 -0.0004058 -0.0000667 -0.0002665
0.0023335 0.0031646 0.0020799 0.0028697 0.0002304 0.0007023 -0.0006574 -0.0005759 -0.0000403 -0.0003823 -0.0001715 -0.0002741 0.0001906 -0.0002258 0.0002858 0.0009771 -0.0000241 -0.0005314 -0.0001011 -0.0004845
0.0023015 0.0029372 0.0020663 0.0026945 0.0001935 0.0004870 -0.0006862 -0.0007318 -0.0000553 -0.0005795 -0.0001860 -0.0005309 0.0001706 -0.0004128 0.0002705 0.0008208 -0.0000439 -0.0007485 -0.0000971 -0.0008051
0.0023432 0.0026288 0.0020710 0.0025622 0.0002010 0.0003191 -0.0006660 -0.0007883 -0.0000256 -0.0006263 -0.0001641 -0.0005824 0.0002028 -0.0003825 0.0002913 0.0008372 -0.0000267 -0.0007345 -0.0000647 -0.0007439
0.0023903 0.0026530 0.0020867 0.0026083 0.0002454 0.0003892 -0.0006288 -0.0006996 0.0000047 -0.0005179 -0.0001404 -0.0004568 0.0002322 -0.0002425 0.0003154 0.0009200 -0.0000064 -0.0006054 -0.0000427 -0.0005004
0.0023874 0.0028603 0.0020911 0.0027165 0.0002620 0.0005436 -0.0006273 -0.0006171 0.0000059 -0.0003957 -0.0001411 -0.0002944 0.0002268 -0.0001030 0.0003191 0.0010370 0.0000053 -0.0004342 -0.0000527 -0.0002314
0.0024043 0.0030857 0.0020832 0.0028266 0.0002542 0.0006825 -0.0006544 -0.0005790 -0.0000205 -0.0003525 -0.0001646 -0.0002619 0.0001855 -0.0001201 0.0002906 0.0010122 -0.0000159 -0.0004992 -0.0000939 -0.0003917
0.0023929 0.0029064 0.0020700 0.0026987 0.0002242 0.0005124 -0.0006825 -0.0007108 -0.0000381 -0.0005195 -0.0001808 -0.0004733 0.0001566 -0.0003036 0.0002947 0.0007865 -0.0000422 -0.0007470 -0.0000974 -0.0008230
0.0023625 0.0025341 0.0020683 0.0024852 0.0002211 0.0002303 -0.0006603 -0.0008512 -0.0000066 -0.0006617 -0.0001560 -0.0006271 0.0001873 -0.0003643 0.0003271 0.0007244 -0.0000309 -0.0007971 -0.0000514 -0.0008872
0.0023867 0.0024927 0.0020847 0.0024813 0.0002632 0.0002316 -0.0006036 -0.0007966 0.0000442 -0.0005918 -0.0001173 -0.0005479 0.0002315 -0.0002602 0.0003316 0.0008547 -0.0000047 -0.0006798 -0.0000245 -0.0007020
0.0024073 0.0026601 0.0020944 0.0025765 0.0002899 0.0003592 -0.0005826 -0.0007084 0.0000603 -0.0004773 -0.0001059 -0.0003972 0.0002382 -0.0001364 0.0003224 0.0009814 0.0000134 -0.0005213 -0.0000290 -0.0004616
0.0023947 0.0028859 0.0020925 0.0027021 0.0002892 0.0005013 -0.0006032 -0.0006447 0.0000383 -0.0003737 -0.0001205 -0.0002253 0.0002069 -0.0000186 0.0003022 0.0010938 0.0000136 -0.0003639 -0.0000632 -0.0002685
0.0023749 0.0030344 0.0020767 0.0027451 0.0002695 0.0005556 -0.0006346 -0.0006675 -0.0000002 -0.0004249 -0.0001509 -0.0002841 0.0001537 -0.0001133 0.0002696 0.0010014 -0.0000160 -0.0004867 -0.0001025 -0.0005132
0.0023222 0.0028315 0.0020561 0.0025857 0.0002381 0.0003543 -0.0006527 -0.0008345 -0.0000157 -0.0006397 -0.0001639 -0.0005521 0.0001318 -0.0003480 0.0002566 0.0007421 -0.0000453 -0.0007621 -0.0000921 -0.0009375
0.0023390 0.0025587 0.0020550 0.0024406 0.0002844 0.0002805 -0.0006338 -0.0009716 -0.0000057 -0.0008073 -0.0001236 -0.0006277 0.0001913 -0.0003860 0.0003057 0.0006116 -0.0000254 -0.0007899 -0.0000046 -0.0008760
0.0024517 0.0027989 0.0020804 0.0025158 0.0004272 0.0006230 -0.0005714 -0.0009093 0.0000348 -0.0007445 -0.0000600 -0.0004975 0.0002737 -0.0002867 0.0003347 0.0006220 0.0000143 -0.0006678 0.0000596 -0.0006237
0.0024788 0.0031069 0.0021067 0.0026485 0.0004738 0.0007812 -0.0005069 -0.0007327 0.0000955 -0.0005103 -0.0000306 -0.0002936 0.0002933 -0.0001401 0.0003051 0.0007516 0.0000293 -0.0005066 0.0000412 -0.0004546
0.0024608 0.0031852 0.0021082 0.0027540 0.0004143 0.0007182 -0.0004811 -0.0005772 0.0001198 -0.0002859 -0.0000340 -0.0000930 0.0002717 0.0000044 0.0002918 0.0008623 0.0000144 -0.0004600 0.0000103 -0.0004427
0.0024241 0.0030708 0.0020877 0.0026843 0.0003469 0.0005060 -0.0004949 -0.0006285 0.0001260 -0.0003087 -0.0000418 -0.0002002 0.0002384 -0.0001511 0.0002681 0.0005717 -0.0000231 -0.0006775 -0.0000207 -0.0009245
0.0023666 0.0026425 0.0020624 0.0024504 0.0003141 0.0001222 -0.0004886 -0.0008328 0.0001494 -0.0005387 -0.0000108 -0.0004077 0.0002334 -0.0004789 0.0002206 0.0000619 -0.0000389 -0.0008646 -0.0000073 -0.0013711
0.0023662 0.0022931 0.0020486 0.0023472 0.0003298 -0.0001018 -0.0004586 -0.0009243 0.0001794 -0.0006112 0.0000260 -0.0003950 0.0002451 -0.0005341 0.0002129 0.0000329 -0.0000227 -0.0007585 -0.0000009 -0.0012783
0.0023251 0.0023323 0.0020294 0.0023819 0.0003026 -0.0001814 -0.0004581 -0.0009173 0.0002002 -0.0004904 0.0000311 -0.0002688 0.0002467 -0.0003677 0.0002253 0.0003574 -0.0000005 -0.0005386 -0.0000172 -0.0009772
0.0022743 0.0025461 0.0020029 0.0024769 0.0002572 -0.0001078 -0.0004665 -0.0007965 0.0002153 -0.0002761 0.0000338 -0.0000464 0.0002606 -0.0001370 0.0002548 0.0006001 0.0000187 -0.0003126 -0.0000294 -0.0006137
0.0022490 0.0027988 0.0019824 0.0026085 0.0002431 0.0000837 -0.0004762 -0.0006595 0.0002048 -0.0001639 0.0000206 0.0000285 0.0002421 -0.0000647 0.0002616 0.0006477 0.0000008 -0.0003283 -0.0000592 -0.0006708
0.0021853 0.0026964 0.0019618 0.0025152 0.0001999 -0.0000275 -0.0005162 -0.0007650 0.0001750 -0.0003136 0.0000009 -0.0001584 0.0002142 -0.0001987 0.0002267 0.0005733 -0.0000284 -0.0005308 -0.0000582 -0.0010068
0.0021585 0.0023506 0.0019480 0.0023436 0.0001717 -0.0002670 -0.0005338 -0.0009134 0.0001774 -0.0004556 0.0000063 -0.0002784 0.0002253 -0.0002414 0.0002374 0.0006005 -0.0000238 -0.0005374 -0.0000390 -0.0010269
0.0021615 0.0023616 0.0019422 0.0023798 0.0001918 -0.0002120 -0.0005108 -0.0008788 0.0001929 -0.0004013 0.0000239 -0.0001903 0.0002503 -0.0001312 0.0002546 0.0007397 -0.0000047 -0.0004031 -0.0000198 -0.0008022
0.0021344 0.0026403 0.0019305 0.0025031 0.0001965 -0.0000229 -0.0005116 -0.0007767 0.0001877 -0.0002659 0.0000229 -0.0000287 0.0002474 -0.0000064 0.0002491 0.0008750 0.0000049 -0.0002416 -0.0000316 -0.0005470
0.0021311 0.0029144 0.0019100 0.0026557 0.0001726 0.0001848 -0.0005415 -0.0006715 0.0001633 -0.0001063 0.0000030 0.0001455 0.0002161 0.0000939 0.0002358 0.0009567 -0.0000064 -0.0002172 -0.0000661 -0.0005279
0.0021001 0.0029275 0.0018813 0.0026353 0.0001262 0.0001909 -0.0005854 -0.0006910 0.0001242 -0.0001755 -0.0000329 0.0000321 0.0001770 0.0000127 0.0002320 0.0008837 -0.0000363 -0.0003568 -0.0000743 -0.0007723
0.0020576 0.0027421 0.0018605 0.0025090 0.0001007 0.0000619 -0.0006144 -0.0007663 0.0001051 -0.0003261 -0.0000470 -0.0001651 0.0001657 -0.0000855 0.0002469 0.0008166 -0.0000445 -0.0004079 -0.0000562 -0.0008628
0.0020810 0.0027243 0.0018603 0.0025364 0.0001210 0.0001017 -0.0006190 -0.0007141 0.0001089 -0.0002758 -0.0000370 -0.0001102 0.0001874 0.0000237 0.0002448 0.0009318 -0.0000300 -0.0002973 -0.0000309 -0.0006401
0.0020871 0.0029912 0.0018626 0.0026872 0.0001401 0.0003053 -0.0006265 -0.0005858 0.0001018 -0.0001371 -0.0000412 0.0000418 0.0001924 0.0001948 0.0002470 0.0010656 -0.0000194 -0.0001316 -0.0000320 -0.0003416
0.0020616 0.0033263 0.0018506 0.0028753 0.0001322 0.0005616 -0.0006517 -0.0004512 0.0000709 0.0000310 -0.0000649 0.0002182 0.0001704 0.0003434 0.0002465 0.0011549 -0.0000236 -0.0000907 -0.0000595 -0.0002609
0.0020162 0.0034075 0.0018272 0.0028808 0.0000979 0.0005995 -0.0006959 -0.0004655 0.0000235 -0.0000442 -0.0001065 0.0000788 0.0001278 0.0002383 0.0002397 0.0010569 -0.0000552 -0.0002679 -0.0000778 -0.0005617
0.0019614 0.0031807 0.0018067 0.0027267 0.0000650 0.0004241 -0.0007259 -0.0005822 0.0000009 -0.0002372 -0.0001221 -0.0001872 0.0001166 0.0000669 0.0002411 0.0009125 -0.0000719 -0.0004031 -0.0000499 -0.0007970
0.0019473 0.0030644 0.0018074 0.0026977 0.0000775 0.0003902 -0.0007261 -0.0005601 0.0000084 -0.0002114 -0.0001026 -0.0001686 0.0001424 0.0001165 0.0002323 0.0009617 -0.0000559 -0.0003413 -0.0000057 -0.0006996
0.0019406 0.0032506 0.0018139 0.0028047 0.0000962 0.0005509 -0.0007194 -0.0004292 0.0000116 -0.0000719 -0.0000919 -0.0000121 0.0001551 0.0002510 0.0002610 0.0010612 -0.0000392 -0.0001995 0.0000070 -0.0004773
0.0019110 0.0035346 0.0018041 0.0029530 0.0000901 0.0007607 -0.0007356 -0.0002976 -0.0000047 0.0000914 -0.0001012 0.0001753 0.0001451 0.0004026 0.0002688 0.0011853 -0.0000346 -0.0000461 -0.0000009 -0.0002544
0.0018971 0.0037416 0.0017813 0.0030282 0.0000642 0.0008687 -0.0007652 -0.0002553 -0.0000401 0.0001165 -0.0001249 0.0001460 0.0001096 0.0003323 0.0002143 0.0011377 -0.0000615 -0.0001722 -0.0000224 -0.0004946
0.0018602 0.0035578 0.0017592 0.0029151 0.0000284 0.0007374 -0.0007892 -0.0003425 -0.0000587 -0.0000299 -0.0001352 -0.0000681 0.0000988 0.0001175 0.0001991 0.0009293 -0.0000833 -0.0004264 0.0000086 -0.0008916
0.0018651 0.0033235 0.0017623 0.0028345 0.0000558 0.0007189 -0.0007978 -0.0003993 -0.0000611 -0.0001273 -0.0001118 -0.0001389 0.0001332 0.0000603 0.0002144 0.0008720 -0.0000631 -0.0004449 0.0001010 -0.0008429
0.0019591 0.0034277 0.0017827 0.0029184 0.0001327 0.0009542 -0.0007847 -0.0003216 -0.0000619 -0.0000814 -0.0000767 -0.0000333 0.0001786 0.0001196 0.0002320 0.0008968 -0.0000329 -0.0003200 0.0001630 -0.0005379
0.0019975 0.0036700 0.0017870 0.0030467 0.0001831 0.0012073 -0.0007518 -0.0001453 -0.0000471 0.0000963 -0.0000567 0.0001554 0.0002224 0.0002842 0.0002681 0.0010110 -0.0000095 -0.0001249 0.0001855 -0.0001509
0.0019953 0.0039447 0.0017752 0.0031957 0.0001976 0.0014744 -0.0007274 0.0000765 -0.0000382 0.0002955 -0.0000555 0.0002863 0.0002387 0.0003963 0.0002766 0.0010797 -0.0000104 -0.0001143 0.0001773 -0.0001651
0.0019496 0.0038522 0.0017578 0.0031301 0.0001710 0.0014297 -0.0007424 0.0000899 -0.0000471 0.0002482 -0.0000635 0.0001702 0.0002244 0.0002830 0.0002552 0.0010082 -0.0000286 -0.0002836 0.0001648 -0.0005177
0.0019061 0.0035244 0.0017481 0.0029505 0.0001443 0.0012047 -0.0007660 -0.0000378 -0.0000497 0.0001042 -0.0000641 0.0000304 0.0002192 0.0001770 0.0002633 0.0009740 -0.0000276 -0.0003189 0.0001780 -0.0006231
0.0019160 0.0034850 0.0017485 0.0029557 0.0001460 0.0012074 -0.0007790 -0.0000427 -0.0000514 0.0001258 -0.0000601 0.0001046 0.0002242 0.0002386 0.0002850 0.0010339 -0.0000082 -0.0002096 0.0001935 -0.0004362
0.0019145 0.0037073 0.0017445 0.0030723 0.0001463 0.0013595 -0.0007968 0.0000157 -0.0000685 0.0002357 -0.0000723 0.0002591 0.0002180 0.0003597 0.0002875 0.0011742 0.0000032 -0.0000539 0.0001967 -0.0001455
0.0018828 0.0040094 0.0017319 0.0032202 0.0001234 0.0015666 -0.0008376 0.0001007 -0.0000957 0.0003903 -0.0000990 0.0004358 0.0001955 0.0004804 0.0002839 0.0012996 -0.0000001 0.0000256 0.0001850 0.0000033
0.0018753 0.0040627 0.0017075 0.0032241 0.0000772 0.0016008 -0.0008823 0.0000870 -0.0001326 0.0003577 -0.0001349 0.0003550 0.0001557 0.0003914 0.0002708 0.0012299 -0.0000218 -0.0001020 0.0001691 -0.0001785
0.0018678 0.0038065 0.0016884 0.0030860 0.0000392 0.0014408 -0.0009052 -0.0000131 -0.0001497 0.0002192 -0.0001523 0.0001483 0.0001459 0.0002437 0.0002703 0.0011243 -0.0000338 -0.0002108 0.0001807 -0.0003150
0.0018695 0.0036561 0.0016873 0.0030549 0.0000325 0.0014152 -0.0009099 0.0000078 -0.0001380 0.0002615 -0.0001460 0.0001746 0.0001707 0.0003096 0.0003052 0.0011781 -0.0000156 -0.0001396 0.0002144 -0.0001515
0.0019230 0.0037385 0.0016908 0.0031492 0.0000391 0.0015493 -0.0009075 0.0001242 -0.0001291 0.0004061 -0.0001442 0.0003250 0.0001854 0.0004527 0.0002955 0.0013316 0.0000038 -0.0000034 0.0002285 0.0001106
0.0019262 0.0039307 0.0016860 0.0032749 0.0000278 0.0017164 -0.0009154 0.0002356 -0.0001415 0.0005480 -0.0001573 0.0004415 0.0001732 0.0005198 0.0002757 0.0013838 -0.0000012 -0.0000118 0.0002142 0.0000878
0.0019116 0.0038389 0.0016736 0.0032219 -0.0000135 0.0016642 -0.0009447 0.0002106 -0.0001609 0.0005000 -0.0001800 0.0003267 0.0001495 0.0004188 0.0002894 0.0012719 -0.0000183 -0.0001812 0.0002079 -0.0002188
0.0019138 0.0035291 0.0016790 0.0030616 -0.0000468 0.0014473 -0.0009684 0.0001232 -0.0001464 0.0004236 -0.0001782 0.0002126 0.0001560 0.0003461 0.0003001 0.0012197 -0.0000124 -0.0002344 0.0002353 -0.0003271
0.0019311 0.0034551 0.0016975 0.0030474 -0.0000601 0.0013728 -0.0009701 0.0001572 -0.0001136 0.0005458 -0.0001610 0.0003176 0.0001682 0.0004377 0.0003201 0.0011870 0.0000065 -0.0001640 0.0002637 -0.0002294
0.0019170 0.0034457 0.0017096 0.0030876 -0.0000833 0.0013129 -0.0010118 0.0001781 -0.0001033 0.0007043 -0.0001434 0.0005611 0.0001749 0.0006079 0.0002821 0.0011611 0.0000172 -0.0000805 0.0002647 -0.0001796
0.0018183 0.0032513 0.0017095 0.0030049 -0.0001353 0.0011584 -0.0011059 0.0001219 -0.0001354 0.0005587 -0.0001507 0.0006265 0.0001256 0.0005367 0.0002016 0.0009591 -0.0000111 -0.0002363 0.0002293 -0.0006114
0.0016842 0.0026361 0.0016951 0.0027436 -0.0001787 0.0008693 -0.0012402 -0.0000309 -0.0001800 0.0001614 -0.0001708 0.0004469 0.0000683 0.0003310 0.0001683 0.0006808 -0.0000399 -0.0004762 0.0002253 -0.0010713
0.0016348 0.0020714 0.0016665 0.0025445 -0.0001539 0.0006889 -0.0013284 -0.0001231 -0.0001723 0.0000063 -0.0001592 0.0004005 0.0000925 0.0003488 0.0001769 0.0006628 -0.0000232 -0.0004693 0.0002770 -0.0009886
0.0016469 0.0020780 0.0016400 0.0025490 -0.0001006 0.0007624 -0.0013214 -0.0000502 -0.0001494 0.0000829 -0.0001491 0.0004907 0.0001186 0.0004608 0.0002146 0.0007467 0.0000038 -0.0003329 0.0003105 -0.0007232
0.0016934 0.0024202 0.0016314 0.0026505 -0.0000646 0.0009625 -0.0013040 0.0000511 -0.0001576 0.0001945 -0.0001685 0.0005826 0.0001027 0.0004941 0.0002579 0.0008867 0.0000031 -0.0003028 0.0002717 -0.0007186
0.0018285 0.0028016 0.0016128 0.0026082 -0.0000596 0.0010277 -0.0013030 -0.0000414 -0.0001895 0.0000650 -0.0002175 0.0003715 0.0000400 0.0002309 0.0002629 0.0008722 -0.0000471 -0.0005747 0.0001806 -0.0011741
0.0019225 0.0028787 0.0015893 0.0024007 -0.0000699 0.0008068 -0.0013049 -0.0003261 -0.0002129 -0.0002094 -0.0002214 0.0001132 0.0000279 -0.0000460 0.0002424 0.0006100 -0.0000685 -0.0007683 0.0001532 -0.0015260
0.0019855 0.0027592 0.0015960 0.0023236 -0.0000397 0.0006349 -0.0012524 -0.0004941 -0.0001931 -0.0002329 -0.0001659 0.0002069 0.0000470 -0.0001873 0.0002082 0.0003195 -0.0000410 -0.0006871 0.0001334 -0.0015647
0.0020157 0.0028664 0.0016087 0.0024137 -0.0000138 0.0006086 -0.0012048 -0.0005581 -0.0001965 -0.0001640 -0.0001532 0.0003379 -0.0000055 -0.0003669 0.0001969 0.0003007 -0.0000478 -0.0005910 0.0000416 -0.0015129
0.0019899 0.0030981 0.0015892 0.0024930 -0.0000338 0.0006574 -0.0012098 -0.0006166 -0.0002360 -0.0001158 -0.0001799 0.0004607 -0.0000522 -0.0003823 0.0002228 0.0004697 -0.0000625 -0.0004482 -0.0000272 -0.0012498
0.0019662 0.0033205 0.0015670 0.0025752 -0.0000471 0.0007772 -0.0012073 -0.0006012 -0.0002615 -0.0000614 -0.0002021 0.0005130 -0.0000760 -0.0003708 0.0002254 0.0004877 -0.0000835 -0.0004623 -0.0000848 -0.0013658
0.0019056 0.0032469 0.0015530 0.0024970 -0.0000680 0.0006704 -0.0012033 -0.0007133 -0.0002812 -0.0002024 -0.0002253 0.0003233 -0.0000984 -0.0005120 0.0002086 0.0004283 -0.0001116 -0.0006366 -0.0001177 -0.0017631
0.0018513 0.0029582 0.0015448 0.0023149 -0.0000780 0.0004449 -0.0011884 -0.0008971 -0.0002783 -0.0003768 -0.0002255 0.0001792 -0.0000873 -0.0006223 0.0002249 0.0002769 -0.0000995 -0.0006668 -0.0000730 -0.0017373
0.0018710 0.0029215 0.0015532 0.0023224 -0.0000495 0.0004494 -0.0011563 -0.0009047 -0.0002615 -0.0003556 -0.0002055 0.0002610 -0.0000578 -0.0005655 0.0002265 0.0002180 -0.0000724 -0.0005553 -0.0000327 -0.0015182
0.0018894 0.0030829 0.0015546 0.0024356 -0.0000319 0.0005853 -0.0011358 -0.0008302 -0.0002605 -0.0002511 -0.0002001 0.0004269 -0.0000474 -0.0004263 0.0001935 0.0003110 -0.0000507 -0.0003872 -0.0000193 -0.0012303
0.0018845 0.0033303 0.0015426 0.0025331 -0.0000504 0.0007158 -0.0011360 -0.0007648 -0.0002716 -0.0001920 -0.0002143 0.0004364 -0.0000642 -0.0004703 0.0001859 0.0001883 -0.0000534 -0.0004514 -0.0000154 -0.0013472
0.0018953 0.0032045 0.0015341 0.0024270 -0.0000818 0.0005934 -0.0011447 -0.0008370 -0.0002735 -0.0002976 -0.0002327 0.0002031 -0.0000727 -0.0006417 0.0001996 0.0000268 -0.0000636 -0.0006494 0.0000069 -0.0016687
0.0019189 0.0029519 0.0015434 0.0022868 -0.0000693 0.0004311 -0.0011306 -0.0009126 -0.0002504 -0.0003716 -0.0002235 0.0000796 -0.0000349 -0.0006462 0.0002455 0.0000506 -0.0000416 -0.0006562 0.0000788 -0.0015526
0.0019967 0.0030421 0.0015658 0.0023378 -0.0000230 0.0005152 -0.0010906 -0.0007878 -0.0002202 -0.0002661 -0.0001986 0.0001820 0.0000072 -0.0005694 0.0002692 0.0001307 -0.0000061 -0.0005504 0.0001541 -0.0012165
0.0020429 0.0032874 0.0015830 0.0024773 0.0000067 0.0006853 -0.0010586 -0.0006577 -0.0002024 -0.0001007 -0.0001860 0.0003680 0.0000002 -0.0005224 0.0002400 0.0000953 0.0000106 -0.0004327 0.0001463 -0.0010937
0.0020073 0.0034022 0.0015817 0.0025087 -0.0000038 0.0006952 -0.0010578 -0.0007088 -0.0002136 -0.0001410 -0.0001822 0.0003659 -0.0000279 -0.0005880 0.0002318 -0.0000755 -0.0000070 -0.0005204 0.0000912 -0.0014501
0.0019752 0.0031546 0.0015802 0.0023616 -0.0000177 0.0004716 -0.0010641 -0.0008609 -0.0002222 -0.0003732 -0.0001745 0.0001668 -0.0000336 -0.0007249 0.0002491 -0.0002278 -0.0000225 -0.0006993 0.0001000 -0.0017644
0.0019771 0.0029535 0.0015952 0.0022916 0.0000129 0.0003597 -0.0010403 -0.0009313 -0.0001997 -0.0004604 -0.0001475 0.0001276 -0.0000084 -0.0007083 0.0002731 -0.0002558 -0.0000032 -0.0006743 0.0001424 -0.0017291
0.0019893 0.0030761 0.0016166 0.0023766 0.0000708 0.0005014 -0.0010034 -0.0008909 -0.0001901 -0.0004221 -0.0001326 0.0002341 0.0000040 -0.0005983 0.0002815 -0.0001638 0.0000165 -0.0005604 0.0001738 -0.0014946
0.0020238 0.0033419 0.0016256 0.0025175 0.0001215 0.0007733 -0.0010012 -0.0008153 -0.0002253 -0.0004014 -0.0001582 0.0003318 -0.0000169 -0.0004826 0.0002620 -0.0000385 0.0000206 -0.0004992 0.0001743 -0.0013430
0.0020253 0.0034008 0.0016134 0.0025174 0.0001227 0.0008251 -0.0010203 -0.0008464 -0.0002676 -0.0005367 -0.0002023 0.0001636 -0.0000485 -0.0005270 0.0002768 -0.0000209 0.0000075 -0.0005994 0.0001539 -0.0014971
0.0020099 0.0031501 0.0016014 0.0023813 0.0001043 0.0006592 -0.0010254 -0.0009789 -0.0002790 -0.0007323 -0.0002292 -0.0001297 -0.0000458 -0.0005811 0.0003200 0.0000514 0.0000144 -0.0006353 0.0001927 -0.0013994
0.0020537 0.0030722 0.0016102 0.0023747 0.0001408 0.0006842 -0.0009999 -0.0009572 -0.0002590 -0.0007279 -0.0002238 -0.0001649 -0.0000004 -0.0004365 0.0003643 0.0002680 0.0000493 -0.0004791 0.0002390 -0.0010495
0.0020773 0.0032654 0.0016198 0.0024996 0.0001897 0.0008678 -0.0009698 -0.0008358 -0.0002332 -0.0006010 -0.0002085 -0.0000230 0.0000324 -0.0002652 0.0003920 0.0004466 0.0000752 -0.0003133 0.0002488 -0.0007577
