-0.0000000 -0.0000000 -0.0000000 -0.0000000 -0.0000000 -0.0000000 -0.0000000 -0.0000000 -0.0000000 -0.0000000 -0.0000000 -0.0000000 -0.0000000 -0.0000000 -0.0000000 -0.0000000 -0.0000000 -0.0000000 -0.0000000 -0.0000000
-0.0000000 -0.0000000 -0.0000000 -0.0000000 -0.0000000 -0.0000000 -0.0000000 -0.0000000 -0.0000000 -0.0000000 -0.0000000 -0.0000000 -0.0000000 -0.0000000 -0.0000000 -0.0000000 -0.0000000 -0.0000000 -0.0000000 -0.0000000
-0.0000075 0.0000761 -0.0028640 0.0023683 0.0000044 0.0000087 -0.0000108 0.0000151 -0.0000047 0.0000566 0.0000031 -0.0000009 -0.0000039 -0.0000090 -0.0000024 0.0000067 0.0000020 0.0000176 -0.0000064 -0.0000037
-0.0000670 0.0002309 0.0086222 -0.0131980 0.0000017 0.0000322 -0.0000077 0.0000239 0.0000605 0.0000330 0.0000057 0.0000284 -0.0000089 0.0000013 0.0000006 0.0000242 0.0000049 0.0000654 -0.0000074 0.0000175
-0.0003728 0.0005509 0.0127404 -0.0232451 0.0000026 0.0000620 0.0000014 0.0000540 -0.0000043 0.0001121 0.0000034 0.0000415 0.0000024 0.0000014 0.0000092 0.0000189 0.0000038 0.0000415 0.0000044 -0.0000111
-0.0007317 0.0006482 0.0104614 -0.0160888 0.0000089 0.0000373 0.0000047 0.0000401 -0.0001377 0.0001307 0.0000013 -0.0000526 0.0000021 -0.0000604 0.0000169 -0.0000824 -0.0000009 -0.0001159 0.0000015 -0.0001509
-0.0015646 0.0008919 0.0032605 -0.0044532 0.0000091 -0.0000507 0.0000282 -0.0000933 -0.0002141 0.0000348 0.0000082 -0.0001627 0.0000042 -0.0001302 0.0000175 -0.0001529 0.0000061 -0.0002023 0.0000072 -0.0002749
-0.0017862 0.0009465 -0.0066326 0.0056653 0.0000109 -0.0000824 0.0000854 -0.0001756 -0.0002869 0.0000802 0.0000134 -0.0001606 0.0000002 -0.0001245 0.0000143 -0.0001411 0.0000153 -0.0001563 0.0000006 -0.0002764
-0.0015706 0.0009038 -0.0085799 0.0086867 0.0000103 -0.0000575 0.0001278 -0.0001761 -0.0002801 0.0001009 0.0000187 -0.0001102 0.0000051 -0.0001088 0.0000072 -0.0001091 0.0000183 -0.0000817 0.0000060 -0.0002527
-0.0011878 0.0008296 -0.0061767 0.0053311 0.0000051 -0.0000156 0.0000791 -0.0000799 -0.0002691 0.0002117 0.0000182 -0.0000347 0.0000138 -0.0000649 0.0000052 -0.0000460 0.0000181 0.0000140 0.0000102 -0.0001841
-0.0007551 0.0007065 -0.0058126 0.0096862 0.0000058 0.0000397 0.0000874 0.0000031 -0.0000798 0.0002146 0.0000129 0.0000027 0.0000110 -0.0000339 0.0000059 -0.0000351 0.0000168 0.0000062 0.0000005 -0.0001742
-0.0007422 0.0005912 -0.0043471 0.0073619 0.0000092 0.0000223 0.0001076 -0.0000332 0.0001316 -0.0000608 0.0000137 -0.0000909 0.0000258 -0.0001236 0.0000109 -0.0001564 0.0000195 -0.0001689 0.0000002 -0.0003207
0.0005967 -0.0007845 -0.0036474 0.0015881 0.0000069 -0.0000725 0.0000663 -0.0001213 0.0000147 -0.0001131 0.0000194 -0.0002072 0.0000298 -0.0001986 0.0000183 -0.0002440 0.0000241 -0.0002652 -0.0000187 -0.0004101
0.0016373 -0.0016120 -0.0051496 0.0051295 0.0000130 -0.0001182 0.0000230 -0.0001176 0.0000684 -0.0001705 0.0000295 -0.0002227 0.0000299 -0.0002020 0.0000211 -0.0002218 0.0000328 -0.0002220 -0.0000370 -0.0003927
0.0010814 -0.0009621 -0.0098706 0.0141776 0.0000166 -0.0000975 0.0000261 -0.0000875 0.0001639 -0.0001843 0.0000322 -0.0001841 0.0000369 -0.0001886 0.0000269 -0.0001792 0.0000416 -0.0001485 -0.0000323 -0.0003427
0.0006492 -0.0004591 -0.0065213 0.0115808 0.0000146 -0.0000512 0.0000001 -0.0000181 0.0001607 -0.0000588 0.0000211 -0.0001122 0.0000323 -0.0001312 0.0000297 -0.0000978 0.0000466 -0.0000473 -0.0000043 -0.0002579
0.0001131 0.0001041 0.0039341 -0.0031272 0.0000122 0.0000111 -0.0000100 0.0000443 0.0001412 0.0000671 0.0000177 -0.0000468 0.0000272 -0.0000774 0.0000432 -0.0000130 0.0000584 0.0000304 0.0000242 -0.0001779
-0.0003409 0.0003463 0.0006425 0.0032777 0.0000122 0.0000179 0.0000010 0.0000482 0.0001389 0.0001298 0.0000208 -0.0001021 0.0000171 -0.0001046 0.0000485 -0.0000873 0.0000684 -0.0000685 0.0000676 -0.0002336
-0.0004559 0.0000031 0.0006222 0.0096864 0.0000145 -0.0000710 0.0000143 0.0000021 0.0001339 -0.0000346 0.0000242 -0.0002486 0.0000020 -0.0001880 0.0000445 -0.0002292 0.0000763 -0.0002224 0.0001015 -0.0003522
-0.0005468 -0.0001540 -0.0002766 0.0048781 0.0000095 -0.0001396 0.0000619 -0.0000752 0.0001110 -0.0001467 0.0000330 -0.0002847 0.0000082 -0.0002280 0.0000479 -0.0002579 0.0000970 -0.0002116 0.0001415 -0.0004157
-0.0007136 0.0001516 -0.0157597 0.0110234 0.0000059 -0.0001365 0.0000824 -0.0000669 0.0000588 -0.0000211 0.0000408 -0.0002496 0.0000185 -0.0002098 0.0000548 -0.0001816 0.0001236 -0.0001139 0.0001980 -0.0003798
-0.0005346 0.0002549 0.0096811 -0.0074838 0.0000040 -0.0001027 0.0001002 0.0000020 0.0000425 0.0001122 0.0000490 -0.0001833 0.0000179 -0.0001338 0.0000596 -0.0000540 0.0001547 0.0000646 0.0002501 -0.0003057
-0.0003103 0.0006985 0.0092086 -0.0089510 0.0000037 -0.0000893 0.0001022 0.0001025 0.0000319 0.0002757 0.0000736 -0.0000327 0.0000364 0.0000038 0.0000419 0.0000352 0.0001960 0.0003143 0.0003205 -0.0002830
0.0003886 0.0009151 -0.0054652 0.0033363 -0.0000008 -0.0000951 0.0001004 0.0002396 -0.0001009 0.0005186 0.0000977 0.0000691 0.0000447 0.0001137 0.0000236 -0.0000091 0.0002168 0.0003415 0.0003502 -0.0003186
0.0012491 0.0001379 -0.0036171 0.0009149 -0.0000063 -0.0001896 0.0001353 0.0002255 -0.0000120 0.0002710 0.0001031 0.0000043 0.0000636 0.0001015 0.0000188 -0.0001447 0.0002380 0.0002015 0.0003432 -0.0004390
0.0004359 0.0002027 -0.0155069 0.0131519 -0.0000093 -0.0002603 0.0001159 0.0001785 0.0001270 -0.0000089 0.0001069 -0.0000444 0.0000697 0.0000832 0.0000188 -0.0001755 0.0002653 0.0002109 0.0003533 -0.0005082
0.0003944 -0.0000179 -0.0039193 0.0023814 0.0000029 -0.0001770 0.0001075 0.0001658 0.0001322 -0.0000183 0.0001150 0.0000112 0.0000584 0.0001280 0.0000283 -0.0001023 0.0002435 0.0002156 0.0003825 -0.0004782
0.0011036 -0.0005688 0.0009576 -0.0094639 0.0000188 -0.0000823 0.0001055 0.0002016 0.0002354 -0.0001163 0.0001193 0.0000832 0.0000516 0.0001704 0.0000428 -0.0000287 0.0002222 0.0002227 0.0003995 -0.0003898
0.0006104 -0.0001069 0.0030151 0.0003585 0.0000162 -0.0000212 0.0000573 0.0003395 0.0002320 -0.0000207 0.0001210 0.0002020 0.0000438 0.0002732 0.0000500 0.0000697 0.0002423 0.0003552 0.0004281 -0.0002799
0.0003604 0.0001894 0.0129975 -0.0108892 0.0000149 0.0000342 0.0000479 0.0003989 0.0002652 -0.0000158 0.0001322 0.0003174 0.0000479 0.0004011 0.0000593 0.0001388 0.0002582 0.0003865 0.0004632 -0.0002328
0.0000652 0.0003487 0.0049658 -0.0054318 0.0000170 0.0000741 0.0000465 0.0003093 0.0002613 -0.0001447 0.0001365 0.0002644 0.0000511 0.0003319 0.0000721 0.0000793 0.0002682 0.0002432 0.0005059 -0.0003611
-0.0005186 0.0002712 -0.0051195 0.0086795 0.0000176 0.0000559 0.0000176 0.0001379 0.0001411 -0.0002796 0.0001281 0.0001542 0.0000626 0.0001878 0.0000704 0.0000304 0.0002830 0.0001517 0.0005372 -0.0005175
-0.0008177 0.0001779 0.0090073 -0.0108006 0.0000159 0.0000516 0.0000344 -0.0000124 0.0000848 -0.0003259 0.0001257 0.0001236 0.0000698 0.0001242 0.0000624 0.0000793 0.0002777 0.0001486 0.0005416 -0.0005221
-0.0016839 0.0008540 0.0041731 -0.0052296 0.0000163 0.0000784 0.0000814 -0.0000683 -0.0000680 -0.0000464 0.0001109 0.0001114 0.0000670 0.0001080 0.0000659 0.0001787 0.0002646 0.0001856 0.0005448 -0.0004663
-0.0008549 0.0005062 0.0092923 -0.0068413 0.0000215 0.0000893 0.0001020 -0.0000204 -0.0003220 0.0002757 0.0000957 0.0001606 0.0000602 0.0001574 0.0000594 0.0002403 0.0002705 0.0002719 0.0005426 -0.0004252
0.0003579 -0.0002672 0.0157185 -0.0172258 0.0000155 0.0001240 0.0001266 0.0000844 -0.0003221 0.0002837 0.0000994 0.0002817 0.0000725 0.0002381 0.0000361 0.0002351 0.0002669 0.0002906 0.0005534 -0.0003996
0.0001693 -0.0002673 0.0042938 -0.0095615 0.0000089 0.0001201 0.0001165 0.0001320 -0.0001345 0.0000453 0.0001094 0.0003002 0.0001035 0.0002970 0.0000314 0.0001789 0.0002582 0.0001360 0.0005904 -0.0004863
0.0005367 -0.0006530 0.0001444 -0.0161964 0.0000176 0.0000353 0.0001602 0.0000108 -0.0000864 -0.0001951 0.0001162 0.0001939 0.0001227 0.0003304 0.0000437 0.0001537 0.0002637 -0.0000203 0.0006230 -0.0005821
0.0011868 -0.0010630 0.0042538 -0.0151850 0.0000231 0.0000147 0.0001932 -0.0000353 0.0000352 -0.0003591 0.0001194 0.0001513 0.0001324 0.0003385 0.0000570 0.0001840 0.0002754 -0.0000507 0.0006194 -0.0005719
0.0012531 -0.0009351 0.0096282 0.0006760 0.0000206 0.0000578 0.0001282 0.0000360 0.0002059 -0.0004466 0.0001239 0.0002006 0.0001432 0.0003672 0.0000580 0.0002391 0.0002890 -0.0000175 0.0006354 -0.0005437
0.0009994 -0.0008491 0.0129659 -0.0063928 0.0000217 0.0001005 0.0000821 0.0000744 0.0004131 -0.0005346 0.0001236 0.0002881 0.0001301 0.0004463 0.0000485 0.0003265 0.0002969 0.0000788 0.0006513 -0.0004811
0.0012169 -0.0008753 0.0012300 -0.0017770 0.0000184 0.0001694 0.0000454 0.0001689 0.0004496 -0.0003872 0.0001240 0.0004134 0.0001081 0.0005313 0.0000489 0.0003908 0.0003109 0.0001862 0.0006795 -0.0004034
0.0006710 -0.0003765 -0.0201770 0.0221335 0.0000140 0.0002127 -0.0000345 0.0002689 0.0002622 -0.0001922 0.0001183 0.0004361 0.0000978 0.0004768 0.0000556 0.0003361 0.0003418 0.0001483 0.0007167 -0.0004859
0.0000816 -0.0004342 -0.0050068 0.0064729 0.0000097 0.0002172 -0.0000097 0.0001788 0.0001938 -0.0002984 0.0001083 0.0003303 0.0000986 0.0002908 0.0000587 0.0002592 0.0003706 0.0000616 0.0007264 -0.0006336
0.0002243 -0.0006334 0.0037901 -0.0090826 0.0000020 0.0002513 0.0000239 0.0000754 0.0000925 -0.0002311 0.0001016 0.0003022 0.0001155 0.0001811 0.0000673 0.0003152 0.0003699 0.0000541 0.0007723 -0.0007042
-0.0002531 -0.0003018 0.0203894 -0.0333392 0.0000015 0.0002958 -0.0000118 -0.0000461 -0.0001533 0.0000199 0.0000964 0.0003431 0.0001312 0.0001683 0.0000690 0.0003914 0.0003474 0.0000630 0.0007901 -0.0006965
-0.0010638 0.0004571 0.0200788 -0.0196385 0.0000028 0.0003441 0.0000359 -0.0001385 -0.0003136 0.0001850 0.0000835 0.0003591 0.0001468 0.0001026 0.0000615 0.0004039 0.0003244 0.0000895 0.0007841 -0.0006174
-0.0016278 0.0011681 0.0072691 -0.0054651 0.0000075 0.0003957 0.0000776 -0.0000768 -0.0002695 0.0002443 0.0000651 0.0003861 0.0001402 0.0000745 0.0000533 0.0003997 0.0003286 0.0001684 0.0008077 -0.0005764
-0.0008308 0.0004123 0.0111434 -0.0237918 0.0000137 0.0003981 0.0001404 -0.0000772 -0.0001768 0.0001452 0.0000512 0.0003622 0.0001229 0.0001318 0.0000556 0.0003680 0.0003390 0.0001586 0.0008228 -0.0005896
-0.0001321 -0.0001751 0.0103397 -0.0144039 0.0000110 0.0003495 0.0001914 -0.0000389 -0.0000911 0.0000545 0.0000415 0.0003208 0.0001299 0.0001694 0.0000613 0.0003534 0.0003319 0.0000969 0.0008174 -0.0006250
-0.0000480 -0.0000025 0.0044209 0.0017999 0.0000130 0.0002981 0.0001812 0.0000754 -0.0001076 0.0001657 0.0000433 0.0003606 0.0001419 0.0003150 0.0000572 0.0004230 0.0003170 0.0001245 0.0007763 -0.0005823
0.0005952 -0.0001801 -0.0018798 0.0029167 0.0000139 0.0003103 0.0001386 0.0001998 0.0001825 0.0000111 0.0000438 0.0004410 0.0001446 0.0004937 0.0000579 0.0005112 0.0003283 0.0002369 0.0007545 -0.0004701
0.0009166 -0.0003326 -0.0082672 0.0056836 0.0000087 0.0003963 0.0001032 0.0002960 0.0003605 0.0000271 0.0000456 0.0005511 0.0001439 0.0005934 0.0000621 0.0006232 0.0003323 0.0003622 0.0007585 -0.0003457
0.0015957 -0.0007872 -0.0058669 0.0054317 0.0000086 0.0004522 0.0000545 0.0004357 0.0001860 0.0003476 0.0000457 0.0006103 0.0001497 0.0006584 0.0000800 0.0006903 0.0003152 0.0003153 0.0007606 -0.0003169
0.0018651 -0.0010638 0.0004767 -0.0115386 0.0000132 0.0003783 0.0000246 0.0004663 0.0002484 0.0002799 0.0000477 0.0005316 0.0001511 0.0006952 0.0000913 0.0006273 0.0003120 0.0001609 0.0006470 -0.0005368
0.0011602 -0.0006714 0.0062621 -0.0302754 0.0000164 0.0002169 0.0000369 0.0003745 0.0003564 -0.0000191 0.0000620 0.0004644 0.0001484 0.0006543 0.0000730 0.0004958 0.0003339 0.0001392 0.0006220 -0.0006600
0.0008186 -0.0006647 0.0090067 -0.0183987 0.0000134 0.0002069 -0.0000036 0.0003692 0.0001234 0.0001090 0.0000592 0.0004897 0.0001418 0.0005858 0.0000603 0.0004798 0.0003352 0.0001734 0.0007533 -0.0005488
-0.0003894 0.0001076 0.0097968 -0.0081776 0.0000080 0.0002889 0.0000377 0.0003114 -0.0001598 0.0004583 0.0000531 0.0005192 0.0001418 0.0005680 0.0000585 0.0005645 0.0002998 0.0001829 0.0008040 -0.0004556
-0.0020527 0.0016872 0.0040243 -0.0064603 0.0000093 0.0003076 0.0000854 0.0003210 -0.0001911 0.0005028 0.0000538 0.0005869 0.0001365 0.0006040 0.0000472 0.0006409 0.0002866 0.0002788 0.0008505 -0.0003873
-0.0016691 0.0015559 0.0090231 -0.0098171 0.0000030 0.0003423 0.0001351 0.0003254 -0.0002069 0.0005216 0.0000397 0.0005721 0.0001139 0.0005484 0.0000444 0.0005702 0.0002710 0.0001635 0.0009040 -0.0004161
-0.0008505 0.0006041 0.0041143 0.0033680 -0.0000022 0.0003139 0.0001614 0.0002325 -0.0001831 0.0003903 0.0000193 0.0004033 0.0001175 0.0003274 0.0000522 0.0003752 0.0002534 -0.0001141 0.0009314 -0.0005513
-0.0001403 -0.0000898 -0.0044071 0.0097923 0.0000018 0.0002257 0.0001287 0.0001461 -0.0002986 0.0003269 0.0000176 0.0002998 0.0001287 0.0001965 0.0000476 0.0002691 0.0002565 -0.0001602 0.0009179 -0.0006315
0.0005189 -0.0003839 -0.0075689 0.0079535 -0.0000066 0.0001937 0.0001451 0.0001055 -0.0001574 0.0002569 0.0000219 0.0003196 0.0001245 0.0001690 0.0000273 0.0002406 0.0002566 -0.0000816 0.0008915 -0.0006053
0.0003755 -0.0003115 -0.0151363 0.0066386 -0.0000137 0.0001960 0.0001340 0.0001485 0.0000992 0.0001448 0.0000050 0.0003247 0.0001288 0.0001633 0.0000313 0.0003105 0.0002084 -0.0000829 0.0008765 -0.0004761
0.0011448 -0.0010265 -0.0202308 0.0045220 -0.0000052 0.0002489 0.0000831 0.0001519 0.0000741 0.0002765 -0.0000089 0.0003943 0.0001189 0.0002180 0.0000262 0.0003552 0.0001757 -0.0000470 0.0008158 -0.0004487
0.0017764 -0.0012083 -0.0264939 0.0140606 0.0000136 0.0002969 0.0000133 0.0000350 0.0002827 0.0001064 -0.0000190 0.0003587 0.0001017 0.0001060 0.0000063 0.0001755 0.0001568 -0.0001527 0.0007144 -0.0006259
0.0015604 -0.0010657 -0.0059619 0.0044682 0.0000261 0.0002427 -0.0000005 -0.0001578 0.0004203 -0.0001511 -0.0000370 0.0001484 0.0000752 -0.0000720 0.0000125 -0.0000293 0.0001060 -0.0004231 0.0006427 -0.0008149
0.0014787 -0.0012428 0.0108272 -0.0039941 0.0000282 0.0001903 -0.0000223 -0.0002514 0.0003195 -0.0000908 -0.0000501 0.0000644 0.0000517 -0.0001040 0.0000194 -0.0000706 0.0000801 -0.0005163 0.0005850 -0.0008866
0.0011836 -0.0011720 0.0129537 -0.0101507 0.0000258 0.0001978 -0.0000371 -0.0002631 0.0003262 -0.0001183 -0.0000548 0.0000848 0.0000481 -0.0000736 0.0000221 -0.0000257 0.0000713 -0.0004664 0.0005473 -0.0008145
0.0000923 -0.0004091 0.0092414 -0.0099160 0.0000263 0.0002475 -0.0000291 -0.0002760 0.0002216 0.0000422 -0.0000603 0.0001420 0.0000265 0.0000096 0.0000117 0.0000227 0.0000664 -0.0003518 0.0005483 -0.0006846
-0.0012017 0.0008037 0.0029265 0.0089564 0.0000274 0.0003218 -0.0000139 -0.0002491 0.0000244 0.0003201 -0.0000691 0.0002251 -0.0000034 0.0000907 0.0000017 0.0000508 0.0000643 -0.0002634 0.0005654 -0.0005955
-0.0013505 0.0009118 0.0005421 0.0098239 0.0000328 0.0003262 0.0000297 -0.0002776 -0.0000044 0.0002260 -0.0000738 0.0001804 0.0000038 0.0000487 0.0000013 -0.0000474 0.0000673 -0.0003352 0.0005896 -0.0006600
-0.0012695 0.0004706 0.0027004 -0.0108387 0.0000379 0.0002432 0.0000245 -0.0003195 -0.0000898 0.0001690 -0.0000723 0.0000569 0.0000120 -0.0000201 -0.0000094 -0.0001841 0.0000699 -0.0004277 0.0005801 -0.0007282
-0.0006672 -0.0002519 0.0023255 -0.0024666 0.0000370 0.0002012 0.0000380 -0.0003337 -0.0000986 0.0001317 -0.0000653 0.0000426 0.0000147 -0.0000028 -0.0000237 -0.0001873 0.0000727 -0.0003789 0.0005447 -0.0006789
-0.0002568 -0.0004421 -0.0010389 0.0075597 0.0000359 0.0002168 0.0000824 -0.0003675 -0.0000518 0.0000944 -0.0000625 0.0001096 0.0000353 0.0000499 -0.0000296 -0.0001321 0.0000860 -0.0002719 0.0005208 -0.0005549
0.0004920 -0.0007117 -0.0162218 0.0159232 0.0000335 0.0002376 0.0001052 -0.0003438 -0.0001670 0.0003258 -0.0000641 0.0002004 0.0000309 0.0001421 -0.0000325 -0.0000576 0.0000973 -0.0001428 0.0005238 -0.0003975
0.0014183 -0.0010660 -0.0039029 0.0050928 0.0000286 0.0002920 0.0000944 -0.0002823 0.0000116 0.0003177 -0.0000679 0.0002812 0.0000448 0.0002018 -0.0000289 -0.0000157 0.0000993 -0.0001035 0.0005221 -0.0002948
0.0010623 -0.0007357 0.0003497 0.0014531 0.0000287 0.0002841 0.0000494 -0.0002803 0.0001852 0.0001486 -0.0000719 0.0002427 0.0000590 0.0001880 -0.0000200 -0.0000916 0.0000975 -0.0001899 0.0005118 -0.0002946
0.0012748 -0.0009064 -0.0024538 0.0002750 0.0000373 0.0002064 0.0000146 -0.0003325 0.0001742 0.0000530 -0.0000694 0.0001671 0.0000483 0.0001663 -0.0000246 -0.0001618 0.0001096 -0.0002032 0.0005190 -0.0002594
0.0015941 -0.0012660 -0.0040272 0.0050571 0.0000390 0.0001765 -0.0000063 -0.0003434 0.0003749 -0.0002342 -0.0000540 0.0002015 0.0000363 0.0002247 -0.0000244 -0.0001413 0.0001396 -0.0000859 0.0005435 -0.0000977
0.0013655 -0.0010581 -0.0002100 0.0152314 0.0000377 0.0001413 -0.0000154 -0.0002446 0.0004045 -0.0002660 -0.0000301 0.0003233 0.0000288 0.0003904 -0.0000236 -0.0000607 0.0001674 0.0001182 0.0005894 0.0000660
0.0010038 -0.0004259 0.0049105 0.0066367 0.0000394 0.0001367 -0.0000057 -0.0001204 0.0003234 -0.0001618 -0.0000194 0.0004699 0.0000130 0.0005788 -0.0000359 0.0000557 0.0001935 0.0003447 0.0005707 0.0002244
0.0006030 0.0002621 0.0057592 -0.0124545 0.0000414 0.0001691 -0.0000268 -0.0000012 0.0002710 -0.0000698 -0.0000172 0.0005062 -0.0000062 0.0006386 -0.0000329 0.0000285 0.0001913 0.0002950 0.0005602 0.0002333
0.0001568 0.0005771 0.0010284 -0.0051462 0.0000444 0.0001048 -0.0000655 0.0000305 0.0002072 -0.0001127 -0.0000189 0.0003893 0.0000018 0.0005394 -0.0000245 -0.0000926 0.0001753 0.0000721 0.0005717 0.0001255
0.0000879 0.0001158 0.0108292 -0.0117367 0.0000374 0.0000190 0.0000039 -0.0001029 0.0001071 -0.0002278 -0.0000213 0.0002932 0.0000063 0.0004630 -0.0000278 -0.0000894 0.0001763 0.0000521 0.0005549 0.0001647
-0.0001582 0.0002330 0.0063881 -0.0023833 0.0000371 0.0000085 0.0000618 -0.0001351 -0.0000923 -0.0000350 -0.0000240 0.0003125 0.0000200 0.0004822 -0.0000308 0.0000109 0.0001812 0.0001650 0.0005578 0.0002806
0.0000389 0.0004194 -0.0019708 0.0059503 0.0000364 0.0000181 0.0000613 -0.0000622 -0.0003410 0.0003263 -0.0000221 0.0003870 0.0000169 0.0005554 -0.0000355 0.0001281 0.0001763 0.0002990 0.0005301 0.0003402
0.0003611 0.0004888 0.0035878 -0.0099284 0.0000320 0.0000330 0.0001229 -0.0000623 -0.0003363 0.0003221 -0.0000173 0.0004953 0.0000213 0.0006433 -0.0000528 0.0002293 0.0001711 0.0004567 0.0004709 0.0004113
0.0002606 0.0009200 0.0011478 -0.0040985 0.0000242 0.0000540 0.0001625 -0.0000477 -0.0002182 0.0001744 -0.0000242 0.0005056 0.0000343 0.0006242 -0.0000680 0.0001329 0.0001773 0.0004025 0.0004341 0.0003745
0.0013453 -0.0001957 0.0036598 -0.0094946 0.0000103 -0.0000234 0.0001779 -0.0000940 -0.0002079 0.0000315 -0.0000294 0.0004019 0.0000328 0.0005373 -0.0000698 -0.0000409 0.0001927 0.0002245 0.0004533 0.0002584
0.0017866 -0.0012268 0.0040274 -0.0161490 0.0000124 -0.0000623 0.0001504 -0.0001887 -0.0000102 -0.0002707 -0.0000272 0.0003130 0.0000324 0.0005034 -0.0000470 0.0000062 0.0001992 0.0001920 0.0004541 0.0002992
0.0015749 -0.0009575 0.0034019 0.0007840 0.0000244 -0.0000034 0.0000993 -0.0001997 0.0000746 -0.0003497 -0.0000320 0.0002946 0.0000210 0.0005061 -0.0000246 0.0001497 0.0001925 0.0002552 0.0004514 0.0003929
0.0018695 -0.0010314 -0.0021566 0.0057620 0.0000311 0.0000428 0.0000471 -0.0001621 0.0002787 -0.0004997 -0.0000506 0.0003230 -0.0000041 0.0005493 -0.0000192 0.0002859 0.0001797 0.0003393 0.0004560 0.0004739
0.0013421 -0.0004161 -0.0027996 0.0038764 0.0000283 0.0000893 -0.0000234 -0.0000523 0.0004218 -0.0003971 -0.0000650 0.0003959 -0.0000211 0.0006348 -0.0000193 0.0004274 0.0001655 0.0004490 0.0004247 0.0005536
0.0013677 0.0001333 -0.0007438 0.0086627 0.0000311 0.0000865 -0.0000740 0.0000633 0.0003242 -0.0002401 -0.0000561 0.0004565 -0.0000215 0.0006804 -0.0000300 0.0003901 0.0001785 0.0004937 0.0002223 0.0004276
0.0014863 -0.0001208 -0.0102475 0.0131021 0.0000365 -0.0000039 -0.0000482 0.0000128 0.0002439 -0.0003544 -0.0000524 0.0003482 -0.0000233 0.0006099 -0.0000219 0.0002320 0.0001855 0.0003059 0.0001813 0.0003524
0.0009429 -0.0002433 -0.0113875 0.0147618 0.0000341 -0.0000938 -0.0000303 -0.0001100 0.0001830 -0.0004319 -0.0000657 0.0002167 -0.0000182 0.0004988 -0.0000113 0.0002032 0.0001732 0.0001965 0.0003447 0.0004179
0.0003146 0.0001426 0.0023187 0.0008395 0.0000362 -0.0001057 -0.0000424 -0.0001505 -0.0000116 -0.0002703 -0.0000674 0.0002224 -0.0000370 0.0005077 -0.0000216 0.0002751 0.0001606 0.0002823 0.0003442 0.0004499
-0.0001657 0.0008202 0.0107115 -0.0140064 0.0000346 -0.0001055 0.0000170 -0.0001574 -0.0001997 -0.0000443 -0.0000661 0.0003059 -0.0000318 0.0006233 -0.0000251 0.0003935 0.0001523 0.0003577 0.0003439 0.0005632
-0.0005467 0.0015887 0.0028128 0.0005616 0.0000232 -0.0001111 0.0000338 -0.0001118 -0.0002422 0.0000966 -0.0000699 0.0004304 -0.0000061 0.0007345 -0.0000248 0.0005064 0.0001360 0.0004400 0.0003276 0.0006357
-0.0002561 0.0019786 0.0046957 -0.0029238 0.0000177 -0.0001026 0.0001099 -0.0000871 -0.0003465 0.0002417 -0.0000669 0.0005085 -0.0000220 0.0007689 -0.0000380 0.0004594 0.0001089 0.0003899 0.0003034 0.0006307
0.0005368 0.0013981 0.0080193 -0.0106514 0.0000200 -0.0001064 0.0001663 -0.0001504 -0.0002461 0.0000618 -0.0000575 0.0004338 -0.0000142 0.0006754 -0.0000514 0.0002710 0.0001079 0.0002270 0.0003322 0.0005496
0.0004230 0.0007387 -0.0054460 0.0078242 0.0000263 -0.0001187 0.0001242 -0.0002639 -0.0001396 -0.0001106 -0.0000604 0.0003489 0.0000016 0.0005748 -0.0000588 0.0002048 0.0001200 0.0002050 0.0003492 0.0005160
0.0007347 0.0003048 -0.0151851 0.0218419 0.0000238 -0.0000948 0.0001040 -0.0003125 0.0000778 -0.0002321 -0.0000676 0.0003865 0.0000017 0.0005837 -0.0000672 0.0002872 0.0001078 0.0002934 0.0003511 0.0005439
0.0012243 0.0002145 -0.0097147 0.0181838 0.0000178 -0.0000301 0.0000522 -0.0002497 0.0001849 -0.0002052 -0.0000713 0.0004567 0.0000106 0.0006110 -0.0000674 0.0003768 0.0000676 0.0003250 0.0003241 0.0005378
0.0020724 -0.0001621 -0.0008166 0.0000715 0.0000157 0.0000449 0.0000140 -0.0001807 0.0000398 0.0000560 -0.0000933 0.0005171 -0.0000053 0.0006330 -0.0000668 0.0004861 0.0000078 0.0002880 0.0002590 0.0005522
0.0022276 -0.0001840 -0.0005906 -0.0057524 0.0000113 0.0001137 -0.0000105 -0.0001310 0.0001968 0.0001056 -0.0001232 0.0005599 -0.0000182 0.0006555 -0.0000597 0.0005496 -0.0000405 0.0002085 0.0002057 0.0005925
0.0014364 0.0001242 -0.0012547 -0.0004753 0.0000096 0.0001375 -0.0000317 -0.0001699 0.0003056 0.0000125 -0.0001474 0.0004868 -0.0000200 0.0005853 -0.0000547 0.0004861 -0.0000610 0.0000761 0.0001969 0.0006045
0.0013084 -0.0000316 0.0098682 -0.0135949 0.0000113 0.0001125 -0.0000502 -0.0002388 0.0002269 -0.0000189 -0.0001623 0.0004182 -0.0000250 0.0005332 -0.0000642 0.0004345 -0.0000637 0.0000504 0.0001898 0.0006460
0.0012378 0.0003455 0.0143145 -0.0264995 0.0000088 0.0001377 -0.0000663 -0.0002415 0.0001688 0.0000043 -0.0001642 0.0004686 -0.0000387 0.0005625 -0.0000714 0.0004290 -0.0000577 0.0001395 0.0001463 0.0006725
0.0005464 0.0012217 0.0029993 -0.0015468 0.0000024 0.0002023 -0.0000719 -0.0001700 0.0000838 0.0001895 -0.0001645 0.0005500 -0.0000558 0.0006292 -0.0000810 0.0004620 -0.0000588 0.0002355 0.0001344 0.0006716
0.0001592 0.0017922 -0.0000761 0.0079805 0.0000014 0.0002658 -0.0000284 -0.0001036 -0.0000724 0.0004522 -0.0001691 0.0006594 -0.0000688 0.0007462 -0.0000938 0.0005493 -0.0000726 0.0003449 0.0001285 0.0007479
0.0002382 0.0017681 -0.0056983 -0.0001760 -0.0000026 0.0003217 -0.0000026 -0.0000781 -0.0001509 0.0004433 -0.0001792 0.0006742 -0.0000545 0.0007251 -0.0000911 0.0005022 -0.0000921 0.0002718 0.0001279 0.0007328
-0.0002717 0.0016632 -0.0095378 0.0012288 -0.0000078 0.0002895 -0.0000058 -0.0001207 -0.0001989 0.0004258 -0.0001902 0.0005609 -0.0000339 0.0006347 -0.0000786 0.0003686 -0.0000987 0.0000923 0.0001229 0.0006389
-0.0002080 0.0013963 0.0053509 -0.0076345 -0.0000081 0.0002226 0.0000478 -0.0002353 -0.0002466 0.0004519 -0.0001862 0.0004943 -0.0000331 0.0006081 -0.0000844 0.0003220 -0.0000970 0.0000813 0.0000954 0.0005924
-0.0003864 0.0015651 0.0054781 -0.0114802 -0.0000071 0.0002335 0.0000569 -0.0002580 -0.0003305 0.0004919 -0.0001754 0.0005396 -0.0000195 0.0006114 -0.0000943 0.0003195 -0.0000962 0.0001853 0.0000762 0.0005995
0.0002472 0.0012309 -0.0007585 -0.0038314 -0.0000071 0.0002870 0.0000509 -0.0002157 -0.0004483 0.0007033 -0.0001690 0.0006315 -0.0000224 0.0006557 -0.0001042 0.0003402 -0.0000894 0.0003315 0.0000688 0.0006775
0.0013946 0.0005096 0.0084320 -0.0101892 -0.0000118 0.0003403 0.0000723 -0.0001722 -0.0002254 0.0006697 -0.0001681 0.0007484 -0.0000197 0.0007249 -0.0001120 0.0004000 -0.0000836 0.0004708 0.0000517 0.0007864
0.0012090 0.0010200 0.0074452 -0.0100191 -0.0000163 0.0003645 0.0000564 -0.0001175 -0.0000919 0.0005922 -0.0001711 0.0007499 -0.0000122 0.0007183 -0.0001089 0.0003247 -0.0000886 0.0003942 0.0000337 0.0007639
0.0019495 0.0002748 -0.0138567 0.0092858 -0.0000250 0.0003005 0.0000291 -0.0001508 -0.0001360 0.0005076 -0.0001717 0.0006192 -0.0000069 0.0006066 -0.0001062 0.0001464 -0.0000931 0.0002177 0.0000359 0.0006409
0.0020800 -0.0003129 -0.0120808 0.0053270 -0.0000312 0.0002147 0.0000030 -0.0002177 0.0000918 0.0001995 -0.0001689 0.0005616 -0.0000099 0.0005636 -0.0000985 0.0000907 -0.0000850 0.0002015 0.0000202 0.0006216
0.0006450 0.0008623 0.0075784 -0.0075137 -0.0000328 0.0002070 -0.0000518 -0.0001693 0.0002065 0.0002042 -0.0001671 0.0005946 -0.0000234 0.0005842 -0.0000977 0.0001343 -0.0000878 0.0002705 0.0000100 0.0006950
0.0004529 0.0010197 0.0070358 -0.0065034 -0.0000353 0.0002360 -0.0000823 -0.0001103 0.0002810 0.0001757 -0.0001689 0.0006461 -0.0000407 0.0006560 -0.0001034 0.0002052 -0.0000903 0.0003774 0.0000104 0.0008304
0.0006882 0.0010745 -0.0035009 0.0073636 -0.0000413 0.0002794 -0.0001033 -0.0000414 0.0002472 0.0003000 -0.0001725 0.0007269 -0.0000717 0.0007501 -0.0001093 0.0002729 -0.0000726 0.0005268 0.0000276 0.0009493
0.0005030 0.0013691 -0.0079822 0.0109416 -0.0000448 0.0002896 -0.0001500 0.0000015 0.0001013 0.0004605 -0.0001860 0.0006947 -0.0000770 0.0006742 -0.0000969 0.0002269 -0.0000467 0.0005218 0.0000609 0.0009581
0.0000570 0.0014076 -0.0007465 -0.0109150 -0.0000428 0.0001961 -0.0000917 -0.0001209 0.0000376 0.0002319 -0.0001973 0.0005209 -0.0000691 0.0005379 -0.0000648 0.0001224 -0.0000296 0.0004026 0.0000832 0.0009042
-0.0000921 0.0013480 0.0031795 -0.0153202 -0.0000389 0.0001080 -0.0000346 -0.0002010 -0.0000675 0.0002291 -0.0001739 0.0004941 -0.0000608 0.0005278 -0.0000649 0.0000704 -0.0000238 0.0004271 0.0001161 0.0008242
0.0002136 0.0011845 0.0050825 -0.0060520 -0.0000301 0.0001053 -0.0000400 -0.0001559 -0.0002931 0.0005199 -0.0001328 0.0006097 -0.0000491 0.0006049 -0.0000892 0.0000714 -0.0000113 0.0005623 0.0001373 0.0008062
0.0002867 0.0013284 -0.0008486 0.0040368 -0.0000260 0.0001481 0.0000166 -0.0001232 -0.0003992 0.0006446 -0.0001053 0.0007192 -0.0000197 0.0006970 -0.0001056 0.0001530 0.0000005 0.0007231 0.0001493 0.0008499
-0.0005425 0.0024539 -0.0016545 -0.0078636 -0.0000237 0.0002009 0.0000299 -0.0000557 -0.0003963 0.0007304 -0.0000840 0.0008469 0.0000024 0.0008201 -0.0001195 0.0002281 -0.0000190 0.0008363 0.0000913 0.0008539
-0.0004062 0.0025763 0.0139616 -0.0339258 -0.0000144 0.0001734 0.0000743 -0.0000322 -0.0004444 0.0007653 -0.0000633 0.0008736 0.0000002 0.0008791 -0.0001291 0.0001053 -0.0000269 0.0007548 0.0000365 0.0008715
0.0004522 0.0016607 0.0055792 -0.0121868 -0.0000018 0.0001032 0.0001236 -0.0000549 -0.0002266 0.0004717 -0.0000667 0.0006923 0.0000040 0.0007878 -0.0000711 0.0000597 -0.0000120 0.0005563 0.0000325 0.0009732
0.0006582 0.0013822 -0.0040242 0.0071743 0.0000242 0.0001004 0.0000784 0.0000031 -0.0001613 0.0003562 -0.0000516 0.0005886 0.0000387 0.0008433 0.0000265 0.0003559 -0.0000276 0.0004807 0.0000681 0.0012029
0.0015162 0.0010197 -0.0054252 0.0052924 0.0000583 0.0001547 0.0000782 0.0001539 0.0001134 0.0001743 -0.0000189 0.0006372 0.0000597 0.0009560 0.0000677 0.0005867 -0.0000324 0.0005501 0.0001139 0.0013864
0.0015666 0.0013916 -0.0042140 -0.0036725 0.0000692 0.0001856 0.0000857 0.0003051 0.0003460 0.0001855 -0.0000174 0.0006805 0.0000411 0.0009590 0.0000572 0.0005999 -0.0000011 0.0007081 0.0001029 0.0014170
0.0018484 0.0013114 -0.0141500 0.0074916 0.0000555 0.0001964 0.0000318 0.0004202 0.0001959 0.0005293 -0.0000248 0.0007678 0.0000166 0.0009838 0.0000216 0.0005818 0.0000291 0.0009188 0.0000653 0.0014204
0.0019513 0.0012165 -0.0151169 0.0147463 0.0000399 0.0002171 -0.0000329 0.0005313 0.0002479 0.0005218 -0.0000333 0.0007732 -0.0000114 0.0009090 -0.0000090 0.0004457 0.0000481 0.0009077 0.0000287 0.0013448
0.0013756 0.0012833 -0.0077767 0.0099068 0.0000325 0.0001655 -0.0000546 0.0004660 0.0002404 0.0003683 -0.0000444 0.0006313 -0.0000169 0.0007420 -0.0000097 0.0002317 0.0000669 0.0007022 0.0000510 0.0011951
0.0009560 0.0009472 0.0123488 -0.0179139 0.0000262 0.0000798 -0.0000539 0.0003373 0.0000419 0.0003305 -0.0000529 0.0005216 -0.0000253 0.0006505 -0.0000076 0.0001919 0.0000652 0.0006498 0.0000576 0.0011058
0.0003914 0.0015183 0.0159460 -0.0190639 0.0000208 0.0000378 -0.0000247 0.0002806 -0.0000821 0.0003286 -0.0000528 0.0005112 -0.0000399 0.0006453 -0.0000031 0.0002981 0.0000522 0.0007204 0.0000656 0.0011138
-0.0001761 0.0023113 0.0077081 -0.0068065 0.0000188 0.0000673 0.0000039 0.0002942 -0.0001101 0.0004185 -0.0000611 0.0005302 -0.0000486 0.0006763 0.0000147 0.0004693 0.0000438 0.0007989 0.0001023 0.0012121
-0.0009812 0.0029972 0.0092490 -0.0122616 0.0000203 0.0001580 0.0000426 0.0003123 -0.0002370 0.0006499 -0.0000728 0.0005793 -0.0000702 0.0007424 0.0000203 0.0006338 0.0000242 0.0008662 0.0001078 0.0013224
-0.0009674 0.0031727 0.0076619 -0.0217865 0.0000245 0.0002312 0.0000696 0.0003458 -0.0002936 0.0007519 -0.0000784 0.0006195 -0.0000630 0.0007488 0.0000217 0.0006456 0.0000128 0.0008399 0.0001229 0.0013139
-0.0003404 0.0024462 -0.0042342 -0.0045526 0.0000239 0.0002134 0.0000593 0.0003502 -0.0003804 0.0007916 -0.0000886 0.0005366 -0.0000418 0.0006844 0.0000332 0.0005478 0.0000218 0.0006987 0.0001100 0.0012002
0.0003071 0.0015181 -0.0079435 0.0138912 0.0000213 0.0001334 0.0000809 0.0002134 -0.0002380 0.0005188 -0.0000974 0.0004109 -0.0000437 0.0006151 0.0000293 0.0005150 0.0000200 0.0006235 0.0000914 0.0011694
0.0001391 0.0016883 -0.0102570 0.0147991 0.0000211 0.0001087 0.0000658 0.0001684 -0.0001276 0.0003166 -0.0001041 0.0003683 -0.0000393 0.0005685 0.0000267 0.0005515 0.0000240 0.0006715 0.0001037 0.0012506
0.0007826 0.0013310 0.0032509 -0.0054379 0.0000179 0.0001461 0.0000324 0.0002187 -0.0001859 0.0004923 -0.0001164 0.0003905 -0.0000441 0.0006024 0.0000549 0.0007234 0.0000355 0.0007787 0.0001164 0.0014331
0.0018461 0.0006694 0.0083224 -0.0203854 0.0000273 0.0002373 0.0000385 0.0002505 0.0000481 0.0005399 -0.0001196 0.0004645 -0.0000355 0.0006856 0.0000815 0.0009318 0.0000325 0.0009345 -0.0001739 0.0013894
0.0011633 0.0017643 -0.0019816 -0.0014176 0.0000441 0.0002888 0.0000583 0.0003117 0.0000789 0.0006418 -0.0000975 0.0006137 -0.0000356 0.0007882 0.0000550 0.0009032 0.0000288 0.0010479 -0.0004994 0.0013091
0.0010691 0.0021245 -0.0059853 0.0074420 0.0000342 0.0002285 0.0000283 0.0003577 0.0000620 0.0005804 -0.0000930 0.0006266 -0.0000573 0.0007470 0.0000063 0.0006539 0.0000326 0.0009441 -0.0003891 0.0013281
0.0013004 0.0013067 -0.0073359 0.0030367 0.0000112 0.0001453 -0.0000151 0.0002366 0.0001450 0.0002397 -0.0000966 0.0005234 -0.0000658 0.0005992 -0.0000222 0.0004032 0.0000368 0.0007898 -0.0003030 0.0011728
0.0011152 0.0010409 -0.0017290 0.0037335 -0.0000042 0.0001307 -0.0000757 0.0000946 0.0002088 0.0000500 -0.0000789 0.0005782 -0.0000525 0.0006285 -0.0000396 0.0003636 0.0000187 0.0007777 -0.0002976 0.0011395
0.0007817 0.0015746 0.0063921 -0.0034440 -0.0000102 0.0001755 -0.0001188 -0.0000278 0.0001181 0.0001395 -0.0000680 0.0006690 -0.0000576 0.0007271 -0.0000490 0.0004554 -0.0000114 0.0008144 -0.0002588 0.0012295
0.0005990 0.0019473 0.0101643 -0.0120932 -0.0000123 0.0002362 -0.0001164 -0.0000902 -0.0000156 0.0002975 -0.0000661 0.0007456 -0.0000556 0.0007924 -0.0000513 0.0005725 -0.0000216 0.0008999 -0.0002293 0.0013062
-0.0000620 0.0024987 0.0010100 0.0024349 -0.0000082 0.0003306 -0.0001632 0.0000019 -0.0000134 0.0004092 -0.0000710 0.0008407 -0.0000298 0.0008619 -0.0000537 0.0006799 -0.0000313 0.0009790 -0.0002328 0.0013710
-0.0006460 0.0030681 0.0037457 -0.0012105 -0.0000035 0.0003739 -0.0001091 -0.0000062 -0.0001210 0.0004233 -0.0000749 0.0008220 -0.0000415 0.0008019 -0.0000699 0.0005516 -0.0000357 0.0008998 -0.0002499 0.0013388
-0.0006392 0.0026866 0.0053402 -0.0126631 -0.0000152 0.0003058 -0.0000490 -0.0001427 -0.0002541 0.0004637 -0.0000773 0.0007038 -0.0000371 0.0006654 -0.0000777 0.0003387 -0.0000328 0.0007419 -0.0002269 0.0012338
-0.0004326 0.0020646 0.0113574 -0.0202974 -0.0000254 0.0002460 -0.0000624 -0.0002953 -0.0004753 0.0005787 -0.0000764 0.0006298 -0.0000410 0.0006262 -0.0000764 0.0002901 -0.0000527 0.0006816 -0.0002312 0.0011997
0.0002396 0.0016607 0.0073168 -0.0101054 -0.0000323 0.0002272 -0.0000147 -0.0004225 -0.0004392 0.0004022 -0.0000726 0.0006437 -0.0000247 0.0006289 -0.0000826 0.0003085 -0.0000681 0.0007355 -0.0002519 0.0012333
0.0003897 0.0018459 -0.0136627 0.0137884 -0.0000449 0.0002618 -0.0000055 -0.0004332 -0.0003791 0.0004369 -0.0000757 0.0007122 -0.0000004 0.0006602 -0.0000939 0.0003507 -0.0000663 0.0008438 -0.0002454 0.0013126
0.0007061 0.0017151 -0.0136806 0.0151827 -0.0000497 0.0003531 -0.0000325 -0.0004085 -0.0003898 0.0006034 -0.0000924 0.0007886 -0.0000183 0.0006924 -0.0001047 0.0004122 -0.0000775 0.0009213 -0.0002119 0.0013976
0.0010255 0.0014905 -0.0081113 0.0106335 -0.0000497 0.0004318 -0.0000544 -0.0004176 -0.0001489 0.0004165 -0.0001089 0.0007706 -0.0000202 0.0006424 -0.0001068 0.0003629 -0.0001049 0.0008215 -0.0001872 0.0013792
0.0010492 0.0013784 0.0004737 0.0056742 -0.0000543 0.0004175 -0.0000933 -0.0004958 -0.0000590 0.0002591 -0.0001193 0.0006470 -0.0000168 0.0005262 -0.0001037 0.0001989 -0.0001230 0.0006256 -0.0001688 0.0012567
0.0015291 0.0006149 -0.0027415 0.0006131 -0.0000545 0.0003477 -0.0001265 -0.0006001 0.0001932 -0.0000748 -0.0001287 0.0005667 -0.0000307 0.0004647 -0.0001095 0.0001224 -0.0001420 0.0005546 -0.0001479 0.0011873
0.0014694 0.0006804 -0.0052960 -0.0016404 -0.0000552 0.0003367 -0.0001761 -0.0006043 0.0003134 -0.0001109 -0.0001352 0.0005537 -0.0000509 0.0004532 -0.0001147 0.0001259 -0.0001662 0.0005603 -0.0001391 0.0011722
0.0011698 0.0008071 0.0014875 -0.0009552 -0.0000589 0.0003761 -0.0002512 -0.0005453 0.0001449 0.0001161 -0.0001443 0.0005666 -0.0000629 0.0004401 -0.0001180 0.0001492 -0.0001815 0.0005933 -0.0001395 0.0011382
0.0012092 0.0006301 0.0043236 -0.0035870 -0.0000629 0.0004433 -0.0002471 -0.0005421 0.0000228 0.0002753 -0.0001526 0.0006073 -0.0000807 0.0004370 -0.0001311 0.0002029 -0.0002075 0.0006312 -0.0001522 0.0011269
0.0001101 0.0015914 0.0074933 -0.0084544 -0.0000667 0.0004778 -0.0002450 -0.0005741 -0.0001189 0.0004440 -0.0001608 0.0005793 -0.0000903 0.0003510 -0.0001395 0.0001351 -0.0002354 0.0005507 -0.0001323 0.0010442
-0.0008622 0.0020143 0.0185804 -0.0324905 -0.0000677 0.0004325 -0.0002715 -0.0006415 -0.0002813 0.0004572 -0.0001717 0.0004773 -0.0000954 0.0002618 -0.0001390 0.0000015 -0.0002401 0.0004462 -0.0001185 0.0009510
-0.0006911 0.0018211 0.0161956 -0.0255603 -0.0000704 0.0003862 -0.0002307 -0.0007573 -0.0004359 0.0005310 -0.0001759 0.0004307 -0.0000863 0.0002253 -0.0001457 -0.0000425 -0.0002364 0.0004450 -0.0001229 0.0009533
-0.0006077 0.0021265 0.0010105 0.0019943 -0.0000754 0.0003846 -0.0002243 -0.0007795 -0.0005013 0.0005958 -0.0001752 0.0004479 -0.0000736 0.0002129 -0.0001551 -0.0000448 -0.0002341 0.0004979 -0.0001153 0.0009718
-0.0002847 0.0017789 0.0043033 -0.0009764 -0.0000810 0.0004086 -0.0001435 -0.0008070 -0.0005194 0.0006508 -0.0001788 0.0004964 -0.0000841 0.0002627 -0.0001673 -0.0000040 -0.0002386 0.0005790 -0.0001196 0.0010342
-0.0000825 0.0017324 0.0008388 0.0112311 -0.0000870 0.0004595 -0.0000929 -0.0007837 -0.0004337 0.0007264 -0.0001856 0.0005646 -0.0000813 0.0002915 -0.0001757 0.0000131 -0.0002480 0.0005969 -0.0001267 0.0010597
-0.0002116 0.0019290 -0.0037119 0.0149096 -0.0000882 0.0004400 -0.0001287 -0.0007875 -0.0004642 0.0007676 -0.0001911 0.0005084 -0.0000736 0.0002141 -0.0001759 -0.0001028 -0.0002520 0.0004885 -0.0001499 0.0009712
0.0001537 0.0013286 -0.0032205 0.0040943 -0.0000894 0.0003492 -0.0001380 -0.0008842 -0.0002625 0.0004451 -0.0001960 0.0003580 -0.0000689 0.0001005 -0.0001804 -0.0002276 -0.0002527 0.0003837 -0.0001619 0.0008975
0.0003831 0.0010013 -0.0121457 0.0095093 -0.0000938 0.0002991 -0.0001892 -0.0009159 -0.0000212 0.0001139 -0.0001924 0.0002937 -0.0000687 0.0000476 -0.0001779 -0.0002736 -0.0002477 0.0003756 -0.0001662 0.0009020
0.0013841 0.0001327 -0.0083880 0.0103173 -0.0000961 0.0002912 -0.0002394 -0.0008983 -0.0001175 0.0002433 -0.0001899 0.0003093 -0.0000781 0.0000611 -0.0001793 -0.0002765 -0.0002423 0.0004210 -0.0001973 0.0009588
0.0017015 0.0001058 0.0010250 0.0043593 -0.0000973 0.0003073 -0.0002655 -0.0008441 0.0000105 0.0003340 -0.0001926 0.0003578 -0.0000939 0.0001005 -0.0001853 -0.0002389 -0.0002421 0.0004892 -0.0002280 0.0010374
0.0012610 0.0006782 0.0031740 0.0043268 -0.0000985 0.0003476 -0.0002949 -0.0007956 0.0000863 0.0003020 -0.0001965 0.0003847 -0.0000989 0.0000892 -0.0001842 -0.0002682 -0.0002447 0.0004520 -0.0002275 0.0010161
0.0011058 0.0005994 0.0099257 -0.0103945 -0.0000972 0.0003037 -0.0003341 -0.0008485 -0.0001215 0.0002859 -0.0002025 0.0002906 -0.0001062 0.0000057 -0.0001841 -0.0004121 -0.0002471 0.0003039 -0.0002212 0.0008966
0.0009329 0.0004022 0.0171810 -0.0347384 -0.0000952 0.0001779 -0.0003219 -0.0010088 -0.0001087 0.0000576 -0.0001995 0.0001463 -0.0001162 -0.0000943 -0.0001833 -0.0005260 -0.0002434 0.0002088 -0.0002280 0.0008288
0.0003387 0.0007611 -0.0019299 0.0050658 -0.0000967 0.0001174 -0.0003500 -0.0010582 -0.0000703 -0.0000194 -0.0001963 0.0001006 -0.0001239 -0.0001119 -0.0001817 -0.0005407 -0.0002369 0.0002173 -0.0002180 0.0008249
-0.0006417 0.0015873 0.0002387 0.0063454 -0.0000981 0.0001224 -0.0003381 -0.0010739 -0.0002150 0.0001426 -0.0001944 0.0001211 -0.0001400 -0.0000734 -0.0001842 -0.0005220 -0.0002380 0.0002653 -0.0002115 0.0008504
-0.0008092 0.0019449 0.0027701 0.0023508 -0.0001021 0.0001433 -0.0002820 -0.0011068 -0.0003225 0.0002083 -0.0001910 0.0001698 -0.0001415 -0.0000547 -0.0001965 -0.0004822 -0.0002475 0.0003301 -0.0001936 0.0008754
-0.0003689 0.0017997 -0.0047113 0.0084701 -0.0001058 0.0001757 -0.0002871 -0.0010649 -0.0004394 0.0003014 -0.0001926 0.0001653 -0.0001397 -0.0000614 -0.0002041 -0.0005142 -0.0002507 0.0002783 -0.0001763 0.0008376
0.0002744 0.0010738 0.0017484 -0.0043220 -0.0001052 0.0001177 -0.0002376 -0.0011824 -0.0003981 0.0001406 -0.0001927 0.0000360 -0.0001227 -0.0001710 -0.0001998 -0.0006631 -0.0002504 0.0001035 -0.0001836 0.0007546
-0.0000494 0.0008630 -0.0006166 -0.0013011 -0.0001052 -0.0000005 -0.0002237 -0.0013253 -0.0003712 -0.0000766 -0.0001882 -0.0000656 -0.0000951 -0.0002797 -0.0001959 -0.0007497 -0.0002455 0.0000365 -0.0001935 0.0007176
0.0005071 0.0003797 0.0005862 -0.0009054 -0.0001078 -0.0000349 -0.0002525 -0.0013261 -0.0004673 0.0000311 -0.0001829 -0.0000666 -0.0000920 -0.0002701 -0.0001933 -0.0007239 -0.0002356 0.0000740 -0.0002052 0.0007463
0.0011786 0.0000071 0.0133718 -0.0229486 -0.0001096 -0.0000189 -0.0002406 -0.0013634 -0.0002855 -0.0000746 -0.0001780 -0.0000326 -0.0000790 -0.0002529 -0.0001916 -0.0006814 -0.0002299 0.0001243 -0.0002189 0.0007938
0.0009529 0.0003788 -0.0026613 -0.0001316 -0.0001122 0.0000078 -0.0002662 -0.0013257 -0.0002025 -0.0000596 -0.0001807 0.0000468 -0.0000778 -0.0002074 -0.0001911 -0.0006256 -0.0002294 0.0001958 -0.0002438 0.0008697
0.0010073 0.0007045 -0.0105451 0.0148200 -0.0001120 0.0000380 -0.0003033 -0.0012509 -0.0001644 -0.0000314 -0.0001873 0.0000564 -0.0000860 -0.0002095 -0.0001853 -0.0006676 -0.0002295 0.0001346 -0.0002480 0.0008431
0.0007633 0.0004474 -0.0014153 -0.0011644 -0.0001080 -0.0000165 -0.0003072 -0.0013475 0.0000402 -0.0003896 -0.0001812 -0.0000668 -0.0000895 -0.0002894 -0.0001716 -0.0008016 -0.0002236 -0.0000385 -0.0002392 0.0007336
0.0006855 0.0001577 -0.0021407 0.0069546 -0.0001099 -0.0001117 -0.0003690 -0.0014285 0.0000418 -0.0004887 -0.0001663 -0.0001331 -0.0001000 -0.0002703 -0.0001495 -0.0008144 -0.0002182 -0.0001002 -0.0002303 0.0007593
0.0002583 0.0009524 0.0048945 0.0047215 -0.0001015 -0.0001768 -0.0003821 -0.0014231 0.0001118 -0.0006370 -0.0001417 -0.0000797 -0.0001120 -0.0001332 -0.0001327 -0.0007562 -0.0001892 -0.0000087 -0.0002229 0.0008764
-0.0001360 0.0016233 0.0048672 0.0025088 -0.0000895 -0.0001936 -0.0003527 -0.0013506 0.0001203 -0.0006668 -0.0001135 0.0000242 -0.0001185 0.0000575 -0.0001275 -0.0006590 -0.0001547 0.0001444 -0.0001983 0.0009508
-0.0002713 0.0018511 -0.0026147 0.0085399 -0.0000880 -0.0001310 -0.0003923 -0.0012024 -0.0000570 -0.0003684 -0.0001052 0.0001373 -0.0001064 0.0001604 -0.0001322 -0.0005407 -0.0001489 0.0002555 -0.0001677 0.0010171
-0.0000561 0.0015002 -0.0005718 -0.0026304 -0.0000896 -0.0000472 -0.0003617 -0.0011842 -0.0001691 -0.0002192 -0.0001051 0.0001731 -0.0001011 0.0001361 -0.0001404 -0.0005538 -0.0001553 0.0002124 -0.0001633 0.0010240
-0.0003440 0.0014259 -0.0024967 -0.0001437 -0.0000929 -0.0000498 -0.0003309 -0.0012808 -0.0003185 -0.0001989 -0.0001057 0.0000880 -0.0000842 0.0000467 -0.0001390 -0.0006533 -0.0001640 0.0000515 -0.0001430 0.0009139
-0.0001079 0.0009095 0.0004269 0.0040700 -0.0000952 -0.0001215 -0.0003312 -0.0014112 -0.0005459 -0.0001345 -0.0001076 0.0000158 -0.0000741 -0.0000226 -0.0001375 -0.0006885 -0.0001660 -0.0000022 -0.0001331 0.0008573
0.0002135 0.0006622 0.0033818 0.0002938 -0.0000985 -0.0001385 -0.0002613 -0.0015272 -0.0004587 -0.0001560 -0.0001046 0.0000344 -0.0000436 -0.0000432 -0.0001442 -0.0006419 -0.0001619 0.0000459 -0.0001470 0.0008961
-0.0007203 0.0015980 -0.0040727 0.0020638 -0.0001005 -0.0001005 -0.0002540 -0.0015088 -0.0003079 -0.0001887 -0.0001034 0.0000916 -0.0000254 -0.0000205 -0.0001448 -0.0005771 -0.0001638 0.0001125 -0.0001515 0.0009502
-0.0000667 0.0012340 -0.0195124 0.0094901 -0.0001029 -0.0000467 -0.0002614 -0.0014752 -0.0003218 -0.0001268 -0.0001099 0.0001846 -0.0000471 0.0000511 -0.0001501 -0.0004962 -0.0001701 0.0001982 -0.0001672 0.0010342
0.0009469 0.0007250 -0.0137164 0.0079545 -0.0001092 0.0000165 -0.0002426 -0.0014301 -0.0001545 -0.0000834 -0.0001141 0.0002836 -0.0000560 0.0001223 -0.0001491 -0.0004525 -0.0001723 0.0002311 -0.0001963 0.0010975
0.0013810 0.0003980 -0.0007855 0.0094434 -0.0001075 0.0000241 -0.0002602 -0.0014115 -0.0000777 -0.0000991 -0.0001175 0.0002536 -0.0000600 0.0001051 -0.0001377 -0.0005169 -0.0001775 0.0001302 -0.0002073 0.0010487
0.0016572 -0.0001056 0.0007397 0.0069665 -0.0000989 -0.0000438 -0.0002930 -0.0015190 0.0001527 -0.0005771 -0.0001167 0.0001395 -0.0000578 0.0000548 -0.0001396 -0.0005684 -0.0001786 0.0000465 -0.0002125 0.0010092
0.0014143 0.0000553 -0.0066284 0.0139414 -0.0001030 -0.0000736 -0.0003426 -0.0015487 0.0003183 -0.0007238 -0.0001107 0.0001201 -0.0000627 0.0000670 -0.0001378 -0.0005492 -0.0001758 0.0000660 -0.0002078 0.0010246
0.0011842 0.0001925 -0.0119610 0.0159389 -0.0001091 -0.0000578 -0.0004298 -0.0014624 0.0002411 -0.0004993 -0.0001087 0.0001731 -0.0000756 0.0001119 -0.0001379 -0.0005043 -0.0001728 0.0001281 -0.0002029 0.0010534
0.0009442 0.0003224 -0.0070297 0.0081600 -0.0001039 -0.0000237 -0.0004447 -0.0014053 0.0001488 -0.0003883 -0.0001066 0.0002455 -0.0000845 0.0001853 -0.0001418 -0.0004146 -0.0001740 0.0002195 -0.0002209 0.0011323
0.0006946 0.0007676 -0.0037323 0.0040280 -0.0001023 0.0000338 -0.0004259 -0.0013556 -0.0000193 -0.0001584 -0.0001082 0.0003374 -0.0000882 0.0002523 -0.0001481 -0.0003223 -0.0001837 0.0003084 -0.0002075 0.0011874
0.0002662 0.0011859 0.0125431 -0.0137685 -0.0001053 0.0000731 -0.0004357 -0.0013061 -0.0002260 0.0000748 -0.0001134 0.0003522 -0.0000917 0.0002602 -0.0001531 -0.0003430 -0.0001944 0.0002712 -0.0001943 0.0011595
-0.0007222 0.0016644 0.0109070 -0.0078256 -0.0001060 0.0000342 -0.0003595 -0.0013817 -0.0003574 0.0000950 -0.0001126 0.0002571 -0.0000746 0.0001968 -0.0001471 -0.0004338 -0.0002010 0.0001524 -0.0002014 0.0010867
-0.0014775 0.0021445 0.0029632 0.0012959 -0.0001079 -0.0000261 -0.0003267 -0.0014655 -0.0004012 -0.0000286 -0.0001082 0.0002185 -0.0000524 0.0001782 -0.0001430 -0.0004348 -0.0002012 0.0001375 -0.0002014 0.0010552
-0.0008469 0.0016829 0.0108808 -0.0099970 -0.0001086 -0.0000321 -0.0002559 -0.0015431 -0.0004135 -0.0000033 -0.0001087 0.0002636 -0.0000539 0.0002277 -0.0001487 -0.0003820 -0.0002041 0.0002008 -0.0002081 0.0010955
-0.0005099 0.0016020 0.0034094 -0.0016624 -0.0001124 -0.0000008 -0.0002039 -0.0015401 -0.0003197 0.0000691 -0.0001120 0.0003292 -0.0000491 0.0002758 -0.0001530 -0.0003168 -0.0002088 0.0002853 -0.0002172 0.0011570
-0.0004201 0.0017578 -0.0045695 0.0127823 -0.0001192 0.0000597 -0.0002513 -0.0014081 -0.0003604 0.0002390 -0.0001145 0.0004145 -0.0000480 0.0003475 -0.0001590 -0.0002289 -0.0002103 0.0003763 -0.0002264 0.0012239
0.0007727 0.0010397 -0.0030710 0.0073371 -0.0001197 0.0001246 -0.0002632 -0.0013050 -0.0000428 0.0001090 -0.0001229 0.0004672 -0.0000525 0.0003695 -0.0001688 -0.0002135 -0.0002219 0.0003722 -0.0002364 0.0012413
0.0011195 0.0006979 0.0052248 -0.0097890 -0.0001177 0.0001003 -0.0002874 -0.0012953 0.0002792 -0.0001732 -0.0001259 0.0003910 -0.0000466 0.0002866 -0.0001634 -0.0003147 -0.0002307 0.0002498 -0.0002511 0.0011719
0.0013549 -0.0000072 -0.0029916 0.0005886 -0.0001152 0.0000129 -0.0003601 -0.0013272 0.0001587 -0.0001374 -0.0001258 0.0002852 -0.0000563 0.0002484 -0.0001572 -0.0003609 -0.0002259 0.0001939 -0.0002618 0.0011375
0.0014323 0.0000400 -0.0091697 0.0149166 -0.0001118 -0.0000169 -0.0004047 -0.0013030 0.0000801 -0.0000919 -0.0001271 0.0002634 -0.0000796 0.0002864 -0.0001535 -0.0003196 -0.0002264 0.0002102 -0.0002884 0.0011736
0.0007460 0.0009179 0.0020946 -0.0036408 -0.0001103 -0.0000198 -0.0003769 -0.0012713 0.0000672 -0.0000427 -0.0001235 0.0002950 -0.0000887 0.0003510 -0.0001407 -0.0002461 -0.0002390 0.0002502 -0.0003244 0.0012179
0.0005379 0.0013574 0.0167575 -0.0275078 -0.0001015 -0.0000454 -0.0003794 -0.0011391 -0.0000085 0.0001158 -0.0001125 0.0003922 -0.0000979 0.0004914 -0.0001400 -0.0001529 -0.0002278 0.0004051 -0.0004181 0.0013044
0.0005958 0.0016137 0.0111581 -0.0100184 -0.0000945 -0.0000240 -0.0003532 -0.0010122 -0.0001432 0.0002485 -0.0001030 0.0004977 -0.0001076 0.0006192 -0.0001443 -0.0000851 -0.0002136 0.0005253 -0.0004287 0.0013920
-0.0003111 0.0022584 0.0002348 0.0051168 -0.0000932 0.0000214 -0.0003141 -0.0009873 -0.0001755 0.0003458 -0.0001058 0.0004578 -0.0001021 0.0006222 -0.0001212 -0.0000345 -0.0002174 0.0004211 -0.0002979 0.0014198
-0.0007815 0.0023726 -0.0010897 0.0071086 -0.0000635 0.0000279 -0.0002393 -0.0010272 -0.0001927 0.0003956 -0.0001076 0.0002766 -0.0001044 0.0005555 -0.0000906 -0.0000293 -0.0002136 0.0002707 -0.0002299 0.0013772
-0.0005271 0.0018720 0.0025566 -0.0041161 -0.0000419 -0.0000176 -0.0001526 -0.0010855 -0.0002377 0.0003700 -0.0001000 0.0001783 -0.0000846 0.0004956 -0.0000808 -0.0000250 -0.0002149 0.0002535 -0.0002211 0.0013098
-0.0006468 0.0020556 0.0035309 -0.0009681 -0.0000514 -0.0000779 -0.0001845 -0.0010033 -0.0003753 0.0005580 -0.0000912 0.0001941 -0.0000795 0.0005185 -0.0000818 0.0000374 -0.0002175 0.0003225 -0.0002325 0.0013180
-0.0001413 0.0019312 0.0009463 0.0025065 -0.0000529 -0.0000918 -0.0001635 -0.0008675 -0.0001998 0.0006333 -0.0000949 0.0002076 -0.0000909 0.0005677 -0.0000414 0.0002590 -0.0002306 0.0003960 -0.0003292 0.0014573
0.0004466 0.0018539 0.0072632 -0.0167352 -0.0000165 -0.0000547 -0.0001150 -0.0006979 0.0000730 0.0005239 -0.0000946 0.0002743 -0.0000822 0.0006368 -0.0000083 0.0004530 -0.0002302 0.0004967 -0.0003473 0.0016940
0.0016606 0.0012570 0.0056833 -0.0125303 -0.0000015 0.0000370 -0.0001783 -0.0005539 -0.0000608 0.0007711 -0.0001071 0.0003352 -0.0000870 0.0006727 -0.0000262 0.0004162 -0.0002268 0.0004754 -0.0002398 0.0017967
0.0023544 0.0005342 -0.0046234 0.0029341 -0.0000249 0.0000339 -0.0002376 -0.0006108 -0.0000012 0.0007477 -0.0001289 0.0002128 -0.0000971 0.0005335 -0.0000385 0.0002539 -0.0002434 0.0002746 -0.0002092 0.0017045
0.0017189 0.0007443 0.0001637 0.0040971 -0.0000269 -0.0000991 -0.0002563 -0.0007399 0.0001518 0.0004062 -0.0001270 0.0000470 -0.0001074 0.0004042 -0.0000448 0.0001143 -0.0002388 0.0001772 -0.0002414 0.0015772
0.0010910 0.0012181 0.0044565 -0.0040988 -0.0000249 -0.0001663 -0.0002951 -0.0007749 0.0001854 0.0003111 -0.0001292 -0.0000186 -0.0001171 0.0003622 -0.0000474 0.0000824 -0.0002263 0.0001898 -0.0002424 0.0015421
0.0007761 0.0014994 -0.0055461 -0.0034605 -0.0000247 -0.0001372 -0.0002876 -0.0008140 0.0002289 0.0002368 -0.0001324 -0.0000273 -0.0001262 0.0003290 -0.0000506 0.0000918 -0.0002281 0.0002231 -0.0002182 0.0015714
0.0002745 0.0017922 -0.0054819 0.0005814 -0.0000267 -0.0000947 -0.0002928 -0.0008002 0.0000370 0.0004252 -0.0001301 0.0000284 -0.0001476 0.0003521 -0.0000628 0.0001386 -0.0002413 0.0003009 -0.0002263 0.0015645
0.0002329 0.0020657 0.0068767 -0.0071936 -0.0000248 -0.0000619 -0.0002760 -0.0007519 -0.0001889 0.0007299 -0.0001259 0.0001438 -0.0001706 0.0004435 -0.0000841 0.0001831 -0.0002478 0.0004225 -0.0002577 0.0015599
0.0000098 0.0024630 0.0104758 -0.0188505 -0.0000205 -0.0000175 -0.0002303 -0.0007340 -0.0002371 0.0006896 -0.0001115 0.0002011 -0.0001502 0.0004492 -0.0001095 0.0001001 -0.0002414 0.0004299 -0.0002547 0.0014834
-0.0006880 0.0026339 0.0029013 -0.0095204 -0.0000252 -0.0000529 -0.0002247 -0.0007519 -0.0003409 0.0006453 -0.0001030 0.0001250 -0.0001335 0.0003578 -0.0001251 -0.0000576 -0.0002456 0.0003093 -0.0002883 0.0013296
-0.0003138 0.0019690 0.0049137 -0.0049240 -0.0000293 -0.0001745 -0.0001768 -0.0008594 -0.0002395 0.0004085 -0.0000965 0.0000508 -0.0001232 0.0002994 -0.0001373 -0.0001374 -0.0002446 0.0003002 -0.0003561 0.0012183
-0.0002514 0.0019464 0.0058679 -0.0028391 -0.0000378 -0.0002126 -0.0001269 -0.0009271 -0.0001576 0.0001672 -0.0000881 0.0000551 -0.0000955 0.0002851 -0.0001477 -0.0001565 -0.0002306 0.0003678 -0.0003972 0.0011793
0.0011305 0.0010739 -0.0070176 0.0080689 -0.0000487 -0.0001749 -0.0001737 -0.0008996 -0.0003012 0.0002483 -0.0000876 0.0000876 -0.0000924 0.0003340 -0.0001450 -0.0000892 -0.0002352 0.0004147 -0.0004183 0.0012275
0.0018991 0.0008121 -0.0115927 -0.0008691 -0.0000454 -0.0001224 -0.0002273 -0.0008529 -0.0001065 0.0002093 -0.0000935 0.0001410 -0.0000881 0.0003748 -0.0001373 0.0000279 -0.0002472 0.0004733 -0.0004249 0.0013543
0.0012748 0.0014450 -0.0124011 0.0093248 -0.0000428 -0.0000482 -0.0002418 -0.0007847 -0.0000088 0.0003502 -0.0001050 0.0002174 -0.0000958 0.0004268 -0.0001262 0.0001353 -0.0002555 0.0005242 -0.0004086 0.0014782
0.0015989 0.0010277 -0.0088723 0.0136347 -0.0000371 0.0000005 -0.0002872 -0.0007288 0.0000224 0.0003874 -0.0001152 0.0001966 -0.0001086 0.0004290 -0.0001161 0.0001187 -0.0002709 0.0004222 -0.0003736 0.0014392
0.0012332 0.0011355 0.0062191 -0.0112574 -0.0000223 -0.0000460 -0.0002909 -0.0008064 0.0001488 0.0000625 -0.0001050 0.0000655 -0.0001081 0.0003763 -0.0001020 0.0000189 -0.0002851 0.0002535 -0.0003984 0.0013349
0.0004688 0.0019236 0.0015387 -0.0016604 0.0000018 -0.0001003 -0.0002686 -0.0008076 0.0000842 0.0000430 -0.0000892 0.0000097 -0.0001237 0.0003988 -0.0001045 -0.0000176 -0.0002783 0.0002629 -0.0004305 0.0013136
0.0001404 0.0023598 0.0016467 0.0091633 0.0000064 -0.0001118 -0.0002389 -0.0007543 -0.0000556 0.0001377 -0.0000868 0.0000458 -0.0001576 0.0004059 -0.0001337 -0.0000630 -0.0002583 0.0003706 -0.0004089 0.0013314
0.0001522 0.0021747 0.0037498 -0.0028254 -0.0000106 -0.0000747 -0.0002371 -0.0007706 -0.0001936 0.0001889 -0.0000891 0.0001056 -0.0001470 0.0003884 -0.0001429 0.0000070 -0.0002587 0.0004471 -0.0003363 0.0013693
-0.0001858 0.0023384 -0.0120840 0.0133498 -0.0000107 0.0000145 -0.0002731 -0.0007346 -0.0002779 0.0004298 -0.0000866 0.0002000 -0.0001326 0.0004802 -0.0001381 0.0001681 -0.0002799 0.0005258 -0.0003158 0.0014293
-0.0000651 0.0022758 -0.0114376 0.0236034 -0.0000050 0.0001024 -0.0002329 -0.0007006 -0.0002759 0.0005300 -0.0000893 0.0002682 -0.0001440 0.0005261 -0.0001502 0.0001672 -0.0002904 0.0005279 -0.0003427 0.0014204
0.0004431 0.0018272 -0.0037823 0.0088442 -0.0000035 0.0000762 -0.0001673 -0.0007617 -0.0002925 0.0004073 -0.0000926 0.0002147 -0.0001262 0.0004303 -0.0001589 0.0000221 -0.0002808 0.0004001 -0.0003466 0.0013277
0.0009600 0.0012308 -0.0049907 0.0045238 -0.0000058 -0.0000270 -0.0001745 -0.0008828 -0.0003684 0.0003253 -0.0000889 0.0001110 -0.0001180 0.0003620 -0.0001538 -0.0000560 -0.0002781 0.0003197 -0.0003617 0.0012842
0.0008751 0.0012091 -0.0084549 0.0085333 -0.0000110 -0.0000599 -0.0002123 -0.0009617 -0.0001525 0.0000560 -0.0000875 0.0000786 -0.0000994 0.0003163 -0.0001560 -0.0000627 -0.0002712 0.0003366 -0.0003918 0.0012938
0.0009284 0.0013128 -0.0032119 -0.0007709 -0.0000161 -0.0000401 -0.0002160 -0.0009827 -0.0000667 -0.0000013 -0.0000873 0.0001206 -0.0000905 0.0003254 -0.0001641 -0.0000593 -0.0002590 0.0003951 -0.0004109 0.0013128
0.0017942 0.0007473 -0.0063284 -0.0006757 -0.0000216 0.0000132 -0.0002449 -0.0009706 -0.0000499 0.0000744 -0.0000933 0.0002027 -0.0001046 0.0003677 -0.0001820 -0.0000218 -0.0002593 0.0004873 -0.0004179 0.0013422
0.0017883 0.0007664 -0.0109208 0.0053279 -0.0000337 0.0000848 -0.0002953 -0.0009598 0.0002191 -0.0001428 -0.0000953 0.0002960 -0.0001243 0.0004124 -0.0002018 0.0000179 -0.0002594 0.0005717 -0.0004268 0.0013748
0.0008107 0.0013701 -0.0001581 0.0034408 -0.0000434 0.0001271 -0.0003583 -0.0009264 0.0001821 -0.0000804 -0.0000932 0.0003068 -0.0001478 0.0004075 -0.0002087 -0.0000581 -0.0002669 0.0005134 -0.0004268 0.0013263
0.0004288 0.0012215 0.0039224 -0.0010366 -0.0000457 0.0000738 -0.0003825 -0.0010102 0.0000588 -0.0001834 -0.0000924 0.0001972 -0.0001648 0.0003226 -0.0002100 -0.0002236 -0.0002776 0.0003596 -0.0004282 0.0012196
0.0003341 0.0010491 0.0043778 -0.0022446 -0.0000472 -0.0000073 -0.0003472 -0.0011779 0.0000032 -0.0003394 -0.0000892 0.0001161 -0.0001596 0.0002723 -0.0002141 -0.0002808 -0.0002755 0.0003174 -0.0003992 0.0011622
-0.0000286 0.0015013 0.0029762 0.0034518 -0.0000486 -0.0000260 -0.0003675 -0.0012056 -0.0001129 -0.0002565 -0.0000862 0.0001127 -0.0001463 0.0002594 -0.0002201 -0.0002582 -0.0002720 0.0003598 -0.0003739 0.0011735
-0.0004070 0.0017999 0.0028452 0.0018957 -0.0000503 -0.0000083 -0.0003166 -0.0012529 -0.0002710 -0.0001557 -0.0000843 0.0001478 -0.0001430 0.0002709 -0.0002294 -0.0002212 -0.0002780 0.0004286 -0.0003869 0.0012348
-0.0008414 0.0021577 -0.0042490 0.0077029 -0.0000550 0.0000386 -0.0002859 -0.0012580 -0.0003725 0.0000631 -0.0000860 0.0002142 -0.0001281 0.0003124 -0.0002376 -0.0001469 -0.0002856 0.0005050 -0.0003861 0.0013085
-0.0002041 0.0018825 -0.0053831 0.0076056 -0.0000571 0.0001011 -0.0003042 -0.0011722 -0.0004912 0.0003327 -0.0000895 0.0002866 -0.0001289 0.0003652 -0.0002363 -0.0001070 -0.0002876 0.0005307 -0.0003828 0.0013386
0.0005157 0.0011707 -0.0023483 0.0030883 -0.0000545 0.0000987 -0.0002557 -0.0012174 -0.0003427 0.0001289 -0.0000966 0.0002422 -0.0001089 0.0003011 -0.0002356 -0.0001800 -0.0002918 0.0004483 -0.0003939 0.0012867
0.0006961 0.0008776 -0.0027363 0.0085114 -0.0000555 0.0000225 -0.0002674 -0.0013030 -0.0001387 -0.0001973 -0.0001010 0.0001165 -0.0000858 0.0002012 -0.0002319 -0.0002649 -0.0002919 0.0003627 -0.0004159 0.0012417
0.0008635 0.0008712 -0.0056250 0.0059801 -0.0000552 -0.0000202 -0.0003071 -0.0013206 -0.0001702 -0.0001742 -0.0000986 0.0000745 -0.0000900 0.0001959 -0.0002233 -0.0002709 -0.0002869 0.0003690 -0.0004214 0.0012423
0.0010988 0.0008006 -0.0122671 0.0029525 -0.0000538 -0.0000183 -0.0003218 -0.0013371 0.0000426 -0.0003405 -0.0000932 0.0000931 -0.0001023 0.0002234 -0.0002149 -0.0002387 -0.0002803 0.0004128 -0.0004192 0.0012591
0.0011924 0.0006899 -0.0032595 0.0083992 -0.0000551 0.0000055 -0.0003643 -0.0012825 0.0001271 -0.0003172 -0.0000919 0.0001415 -0.0001193 0.0002837 -0.0002186 -0.0001718 -0.0002756 0.0004790 -0.0004272 0.0013113
0.0009353 0.0009724 -0.0000396 0.0086924 -0.0000539 0.0000545 -0.0004069 -0.0011882 0.0001296 -0.0002869 -0.0000935 0.0002132 -0.0001462 0.0003606 -0.0002217 -0.0001070 -0.0002791 0.0005421 -0.0004374 0.0013724
0.0000795 0.0015170 0.0019635 -0.0008051 -0.0000522 0.0000692 -0.0004122 -0.0011876 0.0001849 -0.0003127 -0.0000922 0.0001833 -0.0001601 0.0003280 -0.0002190 -0.0001533 -0.0002871 0.0004867 -0.0004072 0.0013192
-0.0004586 0.0014920 -0.0094821 0.0109654 -0.0000518 0.0000105 -0.0004392 -0.0012267 0.0000990 -0.0002633 -0.0000898 0.0000750 -0.0001489 0.0002296 -0.0002199 -0.0002233 -0.0002891 0.0004062 -0.0003760 0.0012354
-0.0001145 0.0012227 -0.0030830 0.0075339 -0.0000496 -0.0000362 -0.0003998 -0.0013017 -0.0000286 -0.0002905 -0.0000852 0.0000373 -0.0001475 0.0002121 -0.0002238 -0.0002071 -0.0002869 0.0004212 -0.0003895 0.0012464
0.0000457 0.0013217 0.0058668 -0.0044126 -0.0000455 -0.0000260 -0.0003661 -0.0013193 -0.0002623 -0.0000398 -0.0000865 0.0000378 -0.0001342 0.0002373 -0.0002236 -0.0001237 -0.0002896 0.0004645 -0.0003710 0.0013074
0.0005958 0.0011847 0.0068322 -0.0051275 -0.0000419 0.0000008 -0.0003449 -0.0012900 -0.0005453 0.0003220 -0.0000889 0.0000658 -0.0001227 0.0002680 -0.0002187 -0.0000379 -0.0002900 0.0005279 -0.0003581 0.0013710
0.0006890 0.0011458 0.0138481 -0.0155119 -0.0000413 0.0000365 -0.0002614 -0.0012881 -0.0004259 0.0003093 -0.0000896 0.0001326 -0.0000944 0.0002701 -0.0002196 -0.0000169 -0.0002884 0.0005588 -0.0003758 0.0013819
0.0003536 0.0014378 0.0048511 -0.0023930 -0.0000414 0.0000182 -0.0002472 -0.0012839 -0.0002527 0.0001485 -0.0000920 0.0000905 -0.0000827 0.0002153 -0.0002216 -0.0001052 -0.0002887 0.0004644 -0.0003920 0.0013118
0.0012779 0.0006764 -0.0088019 0.0134383 -0.0000433 -0.0000719 -0.0002602 -0.0013737 -0.0001120 -0.0001342 -0.0000911 -0.0000524 -0.0000999 0.0001216 -0.0002247 -0.0002191 -0.0002846 0.0003612 -0.0004086 0.0012296
0.0014834 0.0001166 -0.0072970 0.0051486 -0.0000450 -0.0001293 -0.0002977 -0.0014422 0.0001613 -0.0004207 -0.0000877 -0.0001174 -0.0001059 0.0000699 -0.0002168 -0.0002566 -0.0002725 0.0003544 -0.0004131 0.0012152
0.0007445 0.0007261 0.0016486 0.0061356 -0.0000423 -0.0001358 -0.0003565 -0.0014039 0.0001552 -0.0003077 -0.0000829 -0.0001173 -0.0001153 0.0000649 -0.0002100 -0.0002481 -0.0002641 0.0003813 -0.0004066 0.0012365
0.0005074 0.0010811 0.0013744 0.0054660 -0.0000385 -0.0001217 -0.0003826 -0.0013678 0.0002324 -0.0003713 -0.0000800 -0.0000888 -0.0001373 0.0000965 -0.0002176 -0.0001943 -0.0002614 0.0004369 -0.0004056 0.0012848
0.0006990 0.0009280 -0.0088395 0.0039671 -0.0000365 -0.0000789 -0.0004262 -0.0012977 0.0002922 -0.0004244 -0.0000782 -0.0000339 -0.0001569 0.0001407 -0.0002207 -0.0001698 -0.0002635 0.0004646 -0.0003831 0.0012948
0.0003513 0.0010690 -0.0049272 0.0031489 -0.0000349 -0.0000883 -0.0004710 -0.0012531 0.0001560 -0.0003222 -0.0000748 -0.0001069 -0.0001538 0.0000622 -0.0002192 -0.0002640 -0.0002650 0.0003655 -0.0003548 0.0012006
0.0000967 0.0008727 0.0091574 -0.0216105 -0.0000310 -0.0001848 -0.0004107 -0.0014281 -0.0000132 -0.0004481 -0.0000699 -0.0002975 -0.0001460 -0.0000847 -0.0002199 -0.0003888 -0.0002605 0.0002395 -0.0003440 0.0011069
-0.0002056 0.0011585 0.0073780 -0.0175396 -0.0000291 -0.0002573 -0.0003796 -0.0015230 -0.0002648 -0.0003032 -0.0000621 -0.0003942 -0.0001304 -0.0001555 -0.0002185 -0.0004248 -0.0002532 0.0002184 -0.0003309 0.0010975
-0.0000656 0.0012567 0.0101847 -0.0129203 -0.0000306 -0.0002726 -0.0003628 -0.0015259 -0.0004499 -0.0000361 -0.0000557 -0.0003955 -0.0001235 -0.0001716 -0.0002156 -0.0004212 -0.0002434 0.0002495 -0.0003361 0.0011303
0.0007792 0.0004336 0.0178479 -0.0369852 -0.0000339 -0.0002566 -0.0002727 -0.0015993 -0.0003947 -0.0000970 -0.0000548 -0.0003601 -0.0000978 -0.0001922 -0.0002157 -0.0003932 -0.0002365 0.0003060 -0.0003457 0.0011769
0.0005150 0.0009182 0.0023899 -0.0104614 -0.0000317 -0.0002112 -0.0002835 -0.0015103 -0.0002625 -0.0001066 -0.0000567 -0.0002907 -0.0000743 -0.0001743 -0.0002137 -0.0003544 -0.0002371 0.0003609 -0.0003452 0.0012213
0.0007328 0.0010183 -0.0046335 0.0029942 -0.0000238 -0.0001999 -0.0002883 -0.0014950 -0.0001651 -0.0001952 -0.0000593 -0.0003254 -0.0000856 -0.0002067 -0.0002098 -0.0004331 -0.0002360 0.0002794 -0.0003436 0.0011751
0.0007942 0.0006641 -0.0125855 0.0083227 -0.0000240 -0.0002701 -0.0002713 -0.0016030 0.0001167 -0.0005532 -0.0000548 -0.0005003 -0.0000924 -0.0003437 -0.0001969 -0.0005977 -0.0002210 0.0001134 -0.0003490 0.0010837
0.0006864 0.0007500 -0.0038077 0.0098746 -0.0000238 -0.0003385 -0.0003079 -0.0016467 0.0001943 -0.0006367 -0.0000445 -0.0006071 -0.0000860 -0.0004289 -0.0001845 -0.0006668 -0.0002032 0.0000695 -0.0003420 0.0010514
0.0010963 0.0003618 0.0019323 0.0012556 -0.0000189 -0.0003522 -0.0003382 -0.0016704 0.0003587 -0.0008803 -0.0000372 -0.0006054 -0.0001042 -0.0004266 -0.0001831 -0.0006601 -0.0001949 0.0001056 -0.0003361 0.0010687
0.0008700 0.0003849 -0.0015364 0.0060389 -0.0000168 -0.0003352 -0.0004008 -0.0016090 0.0003812 -0.0008027 -0.0000300 -0.0005666 -0.0001255 -0.0003885 -0.0001808 -0.0006392 -0.0001934 0.0001615 -0.0003235 0.0011047
0.0008121 0.0006971 -0.0052467 0.0097089 -0.0000155 -0.0002878 -0.0004988 -0.0014555 0.0002152 -0.0004736 -0.0000261 -0.0004928 -0.0001202 -0.0003445 -0.0001826 -0.0005870 -0.0001927 0.0002387 -0.0003136 0.0011536
0.0004108 0.0011241 0.0096833 -0.0217475 -0.0000146 -0.0002233 -0.0004772 -0.0014148 0.0000972 -0.0004241 -0.0000209 -0.0004438 -0.0001169 -0.0003398 -0.0001819 -0.0005928 -0.0001949 0.0002229 -0.0003265 0.0011623
-0.0000284 0.0013692 0.0065647 -0.0037358 -0.0000146 -0.0002346 -0.0003887 -0.0015106 -0.0001306 -0.0003018 -0.0000177 -0.0005222 -0.0000973 -0.0004437 -0.0001766 -0.0007126 -0.0001949 0.0000886 -0.0003108 0.0010689
0.0002897 0.0008462 0.0062547 0.0036059 -0.0000131 -0.0003190 -0.0003614 -0.0016139 -0.0003548 -0.0002117 -0.0000150 -0.0006367 -0.0000804 -0.0005338 -0.0001725 -0.0008024 -0.0001888 0.0000135 -0.0002894 0.0010026
0.0003196 0.0006527 0.0117198 -0.0047891 -0.0000099 -0.0003413 -0.0003059 -0.0017019 -0.0003735 -0.0003043 -0.0000079 -0.0006640 -0.0000499 -0.0005616 -0.0001747 -0.0008037 -0.0001841 0.0000274 -0.0002914 0.0010137
-0.0003413 0.0011512 0.0094975 -0.0073529 -0.0000080 -0.0003132 -0.0002904 -0.0017002 -0.0002073 -0.0004805 -0.0000048 -0.0006288 -0.0000264 -0.0005531 -0.0001733 -0.0007849 -0.0001800 0.0000660 -0.0003058 0.0010549
-0.0000048 0.0010318 0.0055289 -0.0140367 -0.0000081 -0.0002740 -0.0002503 -0.0017004 -0.0001453 -0.0004385 -0.0000070 -0.0005477 -0.0000389 -0.0004866 -0.0001740 -0.0007397 -0.0001801 0.0001306 -0.0003178 0.0011068
0.0009775 0.0005080 -0.0208093 0.0175945 -0.0000089 -0.0002104 -0.0002544 -0.0016038 0.0001119 -0.0004958 -0.0000092 -0.0004552 -0.0000438 -0.0004125 -0.0001686 -0.0006966 -0.0001803 0.0001703 -0.0003353 0.0011454
0.0014384 0.0002331 -0.0118422 0.0238897 -0.0000066 -0.0001834 -0.0003441 -0.0015018 0.0002309 -0.0006036 -0.0000110 -0.0004768 -0.0000402 -0.0004460 -0.0001519 -0.0007741 -0.0001787 0.0000858 -0.0003479 0.0010992
0.0015743 -0.0002607 -0.0008106 0.0120348 0.0000007 -0.0002436 -0.0003485 -0.0016159 0.0004371 -0.0009725 -0.0000113 -0.0005952 -0.0000502 -0.0005299 -0.0001479 -0.0008928 -0.0001771 -0.0000332 -0.0003493 0.0010264
0.0011868 0.0000336 -0.0054502 0.0068897 0.0000022 -0.0002885 -0.0003851 -0.0016318 0.0005130 -0.0010409 -0.0000021 -0.0006329 -0.0000723 -0.0005155 -0.0001428 -0.0009251 -0.0001734 -0.0000470 -0.0003337 0.0010106
0.0006855 0.0004909 -0.0025775 0.0089720 0.0000010 -0.0002745 -0.0004880 -0.0015206 0.0002931 -0.0007504 0.0000038 -0.0005814 -0.0000735 -0.0004806 -0.0001437 -0.0008944 -0.0001684 -0.0000089 -0.0003268 0.0010206
0.0003261 0.0005135 0.0052441 -0.0051058 0.0000049 -0.0002448 -0.0004701 -0.0015185 0.0001822 -0.0006830 0.0000073 -0.0004999 -0.0000727 -0.0004143 -0.0001510 -0.0008223 -0.0001661 0.0000575 -0.0003430 0.0010686
0.0001273 0.0010223 0.0007217 -0.0079570 0.0000051 -0.0001896 -0.0004065 -0.0014952 0.0000325 -0.0004277 0.0000123 -0.0003984 -0.0000682 -0.0003255 -0.0001524 -0.0007338 -0.0001721 0.0001456 -0.0003280 0.0011184
-0.0001028 0.0012823 0.0040216 -0.0011874 0.0000061 -0.0001191 -0.0003768 -0.0014092 -0.0002625 -0.0000777 0.0000132 -0.0003265 -0.0000560 -0.0002933 -0.0001530 -0.0007173 -0.0001781 0.0001321 -0.0003169 0.0011032
-0.0003329 0.0010881 0.0118738 -0.0067074 0.0000104 -0.0001321 -0.0003215 -0.0014627 -0.0003808 -0.0000897 0.0000125 -0.0003845 -0.0000239 -0.0003676 -0.0001513 -0.0008171 -0.0001808 -0.0000144 -0.0003186 0.0010102
-0.0009294 0.0013828 0.0056558 -0.0036706 0.0000113 -0.0002207 -0.0002879 -0.0016052 -0.0003293 -0.0003517 0.0000123 -0.0004734 -0.0000051 -0.0004308 -0.0001463 -0.0008903 -0.0001782 -0.0000997 -0.0003124 0.0009342
-0.0001584 0.0007617 -0.0094323 0.0059702 0.0000132 -0.0002543 -0.0002361 -0.0017050 -0.0002989 -0.0004434 0.0000091 -0.0004631 -0.0000068 -0.0004022 -0.0001434 -0.0008646 -0.0001753 -0.0000802 -0.0003233 0.0009640
0.0008553 0.0001823 -0.0179736 0.0121173 0.0000126 -0.0002349 -0.0002341 -0.0016909 -0.0000152 -0.0005507 -0.0000150 -0.0004839 -0.0000039 -0.0003749 -0.0000974 -0.0006591 -0.0001829 -0.0000594 -0.0003006 0.0011964
0.0010889 0.0003660 -0.0009041 0.0048488 0.0000159 -0.0001979 -0.0002822 -0.0016235 0.0001858 -0.0006719 -0.0000369 -0.0004668 -0.0000131 -0.0003236 -0.0000630 -0.0004934 -0.0001774 0.0000153 -0.0002786 0.0013414
0.0012228 0.0003481 0.0070438 -0.0040384 0.0000203 -0.0001459 -0.0003152 -0.0015330 0.0004559 -0.0007927 -0.0000235 -0.0003004 -0.0000381 -0.0002016 -0.0001004 -0.0005191 -0.0001687 0.0001472 -0.0003228 0.0012834
0.0009289 0.0007066 0.0025404 0.0045515 0.0000199 -0.0000816 -0.0004989 -0.0012121 0.0005314 -0.0006442 -0.0000037 -0.0001830 -0.0000596 -0.0001160 -0.0001250 -0.0005936 -0.0001740 0.0001381 -0.0003467 0.0011921
0.0007596 0.0005643 0.0038324 0.0075514 0.0000222 -0.0001043 -0.0005593 -0.0011439 0.0003466 -0.0005679 0.0000025 -0.0002268 -0.0000566 -0.0001525 -0.0001276 -0.0007115 -0.0001769 -0.0000058 -0.0003482 0.0010500
0.0006442 0.0000456 0.0065219 -0.0035445 0.0000281 -0.0002029 -0.0003818 -0.0014252 0.0001755 -0.0006973 0.0000099 -0.0002838 -0.0000605 -0.0001472 -0.0001320 -0.0007377 -0.0001781 -0.0000517 -0.0003638 0.0009927
-0.0001103 0.0007068 -0.0000004 -0.0010677 0.0000354 -0.0002297 -0.0003385 -0.0014468 -0.0000142 -0.0005692 0.0000145 -0.0002568 -0.0000474 -0.0000744 -0.0001333 -0.0006746 -0.0001783 0.0000068 -0.0003512 0.0009961
-0.0003639 0.0011723 0.0081446 -0.0148681 0.0000360 -0.0001896 -0.0003320 -0.0013776 -0.0002789 -0.0002243 0.0000081 -0.0001954 -0.0000377 -0.0000456 -0.0001427 -0.0006228 -0.0001852 0.0000629 -0.0003401 0.0010069
-0.0005045 0.0013392 0.0176476 -0.0268713 0.0000313 -0.0001295 -0.0002394 -0.0014022 -0.0003346 -0.0000371 -0.0000032 -0.0001138 -0.0000158 -0.0000411 -0.0001567 -0.0005637 -0.0001970 0.0001247 -0.0003575 0.0010488
-0.0003687 0.0014072 0.0047343 -0.0039995 0.0000264 -0.0000593 -0.0002055 -0.0013665 -0.0002173 0.0000046 -0.0000119 -0.0000169 -0.0000059 0.0000086 -0.0001698 -0.0004809 -0.0002092 0.0002014 -0.0003788 0.0011040
0.0008040 0.0006370 -0.0047810 -0.0018380 0.0000293 -0.0000001 -0.0002051 -0.0013197 -0.0001438 0.0000080 -0.0000217 0.0000139 -0.0000236 0.0000298 -0.0001793 -0.0004707 -0.0002218 0.0001684 -0.0003902 0.0011012
0.0011332 0.0002901 -0.0040051 -0.0104009 0.0000321 -0.0000266 -0.0002188 -0.0013235 0.0001163 -0.0002166 -0.0000299 -0.0000541 -0.0000219 -0.0000105 -0.0001669 -0.0005420 -0.0002215 0.0000541 -0.0004014 0.0010427
0.0009736 0.0002288 0.0018612 0.0032458 0.0000296 -0.0000849 -0.0002485 -0.0013160 0.0001277 -0.0002641 -0.0000329 -0.0000847 -0.0000265 -0.0000037 -0.0001603 -0.0005478 -0.0002221 0.0000416 -0.0004174 0.0010175
0.0010319 0.0000612 0.0040334 0.0019827 0.0000333 -0.0000904 -0.0002580 -0.0013159 0.0002732 -0.0004949 -0.0000358 -0.0000449 -0.0000490 0.0000579 -0.0001681 -0.0004857 -0.0002288 0.0000942 -0.0004354 0.0010559
0.0008348 0.0003622 -0.0021421 -0.0050473 0.0000355 -0.0000692 -0.0003341 -0.0012225 0.0003830 -0.0004950 -0.0000368 0.0000151 -0.0000744 0.0001275 -0.0001721 -0.0004147 -0.0002338 0.0001599 -0.0004368 0.0011110
0.0004778 0.0008026 -0.0030082 0.0013674 0.0000315 -0.0000199 -0.0004144 -0.0010680 0.0002525 -0.0001984 -0.0000405 0.0000983 -0.0000799 0.0001803 -0.0001795 -0.0003332 -0.0002420 0.0002429 -0.0004323 0.0011597
0.0003551 0.0008839 0.0081026 -0.0125781 0.0000308 0.0000424 -0.0003442 -0.0010543 0.0001181 -0.0001016 -0.0000445 0.0001396 -0.0000837 0.0002028 -0.0001844 -0.0003175 -0.0002513 0.0002283 -0.0004367 0.0011517
-0.0001659 0.0011624 0.0038811 -0.0049654 0.0000328 0.0000177 -0.0003054 -0.0010835 -0.0000011 -0.0000565 -0.0000504 0.0000642 -0.0000831 0.0001573 -0.0001865 -0.0003907 -0.0002606 0.0001067 -0.0004167 0.0010500
-0.0003169 0.0010076 0.0063831 0.0009291 0.0000359 -0.0000783 -0.0002940 -0.0011589 -0.0002163 0.0000552 -0.0000553 -0.0000231 -0.0000767 0.0001161 -0.0001902 -0.0004190 -0.0002646 0.0000610 -0.0004076 0.0009947
-0.0003603 0.0008871 0.0094191 -0.0055295 0.0000363 -0.0001101 -0.0001686 -0.0012770 -0.0003172 0.0000619 -0.0000590 -0.0000304 -0.0000493 0.0001130 -0.0001974 -0.0003725 -0.0002653 0.0001030 -0.0004163 0.0010113
-0.0006448 0.0011947 -0.0017247 -0.0028218 0.0000325 -0.0000855 -0.0001582 -0.0012446 -0.0002255 0.0000297 -0.0000668 0.0000110 -0.0000337 0.0001295 -0.0002038 -0.0003120 -0.0002707 0.0001598 -0.0004277 0.0010523
-0.0001643 0.0012486 -0.0028755 -0.0144232 0.0000293 -0.0000481 -0.0001885 -0.0011819 -0.0001627 0.0001234 -0.0000751 0.0000842 -0.0000496 0.0001941 -0.0002103 -0.0002417 -0.0002784 0.0002420 -0.0004467 0.0011199
0.0006279 0.0009246 -0.0056793 0.0044936 0.0000262 0.0000064 -0.0001838 -0.0011021 0.0000471 0.0000562 -0.0000812 0.0001494 -0.0000598 0.0002532 -0.0002071 -0.0002128 -0.0002811 0.0002571 -0.0004632 0.0011439
0.0013577 0.0002246 -0.0011070 0.0093568 0.0000260 0.0000011 -0.0002002 -0.0010754 0.0001226 -0.0000425 -0.0000873 0.0000878 -0.0000676 0.0002037 -0.0002019 -0.0002850 -0.0002837 0.0001419 -0.0004713 0.0010678
0.0017352 -0.0005688 0.0011901 -0.0053336 0.0000341 -0.0000919 -0.0002362 -0.0011404 0.0003665 -0.0004587 -0.0000924 -0.0000647 -0.0000847 0.0001173 -0.0002055 -0.0003702 -0.0002864 0.0000445 -0.0004881 0.0010058
0.0011974 -0.0001385 -0.0094741 0.0054710 0.0000363 -0.0001476 -0.0002896 -0.0011471 0.0004976 -0.0005969 -0.0000890 -0.0001317 -0.0001009 0.0000929 -0.0002039 -0.0003780 -0.0002850 0.0000470 -0.0004688 0.0009897
0.0004413 0.0005974 -0.0171958 0.0174950 0.0000379 -0.0001412 -0.0003574 -0.0010556 0.0002614 -0.0002796 -0.0000842 -0.0001202 -0.0000998 0.0001012 -0.0002060 -0.0003425 -0.0002844 0.0000974 -0.0004426 0.0009999
0.0001550 0.0004822 0.0010914 0.0009934 0.0000434 -0.0001122 -0.0003300 -0.0010453 0.0000162 -0.0001283 -0.0000880 -0.0000775 -0.0001157 0.0001368 -0.0002167 -0.0002895 -0.0002923 0.0001644 -0.0004494 0.0010556
-0.0002363 0.0011729 0.0065219 0.0047162 0.0000366 -0.0000567 -0.0002758 -0.0010344 -0.0002024 0.0001633 -0.0000957 -0.0000014 -0.0001225 0.0001881 -0.0002264 -0.0002236 -0.0003006 0.0002366 -0.0004435 0.0011062
0.0000873 0.0010866 0.0131423 -0.0077890 0.0000349 -0.0000199 -0.0002554 -0.0009874 -0.0003993 0.0004520 -0.0001024 -0.0000206 -0.0001162 0.0001629 -0.0002297 -0.0002638 -0.0003040 0.0001832 -0.0004333 0.0010537
0.0005177 0.0004100 0.0334081 -0.0606146 0.0000392 -0.0000723 -0.0001871 -0.0011094 -0.0003758 0.0002462 -0.0001058 -0.0001753 -0.0000844 0.0000048 -0.0002289 -0.0004023 -0.0003048 0.0000336 -0.0004310 0.0009421
0.0002491 0.0006945 0.0072124 -0.0096422 0.0000398 -0.0001478 -0.0001591 -0.0012069 -0.0002375 0.0000298 -0.0001026 -0.0002684 -0.0000584 -0.0000659 -0.0002223 -0.0004434 -0.0002952 -0.0000008 -0.0004399 0.0009227
0.0006937 0.0005252 -0.0142634 0.0132353 0.0000456 -0.0001675 -0.0001470 -0.0012444 -0.0000213 -0.0000744 -0.0000979 -0.0002550 -0.0000633 -0.0000119 -0.0002150 -0.0003887 -0.0002861 0.0000549 -0.0004438 0.0009665
0.0013374 -0.0000299 -0.0107013 0.0007136 0.0000543 -0.0001551 -0.0001775 -0.0012044 0.0002493 -0.0002298 -0.0000900 -0.0002065 -0.0000676 0.0000638 -0.0002013 -0.0003211 -0.0002933 0.0001034 -0.0004695 0.0010297
0.0012895 0.0003206 0.0027868 -0.0013794 0.0000611 -0.0001305 -0.0002138 -0.0010553 0.0002713 -0.0001636 -0.0000807 -0.0001351 -0.0000859 0.0001765 -0.0001885 -0.0002391 -0.0002963 0.0001838 -0.0004807 0.0010997
0.0011213 0.0006998 0.0076466 -0.0029580 0.0000657 -0.0000766 -0.0002178 -0.0009243 0.0003409 -0.0001358 -0.0000732 -0.0000656 -0.0001072 0.0002620 -0.0001853 -0.0002195 -0.0002834 0.0002176 -0.0004584 0.0011068
0.0004240 0.0008656 0.0059661 -0.0026250 0.0000683 -0.0000641 -0.0002399 -0.0009149 0.0003973 -0.0002340 -0.0000627 -0.0001111 -0.0001168 0.0002218 -0.0001809 -0.0003086 -0.0002743 0.0001301 -0.0004311 0.0010040
-0.0000351 0.0008325 -0.0010412 0.0089824 0.0000716 -0.0001261 -0.0002958 -0.0009627 0.0002549 -0.0002711 -0.0000503 -0.0002124 -0.0001068 0.0001215 -0.0001779 -0.0003689 -0.0002661 0.0000829 -0.0004049 0.0009246
-0.0001090 0.0006765 0.0048630 -0.0008427 0.0000784 -0.0001684 -0.0002393 -0.0010814 0.0000800 -0.0002798 -0.0000364 -0.0002285 -0.0000968 0.0001091 -0.0001734 -0.0003296 -0.0002713 0.0000992 -0.0004137 0.0009359
-0.0005110 0.0010865 0.0042025 -0.0008242 0.0000821 -0.0001607 -0.0001873 -0.0010930 -0.0000998 -0.0000525 -0.0000290 -0.0001812 -0.0000753 0.0001418 -0.0001703 -0.0002654 -0.0002763 0.0001573 -0.0004102 0.0009635
0.0002400 0.0008722 -0.0053726 0.0104643 0.0000833 -0.0001162 -0.0001767 -0.0010048 -0.0003141 0.0003069 -0.0000296 -0.0000921 -0.0000611 0.0001848 -0.0001760 -0.0002077 -0.0002644 0.0002606 -0.0004020 0.0010084
0.0006257 0.0006489 0.0069673 -0.0141545 0.0000813 -0.0000432 -0.0000920 -0.0010420 -0.0002012 0.0002550 -0.0000334 0.0000101 -0.0000459 0.0002120 -0.0001803 -0.0001545 -0.0002639 0.0003173 -0.0004254 0.0010543
0.0001284 0.0010649 0.0019666 -0.0074288 0.0000783 -0.0000203 -0.0001126 -0.0010249 -0.0000208 0.0001409 -0.0000407 -0.0000079 -0.0000366 0.0001626 -0.0001795 -0.0002204 -0.0002638 0.0002452 -0.0004466 0.0010225
0.0008850 0.0003404 -0.0142176 0.0155595 0.0000795 -0.0000738 -0.0001603 -0.0010663 0.0001360 -0.0000945 -0.0000469 -0.0001465 -0.0000420 0.0000530 -0.0001818 -0.0003582 -0.0002513 0.0001339 -0.0004488 0.0009452
0.0017360 -0.0005615 0.0002204 -0.0060140 0.0000804 -0.0001067 -0.0001740 -0.0011915 0.0003841 -0.0004236 -0.0000397 -0.0002117 -0.0000552 -0.0000177 -0.0001740 -0.0004214 -0.0002371 0.0001130 -0.0004404 0.0009201
0.0014438 -0.0002225 0.0064552 -0.0052188 0.0000843 -0.0001036 -0.0002481 -0.0011767 0.0003373 -0.0003195 -0.0000318 -0.0001820 -0.0000792 -0.0000103 -0.0001689 -0.0004207 -0.0002354 0.0001598 -0.0004390 0.0009393
0.0006934 0.0004419 0.0043473 0.0010437 0.0000843 -0.0000747 -0.0002774 -0.0011343 0.0003534 -0.0002770 -0.0000345 -0.0001181 -0.0001007 0.0000231 -0.0001802 -0.0003711 -0.0002426 0.0002210 -0.0004414 0.0009736
0.0000809 0.0008677 0.0012875 0.0002806 0.0000815 -0.0000197 -0.0002699 -0.0011296 0.0003645 -0.0002653 -0.0000354 -0.0000366 -0.0001054 0.0000542 -0.0001963 -0.0003015 -0.0002527 0.0002962 -0.0004306 0.0010146
-0.0000872 0.0009919 -0.0060625 0.0073939 0.0000817 0.0000350 -0.0002816 -0.0010586 0.0001092 -0.0000140 -0.0000377 -0.0000178 -0.0000966 0.0000447 -0.0002040 -0.0003255 -0.0002587 0.0002756 -0.0004109 0.0009882
-0.0001119 0.0009700 -0.0055917 0.0033656 0.0000809 0.0000060 -0.0001895 -0.0011374 -0.0000311 -0.0000172 -0.0000428 -0.0001121 -0.0000844 -0.0000487 -0.0002049 -0.0004362 -0.0002629 0.0001490 -0.0004042 0.0009128
-0.0007547 0.0012102 -0.0136793 0.0096686 0.0000811 -0.0000596 -0.0001447 -0.0012643 -0.0000814 -0.0001276 -0.0000441 -0.0001756 -0.0000545 -0.0001182 -0.0002031 -0.0004766 -0.0002622 0.0001256 -0.0003955 0.0008878
0.0002132 0.0006286 -0.0052517 0.0030973 0.0000835 -0.0000635 -0.0001656 -0.0013022 -0.0002032 0.0000329 -0.0000480 -0.0001509 -0.0000463 -0.0001273 -0.0002069 -0.0004578 -0.0002571 0.0001784 -0.0003955 0.0009057
0.0008847 0.0002642 0.0035630 -0.0121353 0.0000815 -0.0000348 -0.0001325 -0.0013428 -0.0000144 -0.0000925 -0.0000526 -0.0000963 -0.0000418 -0.0001273 -0.0002132 -0.0004126 -0.0002592 0.0002374 -0.0004380 0.0009656
0.0006372 0.0004669 -0.0073534 0.0007982 0.0000787 0.0000122 -0.0001652 -0.0012431 0.0001773 -0.0001360 -0.0000577 -0.0000017 -0.0000341 -0.0000551 -0.0002101 -0.0003272 -0.0002625 0.0003274 -0.0004611 0.0010328
0.0013006 0.0002156 -0.0045831 0.0076590 0.0000794 0.0000748 -0.0002300 -0.0011322 0.0002515 0.0000087 -0.0000672 0.0000828 -0.0000543 0.0000038 -0.0002102 -0.0002961 -0.0002700 0.0003426 -0.0004459 0.0010193
0.0009258 0.0005100 -0.0080136 0.0112023 0.0000794 0.0000754 -0.0002552 -0.0011700 0.0004246 -0.0002361 -0.0000679 0.0000538 -0.0000673 -0.0000407 -0.0002030 -0.0003591 -0.0002712 0.0002581 -0.0004408 0.0009646
-0.0001187 0.0010114 -0.0072863 0.0058364 0.0000795 0.0000295 -0.0002887 -0.0011882 0.0002780 -0.0002325 -0.0000634 0.0000166 -0.0000771 -0.0000373 -0.0002010 -0.0003688 -0.0002727 0.0002396 -0.0004404 0.0009602
-0.0008090 0.0014251 0.0019213 0.0015705 0.0000834 0.0000235 -0.0002443 -0.0012002 0.0001675 -0.0001390 -0.0000625 0.0000589 -0.0000994 0.0000412 -0.0002093 -0.0003087 -0.0002810 0.0002947 -0.0004394 0.0009937
-0.0007620 0.0013999 0.0004081 0.0089301 0.0000826 0.0000442 -0.0001729 -0.0012455 0.0001294 -0.0001329 -0.0000638 0.0001236 -0.0000943 0.0000733 -0.0002177 -0.0002557 -0.0002877 0.0003618 -0.0004105 0.0010180
-0.0002530 0.0011231 0.0003228 0.0044565 0.0000735 0.0000911 -0.0001734 -0.0011919 -0.0000960 0.0001612 -0.0000699 0.0002229 -0.0000825 0.0001198 -0.0002310 -0.0001716 -0.0002916 0.0004538 -0.0004018 0.0010686
0.0002942 0.0011348 0.0034154 -0.0001079 0.0000697 0.0001473 -0.0001410 -0.0011494 -0.0001145 0.0002638 -0.0000728 0.0002614 -0.0000653 0.0001277 -0.0002359 -0.0001474 -0.0002969 0.0004325 -0.0004269 0.0010768
0.0007128 0.0007055 -0.0011212 0.0021251 0.0000719 0.0001230 -0.0001294 -0.0011904 0.0000335 -0.0000316 -0.0000717 0.0001880 -0.0000407 0.0000427 -0.0002285 -0.0002308 -0.0003008 0.0003085 -0.0004392 0.0009997
0.0017599 -0.0005925 0.0018900 -0.0076954 0.0000748 0.0000493 -0.0001750 -0.0012146 0.0000168 -0.0000690 -0.0000726 0.0001507 -0.0000451 0.0000246 -0.0002220 -0.0002484 -0.0003000 0.0002860 -0.0004553 0.0009855
0.0020521 -0.0008202 0.0004823 -0.0106944 0.0000741 0.0000277 -0.0001806 -0.0012282 0.0001839 -0.0001261 -0.0000696 0.0001859 -0.0000422 0.0000571 -0.0002176 -0.0001871 -0.0002979 0.0003455 -0.0004890 0.0010403
0.0014493 -0.0001086 0.0051811 -0.0137316 0.0000733 0.0000438 -0.0002080 -0.0012072 0.0003642 -0.0002551 -0.0000620 0.0002359 -0.0000478 0.0000976 -0.0002117 -0.0001273 -0.0002962 0.0004075 -0.0004954 0.0010776
0.0010588 0.0003339 0.0137161 -0.0169450 0.0000757 0.0000785 -0.0002568 -0.0011427 0.0003276 -0.0001296 -0.0000623 0.0003143 -0.0000722 0.0001742 -0.0002142 -0.0000546 -0.0003014 0.0004752 -0.0004847 0.0011071
0.0006902 0.0005595 0.0031177 -0.0050264 0.0000774 0.0000954 -0.0002495 -0.0011440 0.0002590 -0.0001182 -0.0000659 0.0003027 -0.0000769 0.0001542 -0.0002110 -0.0000815 -0.0003051 0.0004131 -0.0004758 0.0010653
-0.0005917 0.0011770 -0.0079465 0.0091892 0.0000789 0.0000266 -0.0002790 -0.0011825 0.0001651 -0.0002419 -0.0000629 0.0001746 -0.0000760 0.0000823 -0.0002050 -0.0001681 -0.0003036 0.0002737 -0.0004489 0.0009601
-0.0012121 0.0014144 -0.0004067 0.0042660 0.0000774 -0.0000656 -0.0002072 -0.0013165 0.0000166 -0.0002318 -0.0000567 0.0001093 -0.0000883 0.0000807 -0.0002052 -0.0001724 -0.0003005 0.0002433 -0.0004357 0.0009209
-0.0007849 0.0011621 0.0106169 -0.0186452 0.0000758 -0.0001012 -0.0001063 -0.0014328 -0.0000494 -0.0002113 -0.0000524 0.0001247 -0.0000693 0.0000682 -0.0002050 -0.0001314 -0.0002966 0.0002840 -0.0004189 0.0009239
-0.0007698 0.0012888 0.0049282 -0.0051806 0.0000712 -0.0000952 -0.0001363 -0.0013958 -0.0001899 -0.0000360 -0.0000536 0.0001684 -0.0000323 0.0001279 -0.0001952 0.0000146 -0.0003028 0.0003380 -0.0003709 0.0010754
0.0002559 0.0007477 -0.0029412 0.0061424 0.0001366 0.0001430 -0.0001297 -0.0013350 0.0000239 0.0003675 -0.0000028 0.0003394 0.0000391 0.0004002 -0.0000319 0.0007790 -0.0003476 0.0002609 -0.0001534 0.0015295
0.0010300 0.0005851 -0.0030953 0.0028841 0.0002724 0.0005400 -0.0000933 -0.0012894 0.0005499 0.0003792 0.0000605 0.0004106 0.0000882 0.0004430 0.0000886 0.0011309 -0.0003605 0.0000943 -0.0000217 0.0016482
0.0018516 -0.0002189 0.0008760 0.0018280 0.0002778 0.0004438 -0.0001241 -0.0012201 0.0005835 0.0001378 0.0000608 0.0002043 0.0000431 0.0002000 0.0000316 0.0006938 -0.0003266 0.0000255 -0.0001178 0.0013471
0.0020536 -0.0008602 -0.0008582 -0.0045707 0.0001742 0.0000182 -0.0001720 -0.0011178 0.0005560 -0.0001099 0.0000331 0.0000045 -0.0000303 0.0000080 -0.0000337 0.0003688 -0.0003076 0.0000643 -0.0002342 0.0011495
0.0013718 -0.0003111 -0.0067932 -0.0016249 0.0000926 -0.0002394 -0.0001852 -0.0011282 0.0005882 -0.0003373 0.0000090 -0.0000346 -0.0000876 -0.0001267 -0.0001199 0.0000615 -0.0002864 0.0001570 -0.0003085 0.0009947
0.0009213 -0.0000358 0.0139673 -0.0262480 0.0000596 -0.0002952 -0.0002173 -0.0011984 0.0003702 -0.0003009 -0.0000130 0.0000422 -0.0001234 -0.0001277 -0.0001912 -0.0000743 -0.0002790 0.0002489 -0.0003369 0.0009256
0.0005805 0.0003623 0.0175999 -0.0233759 0.0000632 -0.0001986 -0.0002064 -0.0012086 0.0000913 -0.0000482 -0.0000313 0.0001501 -0.0001261 -0.0000650 -0.0002152 -0.0000260 -0.0002852 0.0003322 -0.0003448 0.0009366
-0.0006856 0.0014734 0.0020947 0.0042722 0.0000670 -0.0001346 -0.0001972 -0.0012129 -0.0000092 0.0000137 -0.0000375 0.0001577 -0.0001043 -0.0000722 -0.0002153 -0.0000483 -0.0002874 0.0002829 -0.0003245 0.0008785
-0.0011469 0.0014656 0.0009414 0.0021090 0.0000707 -0.0001718 -0.0001015 -0.0013815 -0.0000421 -0.0001473 -0.0000402 0.0000456 -0.0000988 -0.0001473 -0.0002121 -0.0001607 -0.0002868 0.0001424 -0.0003136 0.0007840
-0.0005046 0.0008551 -0.0004937 -0.0013964 0.0000710 -0.0002458 -0.0000150 -0.0015212 0.0000277 -0.0003259 -0.0000394 -0.0000252 -0.0000810 -0.0001949 -0.0002074 -0.0002047 -0.0002834 0.0001125 -0.0003176 0.0007668
-0.0003555 0.0008418 -0.0100196 0.0124829 0.0000724 -0.0002626 -0.0000764 -0.0014971 0.0000732 -0.0003904 -0.0000397 -0.0000311 -0.0000720 -0.0001982 -0.0002018 -0.0001626 -0.0002828 0.0001456 -0.0003277 0.0008294
0.0007897 0.0000848 -0.0093117 0.0118630 0.0000725 -0.0002466 -0.0000955 -0.0014703 0.0003481 -0.0005337 -0.0000628 -0.0000653 -0.0000842 -0.0001906 -0.0001707 -0.0000117 -0.0002884 0.0001814 -0.0003278 0.0009632
0.0017055 -0.0003939 -0.0002503 -0.0028944 0.0000662 -0.0002122 -0.0001246 -0.0013905 0.0005764 -0.0005767 -0.0000867 -0.0000599 -0.0000870 -0.0001643 -0.0001447 0.0000968 -0.0002897 0.0002548 -0.0003318 0.0010489
0.0020925 -0.0007976 0.0057429 -0.0127859 0.0000638 -0.0001865 -0.0002432 -0.0012865 0.0005139 -0.0004981 -0.0000777 -0.0000469 -0.0000922 -0.0001638 -0.0001580 -0.0000126 -0.0002873 0.0002301 -0.0003398 0.0009895
0.0017788 -0.0008186 0.0012237 -0.0058353 0.0000706 -0.0002317 -0.0002797 -0.0013337 0.0004467 -0.0005520 -0.0000624 -0.0001319 -0.0001016 -0.0002317 -0.0001755 -0.0001822 -0.0002836 0.0001236 -0.0003572 0.0009009
0.0011621 -0.0003979 0.0030573 0.0036157 0.0000735 -0.0002946 -0.0002596 -0.0014054 0.0002819 -0.0005291 -0.0000529 -0.0001986 -0.0001014 -0.0002911 -0.0001861 -0.0002568 -0.0002801 0.0001113 -0.0003502 0.0008504
0.0009746 -0.0004330 0.0137731 -0.0086764 0.0000727 -0.0003032 -0.0002378 -0.0014133 0.0000205 -0.0003288 -0.0000459 -0.0001902 -0.0001092 -0.0002832 -0.0001931 -0.0002638 -0.0002763 0.0001611 -0.0003379 0.0008612
-0.0002250 0.0004633 0.0155608 -0.0158747 0.0000733 -0.0002800 -0.0001288 -0.0014783 -0.0001109 -0.0001698 -0.0000436 -0.0001456 -0.0000881 -0.0002612 -0.0001964 -0.0002439 -0.0002696 0.0002514 -0.0003342 0.0009016
-0.0016175 0.0019495 0.0042454 -0.0035090 0.0000734 -0.0002223 -0.0000890 -0.0014900 -0.0001383 -0.0000539 -0.0000411 -0.0000718 -0.0000597 -0.0002066 -0.0001899 -0.0001448 -0.0002807 0.0003262 -0.0003048 0.0009776
-0.0005942 0.0012739 0.0034673 -0.0167158 0.0000728 -0.0001514 -0.0000409 -0.0014779 -0.0001367 -0.0000224 -0.0000499 -0.0001056 -0.0000641 -0.0001864 -0.0001602 -0.0000621 -0.0002919 0.0002722 -0.0002898 0.0010509
0.0000454 0.0005533 -0.0101985 0.0034552 0.0000745 -0.0001840 -0.0000172 -0.0014540 0.0000835 -0.0002197 -0.0000509 -0.0002526 -0.0000540 -0.0003087 -0.0001460 -0.0002056 -0.0002665 0.0001796 -0.0003204 0.0009549
0.0005282 0.0000504 -0.0080572 0.0146220 0.0000726 -0.0002857 -0.0000702 -0.0013833 0.0001293 -0.0003233 -0.0000326 -0.0003002 -0.0000477 -0.0003849 -0.0001596 -0.0003729 -0.0002416 0.0001896 -0.0003531 0.0008341
0.0011495 -0.0005376 0.0062834 -0.0054448 0.0000703 -0.0003369 -0.0000531 -0.0013280 0.0004212 -0.0006776 -0.0000146 -0.0002373 -0.0000671 -0.0003227 -0.0001692 -0.0003696 -0.0002356 0.0002737 -0.0003765 0.0008580
0.0006422 0.0001967 0.0078425 -0.0116505 0.0000780 -0.0003148 -0.0000904 -0.0012138 0.0006499 -0.0007974 0.0000027 -0.0001374 -0.0000770 -0.0002183 -0.0001750 -0.0002923 -0.0002267 0.0003925 -0.0003757 0.0009220
0.0006125 0.0005036 -0.0032902 0.0051055 0.0000846 -0.0002306 -0.0001763 -0.0009809 0.0005132 -0.0004474 0.0000113 -0.0000065 -0.0000799 -0.0001014 -0.0001722 -0.0001837 -0.0002223 0.0005217 -0.0003604 0.0009814
0.0004725 0.0005159 0.0013561 0.0024665 0.0000905 -0.0001330 -0.0001530 -0.0008290 0.0003036 -0.0001077 0.0000208 0.0001025 -0.0000851 0.0000004 -0.0001572 -0.0000876 -0.0002323 0.0005376 -0.0003520 0.0010599
-0.0001621 0.0010876 0.0060698 0.0027280 0.0001025 -0.0000930 -0.0000925 -0.0007959 0.0000130 0.0001701 0.0000152 0.0000239 -0.0000776 -0.0000346 -0.0001287 -0.0000863 -0.0002378 0.0004240 -0.0003178 0.0010411
-0.0002894 0.0008396 0.0084140 -0.0005932 0.0001095 -0.0001274 -0.0000143 -0.0007873 -0.0001669 0.0002731 0.0000173 -0.0000959 -0.0000757 -0.0000883 -0.0001187 -0.0001279 -0.0002260 0.0003961 -0.0003187 0.0009971
0.0000447 0.0004418 0.0090237 -0.0075289 0.0001140 -0.0001460 0.0001148 -0.0007252 -0.0001535 0.0001778 0.0000450 -0.0000538 -0.0000521 -0.0000710 -0.0001275 -0.0001402 -0.0002135 0.0004664 -0.0003424 0.0010156
0.0003213 0.0005852 -0.0057378 0.0046865 0.0001209 -0.0001342 0.0001689 -0.0005475 -0.0000468 0.0000935 0.0000684 0.0000478 -0.0000220 0.0000071 -0.0001279 -0.0001226 -0.0002111 0.0005363 -0.0003639 0.0010372
0.0007531 0.0004846 -0.0047580 -0.0032939 0.0001309 -0.0001233 0.0001909 -0.0003762 0.0000084 0.0001476 0.0000859 0.0001738 -0.0000255 0.0001216 -0.0001351 -0.0000397 -0.0002049 0.0006565 -0.0004029 0.0011028
0.0008338 0.0006265 -0.0015991 -0.0049597 0.0001361 -0.0000889 0.0001884 -0.0001885 0.0003300 0.0000468 0.0000768 0.0002129 -0.0000317 0.0001362 -0.0001074 0.0000461 -0.0001903 0.0006498 -0.0003941 0.0011908
0.0009474 0.0004082 0.0049508 0.0046036 0.0001361 -0.0001009 0.0001412 -0.0001226 0.0004800 -0.0001023 0.0000740 0.0001354 -0.0000191 0.0001203 -0.0000664 0.0000306 -0.0001831 0.0004851 -0.0003530 0.0011480
0.0011077 0.0000130 0.0082423 0.0020035 0.0001378 -0.0001717 0.0001427 -0.0002204 0.0004961 -0.0003145 0.0001039 0.0001182 -0.0000049 0.0001823 -0.0000545 0.0000266 -0.0001915 0.0003908 -0.0003429 0.0011071
0.0006418 0.0005395 0.0001166 0.0026481 0.0001453 -0.0001661 0.0000895 -0.0002246 0.0005321 -0.0003722 0.0001382 0.0001775 0.0000036 0.0002386 -0.0000642 0.0000356 -0.0001927 0.0004234 -0.0003419 0.0010987
0.0005550 0.0008931 -0.0028072 0.0027297 0.0001557 -0.0001235 0.0000258 -0.0000961 0.0003231 -0.0001195 0.0001535 0.0002556 -0.0000028 0.0002114 -0.0000816 0.0000249 -0.0001793 0.0005406 -0.0003559 0.0010789
0.0005620 0.0009833 0.0072668 -0.0173154 0.0001612 -0.0001091 0.0001210 -0.0000216 0.0001414 0.0000506 0.0001571 0.0003657 -0.0000201 0.0002681 -0.0000885 0.0001302 -0.0001860 0.0006496 -0.0003718 0.0011427
-0.0003120 0.0019819 0.0062937 -0.0106229 0.0001642 -0.0000793 0.0001886 0.0000675 -0.0000506 0.0003296 0.0001660 0.0004224 0.0000053 0.0003299 -0.0000932 0.0001435 -0.0002084 0.0005908 -0.0003742 0.0011263
0.0001146 0.0016991 0.0011747 -0.0021311 0.0001727 -0.0000934 0.0002156 0.0000817 -0.0003727 0.0006320 0.0001713 0.0003681 0.0000365 0.0002977 -0.0000910 0.0000205 -0.0001960 0.0004466 -0.0003675 0.0010565
0.0007890 0.0006878 0.0003170 -0.0087310 0.0001807 -0.0001410 0.0003086 -0.0001219 -0.0001518 0.0002591 0.0001715 0.0003081 0.0000766 0.0002386 -0.0000802 0.0000027 -0.0001551 0.0004442 -0.0003734 0.0010524
0.0004620 0.0009522 -0.0046852 0.0044061 0.0001779 -0.0001426 0.0003229 -0.0001555 0.0001576 -0.0000139 0.0001740 0.0003279 0.0001006 0.0002290 -0.0000692 0.0000680 -0.0001257 0.0005279 -0.0004006 0.0010839
0.0009125 0.0008949 -0.0069895 0.0047052 0.0001834 -0.0001330 0.0002881 -0.0000766 0.0002627 0.0000645 0.0001735 0.0003989 0.0000706 0.0002824 -0.0000678 0.0001413 -0.0001236 0.0005995 -0.0004223 0.0011255
0.0015518 0.0005254 -0.0099065 0.0033309 0.0001899 -0.0000980 0.0002308 0.0000082 0.0004891 -0.0000373 0.0001712 0.0004854 0.0000427 0.0003435 -0.0000625 0.0002315 -0.0001285 0.0006701 -0.0004336 0.0011772
0.0011130 0.0010945 0.0003563 0.0083624 0.0001864 -0.0000244 0.0001893 0.0001178 0.0004522 0.0001104 0.0001660 0.0005531 0.0000245 0.0003948 -0.0000561 0.0002509 -0.0001308 0.0006598 -0.0004340 0.0011864
0.0002125 0.0015701 0.0053270 0.0040944 0.0001928 -0.0000512 0.0002072 0.0000938 0.0005063 -0.0000463 0.0001663 0.0005097 0.0000050 0.0004118 -0.0000538 0.0001906 -0.0001542 0.0004940 -0.0004549 0.0011078
0.0001791 0.0014594 0.0033578 0.0013951 0.0002044 -0.0001739 0.0002187 0.0000644 0.0005002 -0.0002780 0.0001801 0.0004252 0.0000016 0.0004243 -0.0000493 0.0001832 -0.0001637 0.0004053 -0.0004327 0.0010427
0.0002489 0.0015968 -0.0011226 0.0033811 0.0002094 -0.0001960 0.0002224 0.0000926 0.0002939 -0.0001028 0.0001891 0.0004408 0.0000250 0.0004476 -0.0000472 0.0002438 -0.0001481 0.0004699 -0.0004006 0.0010864
0.0001304 0.0016567 0.0000007 0.0021820 0.0002086 -0.0001477 0.0002897 0.0000434 0.0002655 -0.0000145 0.0001903 0.0005150 0.0000482 0.0004814 -0.0000499 0.0003163 -0.0001479 0.0005451 -0.0004083 0.0011587
-0.0005075 0.0021349 -0.0082950 0.0140019 0.0002076 -0.0001156 0.0003338 0.0000175 0.0001974 0.0001718 0.0001935 0.0005930 0.0000538 0.0005396 -0.0000529 0.0004240 -0.0001673 0.0006120 -0.0004290 0.0012079
0.0004200 0.0016256 -0.0128190 0.0172794 0.0002097 -0.0000947 0.0002874 0.0001140 0.0000833 0.0003999 0.0001923 0.0006478 0.0000539 0.0005858 -0.0000520 0.0004562 -0.0001700 0.0006115 -0.0004349 0.0012219
0.0017031 0.0005921 -0.0078911 0.0013988 0.0002057 -0.0001249 0.0002858 0.0001025 0.0002418 0.0001535 0.0001820 0.0005995 0.0000790 0.0005149 -0.0000458 0.0003445 -0.0001519 0.0004970 -0.0004379 0.0011810
0.0010297 0.0006996 -0.0195016 0.0098045 0.0002000 -0.0001867 0.0002697 0.0000051 0.0002970 -0.0000185 0.0001740 0.0005065 0.0000907 0.0004346 -0.0000440 0.0002816 -0.0001417 0.0004218 -0.0004542 0.0011506
0.0009562 0.0007412 -0.0100774 0.0135587 0.0002007 -0.0002217 0.0002325 -0.0000314 0.0003053 -0.0000172 0.0001725 0.0004947 0.0000794 0.0004418 -0.0000428 0.0003114 -0.0001454 0.0004309 -0.0004571 0.0011584
0.0013073 0.0007383 -0.0131927 0.0131998 0.0002023 -0.0002263 0.0002179 -0.0000442 0.0004814 -0.0002504 0.0001720 0.0005383 0.0000656 0.0004805 -0.0000362 0.0003603 -0.0001409 0.0004724 -0.0004656 0.0012010
0.0008080 0.0011600 -0.0119318 0.0155533 0.0002006 -0.0002028 0.0001884 0.0000098 0.0005091 -0.0001864 0.0001687 0.0005750 0.0000519 0.0005227 -0.0000366 0.0003914 -0.0001443 0.0004772 -0.0004655 0.0012172
-0.0001535 0.0018890 -0.0046989 0.0115584 0.0001988 -0.0002178 0.0002309 -0.0000042 0.0004150 -0.0000604 0.0001658 0.0005701 0.0000328 0.0005349 -0.0000471 0.0003977 -0.0001546 0.0004670 -0.0004645 0.0012069
-0.0001759 0.0019373 -0.0110728 0.0073640 0.0001950 -0.0002472 0.0002804 -0.0000356 0.0002957 -0.0000626 0.0001619 0.0005943 0.0000185 0.0005491 -0.0000565 0.0004255 -0.0001489 0.0005200 -0.0004403 0.0012151
0.0000063 0.0019065 -0.0036677 -0.0092727 0.0001895 -0.0002282 0.0002615 0.0000409 0.0001298 0.0001463 0.0001566 0.0006661 0.0000195 0.0006010 -0.0000630 0.0004942 -0.0001549 0.0005856 -0.0004272 0.0012636
-0.0001474 0.0021193 0.0014428 -0.0090302 0.0001871 -0.0001834 0.0002743 0.0000963 0.0001517 0.0003099 0.0001494 0.0007466 0.0000249 0.0006748 -0.0000738 0.0006062 -0.0001726 0.0006800 -0.0004376 0.0013548
-0.0002263 0.0024483 -0.0080059 0.0059261 0.0001930 -0.0000857 0.0002963 0.0001323 0.0002261 0.0003643 0.0001374 0.0008303 0.0000440 0.0007737 -0.0000653 0.0007760 -0.0001842 0.0007846 -0.0004422 0.0014697
0.0007687 0.0019417 -0.0104510 0.0120331 0.0002047 0.0000306 0.0002753 0.0002341 0.0001061 0.0006230 0.0001254 0.0009219 0.0000468 0.0008806 -0.0000547 0.0009142 -0.0001873 0.0008865 -0.0004769 0.0015921
0.0019022 0.0010968 -0.0048613 0.0064766 0.0002036 0.0001000 0.0002674 0.0003410 0.0003405 0.0005903 0.0001192 0.0010350 0.0000448 0.0009635 -0.0000631 0.0010063 -0.0001979 0.0009883 -0.0005261 0.0016817
0.0016729 0.0013758 -0.0051345 0.0039350 0.0001949 0.0001254 0.0002581 0.0004253 0.0004498 0.0005540 0.0001098 0.0010413 0.0000435 0.0009541 -0.0000653 0.0009235 -0.0002050 0.0009037 -0.0005302 0.0016429
0.0014126 0.0013731 0.0051663 -0.0071594 0.0001902 0.0000631 0.0002114 0.0004051 0.0003385 0.0005521 0.0000957 0.0009163 0.0000363 0.0008482 -0.0000663 0.0007141 -0.0001992 0.0006916 -0.0005230 0.0015045
0.0012093 0.0009804 0.0099971 -0.0155547 0.0001875 -0.0000294 0.0001983 0.0002913 0.0004454 0.0002624 0.0000920 0.0008262 0.0000270 0.0007914 -0.0000687 0.0006421 -0.0001929 0.0006380 -0.0005265 0.0014473
0.0006054 0.0011524 0.0084379 -0.0098727 0.0001824 -0.0000410 0.0001920 0.0002695 0.0004149 0.0002129 0.0000871 0.0008136 0.0000095 0.0008049 -0.0000749 0.0006551 -0.0001908 0.0006917 -0.0005065 0.0014627
0.0001953 0.0016457 0.0055883 -0.0027186 0.0001782 -0.0000139 0.0002380 0.0002382 0.0002464 0.0004005 0.0000753 0.0008428 -0.0000165 0.0008388 -0.0000873 0.0006924 -0.0001968 0.0007630 -0.0004917 0.0015020
-0.0004861 0.0021341 -0.0112810 0.0110597 0.0001746 0.0000313 0.0003178 0.0001921 0.0001600 0.0005089 0.0000671 0.0008953 -0.0000177 0.0008613 -0.0000979 0.0007440 -0.0002032 0.0008543 -0.0004708 0.0015384
-0.0006859 0.0023049 -0.0140184 0.0174046 0.0001688 0.0000887 0.0003101 0.0002643 0.0001153 0.0006580 0.0000522 0.0009382 -0.0000096 0.0008556 -0.0001071 0.0007287 -0.0002111 0.0008619 -0.0004689 0.0015449
0.0002499 0.0016642 -0.0064634 0.0137393 0.0001659 0.0000751 0.0003281 0.0002599 0.0001033 0.0006410 0.0000368 0.0008617 -0.0000090 0.0007787 -0.0001159 0.0006183 -0.0002174 0.0007444 -0.0004751 0.0014680
0.0003417 0.0013095 -0.0089438 0.0084540 0.0001671 0.0000036 0.0003659 0.0001430 0.0001840 0.0003310 0.0000299 0.0007339 0.0000058 0.0006759 -0.0001138 0.0005349 -0.0002153 0.0006871 -0.0004824 0.0014160
0.0010774 0.0006309 0.0012708 -0.0029748 0.0001675 -0.0000160 0.0002978 0.0001781 0.0001753 0.0003874 0.0000223 0.0006940 0.0000072 0.0006529 -0.0001107 0.0005234 -0.0002155 0.0007315 -0.0005077 0.0014647
0.0016117 0.0005192 0.0011055 -0.0040213 0.0001646 0.0000122 0.0002370 0.0002462 0.0002880 0.0004378 0.0000159 0.0007031 0.0000035 0.0006594 -0.0001147 0.0005417 -0.0002134 0.0007880 -0.0005298 0.0015214
0.0014002 0.0008537 -0.0170980 0.0061528 0.0001638 0.0000534 0.0002291 0.0002747 0.0004689 0.0003118 0.0000074 0.0007477 -0.0000115 0.0006839 -0.0001198 0.0005796 -0.0002075 0.0008606 -0.0005332 0.0015677
0.0013807 0.0008752 0.0016799 -0.0093587 0.0001648 0.0000996 0.0001937 0.0003652 0.0003654 0.0004689 -0.0000049 0.0007925 -0.0000370 0.0007166 -0.0001197 0.0005614 -0.0002108 0.0008711 -0.0005236 0.0015585
0.0008791 0.0010962 0.0075178 -0.0088048 0.0001662 0.0000821 0.0002156 0.0003142 0.0003086 0.0003955 -0.0000100 0.0007046 -0.0000467 0.0006307 -0.0001138 0.0004401 -0.0002127 0.0007529 -0.0005205 0.0014740
-0.0001222 0.0016584 0.0008197 0.0004083 0.0001686 0.0000071 0.0002323 0.0001965 0.0001903 0.0003229 -0.0000115 0.0005630 -0.0000461 0.0005217 -0.0001140 0.0003567 -0.0002077 0.0006755 -0.0004842 0.0013935
-0.0008117 0.0021042 0.0016940 -0.0012502 0.0001702 -0.0000245 0.0002916 0.0001016 0.0000838 0.0003945 -0.0000138 0.0005058 -0.0000543 0.0004957 -0.0001170 0.0003430 -0.0002005 0.0006871 -0.0004629 0.0013756
-0.0009878 0.0022977 0.0009596 0.0010320 0.0001656 -0.0000186 0.0003446 0.0000532 0.0001041 0.0003274 -0.0000183 0.0004986 -0.0000411 0.0004721 -0.0001189 0.0003357 -0.0001934 0.0007189 -0.0004459 0.0013644
-0.0005932 0.0022180 -0.0046775 0.0072106 0.0001629 -0.0000044 0.0003407 0.0000690 -0.0000353 0.0005160 -0.0000261 0.0005326 -0.0000374 0.0004824 -0.0001251 0.0003577 -0.0001955 0.0007837 -0.0004324 0.0013969
0.0002437 0.0015919 -0.0176522 0.0193705 0.0001628 0.0000242 0.0003675 0.0000784 0.0001098 0.0004555 -0.0000334 0.0005363 -0.0000436 0.0004548 -0.0001248 0.0003076 -0.0001990 0.0007448 -0.0004438 0.0013939
0.0005021 0.0011084 -0.0086943 0.0074048 0.0001622 -0.0000214 0.0003488 0.0000343 0.0002757 0.0001537 -0.0000369 0.0004163 -0.0000298 0.0003162 -0.0001079 0.0001488 -0.0001882 0.0005862 -0.0004515 0.0012844
0.0014003 0.0000982 0.0022110 -0.0090598 0.0001662 -0.0001272 0.0003115 -0.0000679 0.0003175 0.0000221 -0.0000386 0.0002841 -0.0000366 0.0002141 -0.0001001 0.0000472 -0.0001748 0.0005087 -0.0004523 0.0012301
0.0015692 0.0001346 -0.0011975 -0.0103097 0.0001650 -0.0001740 0.0002685 -0.0000938 0.0004566 -0.0001006 -0.0000360 0.0002353 -0.0000447 0.0001632 -0.0000965 0.0000122 -0.0001652 0.0005195 -0.0004690 0.0012533
0.0013427 0.0005526 -0.0018419 -0.0172863 0.0001652 -0.0001803 0.0002277 -0.0000895 0.0005171 -0.0002197 -0.0000348 0.0002325 -0.0000460 0.0001241 -0.0000857 -0.0000061 -0.0001534 0.0005405 -0.0004699 0.0012711
0.0011331 0.0006032 0.0038298 -0.0034836 0.0001701 -0.0001725 0.0002036 -0.0000843 0.0004439 -0.0001343 -0.0000354 0.0002667 -0.0000536 0.0001479 -0.0000842 0.0000196 -0.0001475 0.0005877 -0.0004400 0.0012839
0.0002676 0.0012636 0.0057063 0.0002817 0.0001715 -0.0001677 0.0002171 -0.0001281 0.0002523 0.0000232 -0.0000320 0.0002247 -0.0000450 0.0000904 -0.0000796 -0.0000537 -0.0001409 0.0004990 -0.0004232 0.0012234
-0.0006924 0.0018023 0.0042170 0.0004201 0.0001740 -0.0002496 0.0002318 -0.0002509 0.0001914 -0.0001583 -0.0000316 0.0000619 -0.0000353 -0.0000689 -0.0000668 -0.0002202 -0.0001270 0.0003021 -0.0003890 0.0010814
-0.0008103 0.0015722 0.0096428 -0.0032910 0.0001798 -0.0003716 0.0003106 -0.0004262 0.0001865 -0.0004274 -0.0000300 -0.0000614 -0.0000393 -0.0001538 -0.0000562 -0.0003020 -0.0001115 0.0002297 -0.0003564 0.0010017
-0.0004992 0.0012474 0.0061326 -0.0029773 0.0001815 -0.0004319 0.0003799 -0.0005647 0.0001119 -0.0004914 -0.0000270 -0.0000907 -0.0000240 -0.0002036 -0.0000503 -0.0003147 -0.0000999 0.0002449 -0.0003355 0.0009816
0.0000360 0.0009426 -0.0015481 0.0005584 0.0001814 -0.0004507 0.0003536 -0.0005993 0.0000391 -0.0003567 -0.0000236 -0.0000796 -0.0000108 -0.0002293 -0.0000488 -0.0003012 -0.0000924 0.0002817 -0.0003347 0.0010121
0.0012364 0.0002756 -0.0029952 0.0002334 0.0001778 -0.0004377 0.0003440 -0.0005731 0.0002634 -0.0004519 -0.0000252 -0.0000265 -0.0000078 -0.0002009 -0.0000492 -0.0002569 -0.0000854 0.0003333 -0.0003470 0.0010648
0.0010540 0.0002754 -0.0065309 0.0040312 0.0001762 -0.0004290 0.0003710 -0.0006079 0.0005185 -0.0007232 -0.0000256 -0.0000424 0.0000124 -0.0002636 -0.0000374 -0.0003153 -0.0000775 0.0002498 -0.0003491 0.0010052
0.0012574 -0.0002334 -0.0057410 0.0056405 0.0001846 -0.0005222 0.0003197 -0.0007009 0.0004860 -0.0008656 -0.0000226 -0.0001866 0.0000253 -0.0004078 -0.0000257 -0.0004704 -0.0000658 0.0000568 -0.0003518 0.0008858
0.0021830 -0.0009119 -0.0051956 0.0031966 0.0001900 -0.0006544 0.0002599 -0.0007913 0.0005775 -0.0010334 -0.0000171 -0.0002970 0.0000220 -0.0004862 -0.0000150 -0.0005450 -0.0000459 -0.0000193 -0.0003674 0.0008607
0.0018271 -0.0004446 -0.0038096 0.0005363 0.0001943 -0.0007178 0.0002677 -0.0008843 0.0006408 -0.0011133 -0.0000088 -0.0003129 0.0000255 -0.0005244 -0.0000006 -0.0005498 -0.0000333 0.0000041 -0.0003594 0.0008607
0.0009578 0.0002619 0.0123773 -0.0146971 0.0002022 -0.0007349 0.0002400 -0.0009273 0.0005200 -0.0010507 -0.0000010 -0.0002760 0.0000201 -0.0005127 0.0000024 -0.0005090 -0.0000259 0.0000507 -0.0003432 0.0008860
0.0001443 0.0009674 0.0151173 -0.0203377 0.0002045 -0.0007109 0.0002417 -0.0009300 0.0004593 -0.0009953 0.0000077 -0.0002045 0.0000203 -0.0004637 0.0000069 -0.0004338 -0.0000202 0.0001037 -0.0003305 0.0009565
-0.0005363 0.0014452 0.0037913 -0.0044005 0.0002047 -0.0006692 0.0002572 -0.0008744 0.0003660 -0.0008142 0.0000160 -0.0001134 0.0000238 -0.0003997 0.0000225 -0.0003368 -0.0000355 0.0000925 -0.0003009 0.0009922
-0.0004899 0.0014004 0.0067300 -0.0047019 0.0002716 -0.0005421 0.0003757 -0.0009006 0.0002347 -0.0003802 0.0000304 -0.0001199 0.0000199 -0.0003847 0.0000531 -0.0003135 -0.0000445 -0.0000528 -0.0002828 0.0009484
-0.0001098 0.0010897 -0.0013731 0.0053398 0.0003264 -0.0005546 0.0004490 -0.0009689 0.0003245 -0.0004900 0.0000431 -0.0002592 0.0000615 -0.0004468 0.0000843 -0.0003111 -0.0000391 -0.0001817 -0.0002368 0.0008828
-0.0000178 0.0011027 -0.0168473 0.0159688 0.0003589 -0.0005861 0.0004286 -0.0009723 0.0003378 -0.0005416 0.0000442 -0.0003495 0.0001081 -0.0004224 0.0001119 -0.0001849 -0.0000295 -0.0001922 -0.0001946 0.0009398
0.0006532 0.0008773 -0.0080397 0.0052167 0.0003950 -0.0005347 0.0004613 -0.0010299 0.0005182 -0.0005286 0.0000523 -0.0003235 0.0001309 -0.0003569 0.0001276 -0.0000566 -0.0000248 -0.0001619 -0.0001908 0.0009841
0.0008086 0.0008764 -0.0047428 0.0062666 0.0003782 -0.0005946 0.0004846 -0.0010734 0.0007304 -0.0007948 0.0000586 -0.0002626 0.0001407 -0.0003487 0.0001304 -0.0000219 -0.0000203 -0.0000957 -0.0002266 0.0009915
0.0014031 0.0003695 -0.0172473 0.0187586 0.0003520 -0.0006354 0.0004537 -0.0009858 0.0005846 -0.0006208 0.0000522 -0.0001998 0.0001227 -0.0003528 0.0001224 -0.0000173 0.0000004 0.0000145 -0.0002659 0.0010437
0.0024102 -0.0001571 -0.0309280 0.0242845 0.0003158 -0.0006546 0.0003922 -0.0009027 0.0006491 -0.0005771 0.0000494 -0.0001266 0.0001023 -0.0003574 0.0001082 -0.0000532 0.0000130 0.0000617 -0.0002873 0.0010330
0.0018627 0.0001281 -0.0157579 0.0123275 0.0002830 -0.0007224 0.0003634 -0.0009662 0.0007839 -0.0008160 0.0000458 -0.0001730 0.0000955 -0.0004431 0.0001027 -0.0002071 0.0000141 -0.0000682 -0.0003026 0.0009149
0.0009021 0.0001943 0.0037109 -0.0047946 0.0002725 -0.0008677 0.0003218 -0.0010770 0.0007528 -0.0010466 0.0000450 -0.0003092 0.0000882 -0.0005350 0.0001010 -0.0003262 0.0000221 -0.0001918 -0.0002910 0.0008079
0.0002913 0.0004565 0.0045534 -0.0062470 0.0002713 -0.0009372 0.0003233 -0.0011760 0.0006767 -0.0011600 0.0000521 -0.0003615 0.0000907 -0.0005711 0.0001016 -0.0003369 0.0000305 -0.0001979 -0.0002834 0.0007953
-0.0005232 0.0011053 -0.0027746 0.0045158 0.0002670 -0.0009274 0.0003222 -0.0012243 0.0005057 -0.0010577 0.0000548 -0.0003307 0.0000994 -0.0005796 0.0001077 -0.0002939 0.0000260 -0.0001454 -0.0002549 0.0008383
-0.0004209 0.0013913 0.0082416 -0.0128268 0.0002685 -0.0008904 0.0003680 -0.0012502 0.0003642 -0.0008278 0.0000504 -0.0002743 0.0000927 -0.0005278 0.0001140 -0.0001798 0.0000230 -0.0000663 -0.0002220 0.0009492
-0.0005894 0.0017204 0.0004107 -0.0028513 0.0002703 -0.0008141 0.0004447 -0.0012527 0.0003796 -0.0007390 0.0000453 -0.0002063 0.0001016 -0.0004683 0.0001122 -0.0000501 0.0000208 0.0000166 -0.0001974 0.0010546
-0.0008183 0.0017355 -0.0152927 0.0127853 0.0002680 -0.0007277 0.0004374 -0.0011680 0.0002781 -0.0005270 0.0000376 -0.0001198 0.0001111 -0.0004145 0.0001141 0.0000270 0.0000132 0.0000623 -0.0001783 0.0011070
0.0002979 0.0008162 -0.0216313 0.0153531 0.0002690 -0.0007080 0.0004319 -0.0011438 0.0002918 -0.0004993 0.0000346 -0.0001507 0.0001212 -0.0004352 0.0001164 -0.0000221 0.0000081 -0.0000225 -0.0001861 0.0010566
0.0010005 0.0002274 -0.0198939 0.0219640 0.0002719 -0.0007793 0.0004436 -0.0012530 0.0004584 -0.0008615 0.0000359 -0.0002843 0.0001528 -0.0005323 0.0001194 -0.0001064 0.0000138 -0.0001198 -0.0002039 0.0009774
0.0016512 -0.0003432 -0.0074865 0.0023004 0.0002738 -0.0008163 0.0004312 -0.0013101 0.0004305 -0.0008998 0.0000379 -0.0003317 0.0001669 -0.0005510 0.0001260 -0.0001141 0.0000197 -0.0001084 -0.0002234 0.0009740
0.0020877 -0.0007166 -0.0110363 -0.0038173 0.0002756 -0.0007947 0.0004182 -0.0012660 0.0006029 -0.0009567 0.0000393 -0.0003036 0.0001648 -0.0005263 0.0001263 -0.0000860 0.0000206 -0.0000505 -0.0002543 0.0010026
0.0015877 -0.0002572 -0.0262544 0.0213651 0.0002736 -0.0007557 0.0003984 -0.0012026 0.0007690 -0.0009962 0.0000390 -0.0002438 0.0001587 -0.0004812 0.0001249 -0.0000313 0.0000199 0.0000368 -0.0002756 0.0010525
0.0012616 0.0001128 -0.0076856 0.0132349 0.0002730 -0.0006957 0.0003668 -0.0010986 0.0006998 -0.0007773 0.0000416 -0.0001603 0.0001506 -0.0003977 0.0001243 0.0000498 0.0000163 0.0001367 -0.0002702 0.0011141
0.0011281 0.0003688 -0.0042513 0.0092025 0.0002787 -0.0005992 0.0003584 -0.0010102 0.0006751 -0.0006178 0.0000425 -0.0000809 0.0001465 -0.0003144 0.0001396 0.0001795 0.0000110 0.0002229 -0.0002583 0.0012073
0.0000944 0.0013195 -0.0052991 0.0067639 0.0002879 -0.0005024 0.0003280 -0.0009266 0.0006021 -0.0004408 0.0000383 -0.0001023 0.0001391 -0.0002960 0.0001605 0.0002122 -0.0000069 0.0001564 -0.0002324 0.0012057
-0.0003379 0.0016726 -0.0025417 0.0013369 0.0002956 -0.0005708 0.0003942 -0.0009673 0.0004071 -0.0004407 0.0000394 -0.0002356 0.0001108 -0.0003322 0.0001597 0.0000614 -0.0000248 0.0000022 -0.0002428 0.0010726
-0.0000737 0.0011882 -0.0061322 0.0056729 0.0002865 -0.0006940 0.0004768 -0.0009981 0.0003587 -0.0006396 0.0000467 -0.0003165 0.0001102 -0.0003954 0.0001385 -0.0000759 -0.0000175 0.0000139 -0.0002373 0.0009537
-0.0003647 0.0011058 -0.0057824 0.0111143 0.0002694 -0.0007097 0.0004483 -0.0008922 0.0002926 -0.0005406 0.0000548 -0.0003004 0.0001248 -0.0004187 0.0001204 -0.0000890 -0.0000050 0.0001259 -0.0002261 0.0009417
0.0000905 0.0008844 0.0049883 -0.0047309 0.0002594 -0.0006488 0.0005061 -0.0008895 0.0002957 -0.0004381 0.0000622 -0.0002397 0.0001301 -0.0003647 0.0001125 -0.0000241 -0.0000079 0.0002245 -0.0002468 0.0009895
0.0004722 0.0009231 0.0066827 -0.0027554 0.0002557 -0.0005390 0.0005487 -0.0009021 0.0003556 -0.0003665 0.0000679 -0.0001421 0.0001581 -0.0003327 0.0001013 0.0000389 -0.0000153 0.0003222 -0.0002500 0.0010139
0.0007690 0.0008398 -0.0028405 0.0066051 0.0002546 -0.0004437 0.0005032 -0.0008161 0.0002277 -0.0000584 0.0000729 -0.0000262 0.0001760 -0.0002904 0.0000880 0.0001061 -0.0000252 0.0004269 -0.0002633 0.0010434
0.0014053 0.0003986 -0.0083197 -0.0000590 0.0002520 -0.0003715 0.0004920 -0.0007645 0.0003579 -0.0001251 0.0000753 -0.0000063 0.0001980 -0.0003050 0.0000840 0.0000569 -0.0000328 0.0003712 -0.0002913 0.0010202
0.0007160 0.0008001 -0.0129587 0.0126446 0.0002477 -0.0003875 0.0004935 -0.0007846 0.0004742 -0.0003382 0.0000744 -0.0001305 0.0002015 -0.0004045 0.0000841 -0.0001278 -0.0000316 0.0001914 -0.0003072 0.0009063
0.0009888 0.0003334 -0.0067602 0.0078356 0.0002445 -0.0004486 0.0004760 -0.0007991 0.0005502 -0.0004895 0.0000776 -0.0002340 0.0001939 -0.0004680 0.0000809 -0.0002277 -0.0000268 0.0001411 -0.0003070 0.0008413
0.0017124 -0.0004030 -0.0010848 -0.0053686 0.0002469 -0.0004452 0.0004563 -0.0007997 0.0007341 -0.0007401 0.0000890 -0.0002533 0.0001872 -0.0004675 0.0000855 -0.0002362 -0.0000205 0.0001936 -0.0003071 0.0008583
0.0009876 0.0001843 -0.0052801 0.0075956 0.0002480 -0.0003975 0.0004290 -0.0007288 0.0006700 -0.0005614 0.0000960 -0.0002293 0.0001716 -0.0004103 0.0000872 -0.0002023 -0.0000149 0.0002636 -0.0002948 0.0008944
0.0003215 0.0008685 0.0032305 0.0009073 0.0002497 -0.0003275 0.0004338 -0.0006509 0.0006029 -0.0004033 0.0000983 -0.0001697 0.0001557 -0.0003299 0.0000818 -0.0001408 -0.0000152 0.0003381 -0.0002937 0.0009500
0.0004118 0.0009453 0.0079653 -0.0080620 0.0002527 -0.0002512 0.0004350 -0.0005714 0.0006089 -0.0003696 0.0001007 -0.0000947 0.0001468 -0.0002585 0.0000758 -0.0000824 -0.0000182 0.0004235 -0.0002770 0.0009957
0.0004046 0.0010804 0.0003069 0.0015536 0.0002491 -0.0001731 0.0004007 -0.0004208 0.0004847 -0.0001268 0.0000997 -0.0000454 0.0001590 -0.0002431 0.0000686 -0.0000992 -0.0000269 0.0003995 -0.0002560 0.0009727
-0.0001962 0.0014341 0.0032886 -0.0031375 0.0002511 -0.0001862 0.0004690 -0.0004623 0.0003790 -0.0001880 0.0001033 -0.0001320 0.0001636 -0.0003168 0.0000679 -0.0002262 -0.0000299 0.0002506 -0.0002561 0.0008837
-0.0004694 0.0013086 -0.0060532 0.0038871 0.0002556 -0.0002760 0.0005365 -0.0005814 0.0002353 -0.0002596 0.0001086 -0.0002625 0.0001846 -0.0004068 0.0000726 -0.0003136 -0.0000226 0.0001762 -0.0002463 0.0008335
0.0003004 0.0007044 0.0026597 -0.0115136 0.0002529 -0.0003095 0.0005428 -0.0005633 0.0000828 -0.0001001 0.0001114 -0.0002974 0.0002040 -0.0004413 0.0000763 -0.0003162 -0.0000124 0.0001920 -0.0002413 0.0008356
0.0009646 0.0003241 0.0114758 -0.0282872 0.0002517 -0.0002949 0.0005770 -0.0005672 0.0001953 -0.0001631 0.0001169 -0.0002827 0.0002248 -0.0004582 0.0000790 -0.0002914 -0.0000073 0.0002314 -0.0002555 0.0008673
0.0008075 0.0005850 -0.0085480 0.0035758 0.0002506 -0.0002669 0.0005879 -0.0005171 0.0002480 -0.0001223 0.0001199 -0.0002264 0.0002357 -0.0004125 0.0000786 -0.0002378 -0.0000032 0.0002975 -0.0002818 0.0009355
0.0012659 0.0005210 -0.0102808 0.0080224 0.0002464 -0.0002195 0.0005820 -0.0004245 0.0003740 -0.0000603 0.0001187 -0.0001441 0.0002139 -0.0003166 0.0000764 -0.0001696 -0.0000032 0.0003774 -0.0002834 0.0010005
0.0013671 0.0006550 -0.0061232 -0.0024957 0.0002460 -0.0001776 0.0005503 -0.0003345 0.0006083 -0.0002201 0.0001150 -0.0001366 0.0002036 -0.0003182 0.0000894 -0.0002230 -0.0000014 0.0003026 -0.0002822 0.0009824
0.0011754 0.0005812 0.0040808 -0.0032413 0.0002492 -0.0002181 0.0005049 -0.0003409 0.0005644 -0.0003338 0.0001160 -0.0002607 0.0002023 -0.0004001 0.0001085 -0.0003571 -0.0000112 0.0000853 -0.0003007 0.0008616
0.0015781 -0.0000971 -0.0016745 0.0016848 0.0002579 -0.0003423 0.0004987 -0.0004044 0.0007478 -0.0007548 0.0001275 -0.0003698 0.0001944 -0.0004196 0.0001190 -0.0003912 -0.0000212 -0.0000081 -0.0003090 0.0008103
0.0012024 0.0002508 -0.0114841 0.0021012 0.0002680 -0.0004129 0.0004991 -0.0003804 0.0007752 -0.0008341 0.0001460 -0.0003796 0.0001940 -0.0003269 0.0001327 -0.0003140 -0.0000231 0.0000428 -0.0002990 0.0008522
0.0010836 0.0007971 -0.0085438 0.0055406 0.0002725 -0.0004464 0.0004453 -0.0001895 0.0005796 -0.0005760 0.0001644 -0.0003220 0.0001996 -0.0002661 0.0001410 -0.0002694 -0.0000059 0.0001393 -0.0003258 0.0008809
0.0007425 0.0010299 0.0005263 -0.0022129 0.0002758 -0.0004945 0.0004791 -0.0001577 0.0005265 -0.0006097 0.0001817 -0.0002922 0.0002046 -0.0002556 0.0001348 -0.0002978 0.0000213 0.0001712 -0.0003439 0.0008841
-0.0001271 0.0016330 0.0024678 0.0047406 0.0002730 -0.0005101 0.0005471 -0.0001997 0.0003538 -0.0003839 0.0001848 -0.0002726 0.0002197 -0.0002475 0.0001309 -0.0002892 0.0000385 0.0001830 -0.0002966 0.0009085
0.0000998 0.0017247 0.0056852 0.0021538 0.0002667 -0.0004828 0.0005590 -0.0001742 0.0000509 -0.0000145 0.0001793 -0.0001951 0.0002187 -0.0002155 0.0001265 -0.0002256 0.0000550 0.0002612 -0.0002667 0.0009570
0.0004757 0.0014259 0.0130709 -0.0191286 0.0002629 -0.0004376 0.0005986 -0.0002143 0.0000107 0.0000522 0.0001798 -0.0001077 0.0002343 -0.0001710 0.0001186 -0.0001375 0.0000510 0.0003335 -0.0002729 0.0009993
0.0000928 0.0017746 0.0053555 -0.0106194 0.0002577 -0.0003923 0.0006002 -0.0001361 0.0001402 0.0000953 0.0001772 -0.0000019 0.0002529 -0.0001197 0.0001171 -0.0000526 0.0000461 0.0003996 -0.0002675 0.0010376
0.0004349 0.0014965 -0.0070860 0.0019938 0.0002536 -0.0003361 0.0006528 -0.0001109 0.0001426 0.0001725 0.0001652 0.0001222 0.0002342 -0.0000170 0.0001100 0.0000508 0.0000401 0.0004847 -0.0002643 0.0010906
0.0012939 0.0012295 -0.0018608 -0.0068150 0.0002494 -0.0002688 0.0006858 -0.0000518 0.0002981 0.0002008 0.0001582 0.0002504 0.0002320 0.0000831 0.0001030 0.0001715 0.0000321 0.0005889 -0.0002902 0.0011805
0.0011839 0.0015593 0.0063559 -0.0046165 0.0002403 -0.0001909 0.0006414 0.0000857 0.0003954 0.0003081 0.0001556 0.0003779 0.0002313 0.0001745 0.0000933 0.0002942 0.0000227 0.0006896 -0.0003152 0.0012522
0.0010365 0.0015866 -0.0027809 0.0037337 0.0002383 -0.0001154 0.0006146 0.0002028 0.0006518 0.0002415 0.0001469 0.0005030 0.0002147 0.0002798 0.0000892 0.0003487 0.0000105 0.0006943 -0.0003258 0.0012838
0.0007406 0.0017360 -0.0147717 0.0103863 0.0002473 -0.0001219 0.0005421 0.0002735 0.0008360 0.0000720 0.0001433 0.0004551 0.0002019 0.0002708 0.0000978 0.0002435 0.0000029 0.0005056 -0.0003194 0.0011907
0.0007093 0.0010547 -0.0034154 -0.0000562 0.0002513 -0.0002198 0.0004710 0.0002483 0.0006489 -0.0000079 0.0001412 0.0002904 0.0002013 0.0001560 0.0000991 0.0001255 0.0000065 0.0003173 -0.0003090 0.0010531
0.0010282 0.0005474 -0.0034864 -0.0002804 0.0002495 -0.0002747 0.0004904 0.0001585 0.0004827 -0.0000529 0.0001463 0.0002466 0.0001981 0.0001411 0.0000977 0.0001351 0.0000150 0.0003030 -0.0003141 0.0010200
0.0007577 0.0010737 -0.0029738 0.0102193 0.0002467 -0.0002748 0.0005075 0.0001236 0.0004104 -0.0000655 0.0001539 0.0002867 0.0001937 0.0001856 0.0001017 0.0002052 0.0000163 0.0003607 -0.0003004 0.0010142
0.0002275 0.0015472 0.0146414 -0.0115536 0.0002451 -0.0002483 0.0005236 0.0000975 0.0001871 0.0001449 0.0001513 0.0003730 0.0001877 0.0002599 0.0000969 0.0002839 0.0000185 0.0004566 -0.0003009 0.0010322
-0.0001502 0.0020798 0.0166588 -0.0268505 0.0002380 -0.0002242 0.0005656 0.0001202 0.0000360 0.0004030 0.0001467 0.0004896 0.0002009 0.0003130 0.0000869 0.0003683 0.0000182 0.0005743 -0.0003174 0.0010645
-0.0006409 0.0026255 -0.0107257 0.0029267 0.0002266 -0.0001816 0.0005718 0.0001643 0.0000624 0.0004507 0.0001491 0.0005346 0.0002302 0.0002870 0.0000903 0.0003660 0.0000049 0.0005201 -0.0002952 0.0010048
-0.0002343 0.0018575 -0.0062910 -0.0002559 0.0002224 -0.0001570 0.0006477 -0.0000595 0.0000422 0.0003192 0.0001517 0.0004747 0.0002340 0.0002391 0.0000859 0.0002861 -0.0000061 0.0003753 -0.0002875 0.0009074
0.0004579 0.0010544 -0.0069551 -0.0003422 0.0002196 -0.0001781 0.0006645 -0.0002134 0.0001284 0.0001741 0.0001529 0.0004385 0.0002337 0.0002027 0.0000741 0.0002647 -0.0000064 0.0003687 -0.0002990 0.0008682
0.0004749 0.0012234 -0.0150982 0.0102425 0.0002140 -0.0001778 0.0006274 -0.0002050 0.0001163 0.0001943 0.0001524 0.0004667 0.0002303 0.0002138 0.0000752 0.0003185 -0.0000063 0.0004150 -0.0002894 0.0008741
0.0006675 0.0010620 -0.0121992 0.0083683 0.0002084 -0.0001436 0.0006040 -0.0001815 0.0004268 -0.0000120 0.0001451 0.0005092 0.0002253 0.0002530 0.0000664 0.0003780 -0.0000017 0.0004729 -0.0002907 0.0008992
0.0012930 0.0006073 -0.0075611 0.0008278 0.0002076 -0.0000835 0.0005571 -0.0001040 0.0007110 -0.0001368 0.0001357 0.0005610 0.0002188 0.0002748 0.0000551 0.0004322 0.0000084 0.0005662 -0.0003062 0.0009226
0.0021831 -0.0000296 -0.0056389 0.0033703 0.0002092 -0.0000347 0.0004955 -0.0000097 0.0005687 0.0000886 0.0001279 0.0005525 0.0002052 0.0002588 0.0000632 0.0004142 -0.0000045 0.0004696 -0.0003196 0.0008859
0.0018467 0.0001344 0.0020664 -0.0024415 0.0002099 -0.0001086 0.0004440 0.0000097 0.0005641 -0.0000144 0.0001295 0.0004120 0.0001908 0.0002054 0.0000762 0.0002806 -0.0000221 0.0002243 -0.0003447 0.0007709
0.0009184 0.0006651 0.0108525 -0.0213679 0.0002178 -0.0002629 0.0004636 -0.0000777 0.0005383 -0.0002705 0.0001368 0.0002636 0.0001898 0.0001520 0.0000877 0.0002160 -0.0000144 0.0001529 -0.0003291 0.0006913
0.0004628 0.0009012 0.0177046 -0.0355348 0.0002287 -0.0003337 0.0004549 -0.0000483 0.0004076 -0.0001776 0.0001445 0.0002091 0.0001929 0.0001723 0.0001076 0.0003339 -0.0000049 0.0002245 -0.0002949 0.0007317
0.0006284 0.0011762 0.0040082 -0.0050777 0.0002390 -0.0003372 0.0004725 0.0000237 0.0003372 -0.0000273 0.0001570 0.0002140 0.0001930 0.0002338 0.0001250 0.0004860 -0.0000045 0.0003256 -0.0002738 0.0008252
0.0000875 0.0019098 -0.0019347 0.0007404 0.0002451 -0.0003216 0.0005065 0.0001038 0.0002676 0.0001197 0.0001594 0.0002499 0.0001972 0.0002735 0.0001383 0.0006055 0.0000036 0.0004359 -0.0002387 0.0009356
-0.0003149 0.0024828 0.0132606 -0.0266387 0.0002621 -0.0002957 0.0006135 0.0001713 0.0001341 0.0003325 0.0001681 0.0002406 0.0001954 0.0002953 0.0001526 0.0005823 -0.0000171 0.0003010 -0.0002238 0.0009668
0.0000182 0.0023783 0.0005286 0.0002439 0.0002895 -0.0004245 0.0006922 0.0001008 0.0000946 0.0001077 0.0001934 0.0001094 0.0002235 0.0001988 0.0001484 0.0003158 -0.0000129 0.0000637 -0.0002072 0.0008455
0.0004674 0.0015958 -0.0132086 0.0173250 0.0002823 -0.0005457 0.0006572 -0.0000535 0.0000228 -0.0002026 0.0002092 -0.0000054 0.0002599 0.0000772 0.0001328 0.0001395 0.0000420 0.0000757 -0.0001698 0.0007840
0.0006341 0.0012361 -0.0080550 0.0075312 0.0002622 -0.0004839 0.0006630 -0.0002633 0.0002362 -0.0004337 0.0002219 -0.0000312 0.0002652 0.0000297 0.0001201 0.0001406 0.0000619 0.0001556 -0.0001469 0.0007982
0.0004711 0.0014388 -0.0079051 0.0021980 0.0002581 -0.0004404 0.0006539 -0.0003853 0.0004810 -0.0006310 0.0002253 -0.0000519 0.0002556 -0.0000569 0.0001175 0.0001362 0.0000725 0.0002149 -0.0001620 0.0008078
0.0014739 0.0006794 -0.0088941 0.0012763 0.0002523 -0.0004267 0.0005824 -0.0002991 0.0004200 -0.0004872 0.0002193 -0.0000313 0.0002447 -0.0000739 0.0001173 0.0001762 0.0000821 0.0002909 -0.0001782 0.0008404
0.0021895 0.0002069 -0.0126744 0.0135435 0.0002488 -0.0004282 0.0005325 -0.0002422 0.0005149 -0.0004552 0.0002172 -0.0000918 0.0002437 -0.0001227 0.0001288 0.0000802 0.0000877 0.0001959 -0.0001872 0.0007884
0.0017766 0.0002874 -0.0133637 0.0148466 0.0002497 -0.0004971 0.0005174 -0.0003423 0.0005671 -0.0006851 0.0002189 -0.0002854 0.0002403 -0.0003180 0.0001399 -0.0001488 0.0001063 0.0000025 -0.0001877 0.0006625
0.0007424 0.0006862 0.0090935 -0.0156472 0.0002496 -0.0005763 0.0005035 -0.0004519 0.0005063 -0.0008208 0.0002226 -0.0004130 0.0002212 -0.0004568 0.0001372 -0.0002516 0.0001233 -0.0000247 -0.0001723 0.0006041
0.0003296 0.0009602 0.0164669 -0.0217346 0.0002517 -0.0006109 0.0005013 -0.0005116 0.0004670 -0.0008690 0.0002311 -0.0004366 0.0002084 -0.0004890 0.0001424 -0.0002661 0.0001409 0.0000396 -0.0001499 0.0006096
0.0000729 0.0010878 0.0063140 -0.0025595 0.0002498 -0.0006179 0.0004924 -0.0005175 0.0004170 -0.0008209 0.0002385 -0.0004195 0.0002046 -0.0004654 0.0001438 -0.0002314 0.0001552 0.0001161 -0.0001291 0.0006505
-0.0004573 0.0015534 0.0031191 0.0027709 0.0002442 -0.0005907 0.0005791 -0.0005464 0.0003442 -0.0006080 0.0002416 -0.0003851 0.0001925 -0.0004250 0.0001423 -0.0002383 0.0001586 0.0001162 -0.0001258 0.0006645
-0.0004240 0.0015554 0.0055590 -0.0015486 0.0002399 -0.0006033 0.0006372 -0.0006427 0.0002783 -0.0006959 0.0002463 -0.0004810 0.0002130 -0.0005318 0.0001433 -0.0003787 0.0001562 -0.0000244 -0.0001021 0.0005769
-0.0000898 0.0009707 0.0017019 0.0052470 0.0002381 -0.0006649 0.0005954 -0.0007325 0.0001181 -0.0007669 0.0002508 -0.0006256 0.0002329 -0.0006683 0.0001402 -0.0004949 0.0001614 -0.0000990 -0.0000843 0.0005391
0.0005253 0.0004073 -0.0043234 0.0094831 0.0002391 -0.0006928 0.0006117 -0.0008237 0.0002549 -0.0008691 0.0002580 -0.0006736 0.0002425 -0.0007068 0.0001389 -0.0005034 0.0001670 -0.0000571 -0.0000913 0.0005789
0.0005276 0.0004892 -0.0077560 0.0037877 0.0002391 -0.0006776 0.0006465 -0.0008819 0.0004786 -0.0010013 0.0002627 -0.0006703 0.0002635 -0.0007345 0.0001409 -0.0004954 0.0001697 -0.0000023 -0.0001137 0.0006200
0.0010149 0.0003365 0.0010260 -0.0071202 0.0002382 -0.0006482 0.0006244 -0.0008330 0.0003946 -0.0007775 0.0002643 -0.0006190 0.0002662 -0.0006953 0.0001383 -0.0004447 0.0001749 0.0000765 -0.0001256 0.0006974
0.0020322 -0.0001151 -0.0036391 0.0011016 0.0002382 -0.0006035 0.0005749 -0.0007281 0.0004974 -0.0007189 0.0002652 -0.0005607 0.0002606 -0.0006493 0.0001433 -0.0004360 0.0001736 0.0000731 -0.0001302 0.0007422
0.0017946 -0.0001317 -0.0062402 0.0061931 0.0002384 -0.0006247 0.0005527 -0.0007257 0.0006293 -0.0009451 0.0002595 -0.0006548 0.0002454 -0.0007170 0.0001552 -0.0005907 0.0001763 -0.0000928 -0.0001470 0.0006824
