-0.0000000 -0.0000000 -0.0000000 -0.0000000 -0.0000000 -0.0000000 -0.0000000 -0.0000000 -0.0000000 -0.0000000 -0.0000000 -0.0000000 -0.0000000 -0.0000000 -0.0000000 -0.0000000 -0.0000000 -0.0000000 -0.0000000 -0.0000000
-0.0000000 -0.0000000 -0.0000000 -0.0000000 -0.0000000 -0.0000000 -0.0000000 -0.0000000 -0.0000000 -0.0000000 -0.0000000 -0.0000000 -0.0000000 -0.0000000 -0.0000000 -0.0000000 -0.0000000 -0.0000000 -0.0000000 -0.0000000
0.0000172 -0.0000609 0.0000349 -0.0001374 0.0000451 -0.0001525 0.0000038 -0.0001263 0.0000156 -0.0000698 0.0000004 -0.0001323 0.0000033 -0.0001196 0.0000045 -0.0000687 -0.0000184 -0.0000210 0.0000238 -0.0000391
0.0001710 -0.0000320 0.0000474 -0.0000548 0.0001027 -0.0000273 0.0000239 -0.0000428 0.0000324 0.0000403 -0.0000034 -0.0001372 0.0000039 -0.0000434 0.0000291 0.0000861 -0.0000279 0.0000674 -0.0003899 0.0003340
0.0001932 -0.0000073 0.0000361 0.0000586 0.0000787 0.0000611 0.0000150 0.0000727 0.0000175 0.0001836 -0.0000328 -0.0001467 -0.0000058 -0.0000348 0.0000103 0.0001605 -0.0000141 0.0000612 -0.0004501 0.0003097
-0.0002788 -0.0001821 0.0000127 -0.0000047 0.0000361 -0.0001163 -0.0000816 -0.0001400 -0.0000581 0.0000198 -0.0000934 -0.0003780 -0.0000470 -0.0004327 -0.0000417 -0.0000835 -0.0000866 -0.0003258 -0.0001551 -0.0003935
-0.0005104 -0.0008904 0.0000166 -0.0003089 -0.0000325 -0.0006082 -0.0002556 -0.0006806 -0.0001679 -0.0003951 -0.0001680 -0.0008227 -0.0000978 -0.0010106 -0.0001448 -0.0005441 -0.0002529 -0.0007743 -0.0000303 -0.0008716
-0.0005082 -0.0011937 0.0000578 -0.0002982 -0.0000747 -0.0007232 -0.0003375 -0.0008000 -0.0001999 -0.0004631 -0.0001488 -0.0008615 -0.0000691 -0.0010101 -0.0001941 -0.0007498 -0.0003525 -0.0007314 -0.0001605 -0.0006538
-0.0005411 -0.0010466 0.0000499 -0.0000460 -0.0000866 -0.0005232 -0.0003039 -0.0006535 -0.0002071 -0.0004337 -0.0000235 -0.0004753 0.0000509 -0.0006795 -0.0001852 -0.0007295 -0.0004154 -0.0005705 -0.0000572 -0.0005347
-0.0005568 -0.0008032 0.0000631 0.0001540 -0.0001325 -0.0004620 -0.0003322 -0.0004878 -0.0002363 -0.0003792 0.0001027 -0.0001110 0.0001129 -0.0005369 -0.0000917 -0.0007004 -0.0005488 -0.0005585 -0.0003934 -0.0002030
-0.0007225 -0.0007772 0.0001720 0.0000063 -0.0001128 -0.0008109 -0.0004431 -0.0006432 -0.0002571 -0.0005092 0.0000474 -0.0005223 0.0000401 -0.0009619 0.0000521 -0.0007019 -0.0006056 -0.0007148 -0.0004960 -0.0001686
-0.0008279 -0.0014033 0.0002138 -0.0003807 -0.0000499 -0.0011554 -0.0004798 -0.0010204 -0.0002409 -0.0008191 -0.0001019 -0.0013909 -0.0000604 -0.0014363 0.0001773 -0.0005763 -0.0005735 -0.0008286 0.0002364 -0.0005239
-0.0006848 -0.0019266 0.0001763 -0.0004813 -0.0000319 -0.0010922 -0.0004828 -0.0011256 -0.0002608 -0.0009379 -0.0000167 -0.0012981 0.0000049 -0.0013174 0.0002451 -0.0004326 -0.0006030 -0.0007349 0.0002560 -0.0003585
-0.0005885 -0.0018058 0.0001632 -0.0004142 -0.0000701 -0.0010205 -0.0005331 -0.0010488 -0.0002939 -0.0008171 0.0000750 -0.0009402 0.0000977 -0.0010437 0.0002181 -0.0003851 -0.0005738 -0.0005348 -0.0002334 -0.0000221
-0.0005697 -0.0014907 0.0001686 -0.0002190 -0.0001745 -0.0009724 -0.0005972 -0.0009314 -0.0003020 -0.0007503 0.0002025 -0.0004374 0.0002208 -0.0007987 0.0002377 -0.0006486 -0.0005479 -0.0005779 0.0000546 -0.0002879
-0.0006458 -0.0014813 0.0001725 -0.0003504 -0.0003285 -0.0013218 -0.0006602 -0.0011204 -0.0002973 -0.0010216 0.0003761 0.0000754 0.0003678 -0.0007558 0.0002505 -0.0011379 -0.0005107 -0.0007483 -0.0000392 -0.0002625
-0.0007914 -0.0015919 0.0001544 -0.0006637 -0.0004296 -0.0017211 -0.0006788 -0.0014549 -0.0003144 -0.0014382 0.0004194 0.0001518 0.0004152 -0.0008592 0.0001510 -0.0014217 -0.0004653 -0.0007442 -0.0003585 -0.0000284
-0.0005671 -0.0017308 0.0001006 -0.0007140 -0.0004038 -0.0015922 -0.0006428 -0.0015131 -0.0003299 -0.0015898 0.0004220 0.0002320 0.0004403 -0.0007627 0.0000795 -0.0014787 -0.0004077 -0.0006229 -0.0001345 -0.0001744
-0.0005613 -0.0015712 0.0000737 -0.0005593 -0.0003683 -0.0013279 -0.0005712 -0.0013896 -0.0003232 -0.0015227 0.0004966 0.0005546 0.0005154 -0.0004584 0.0001229 -0.0012977 -0.0003661 -0.0004493 -0.0001529 0.0000602
-0.0004895 -0.0013515 0.0000499 -0.0004184 -0.0003805 -0.0011364 -0.0005214 -0.0012463 -0.0003221 -0.0014677 0.0004899 0.0005183 0.0005514 -0.0004232 0.0003160 -0.0010442 -0.0003031 -0.0004359 -0.0003145 0.0002980
-0.0004128 -0.0014355 0.0000148 -0.0005353 -0.0004080 -0.0012865 -0.0004586 -0.0013833 -0.0002924 -0.0016629 0.0004914 0.0003381 0.0005841 -0.0006587 0.0004364 -0.0012503 -0.0002527 -0.0006491 0.0000219 -0.0000572
-0.0006269 -0.0014558 -0.0000020 -0.0007528 -0.0004494 -0.0015677 -0.0003945 -0.0016382 -0.0002545 -0.0019135 0.0005827 0.0005487 0.0006572 -0.0006965 0.0003629 -0.0016005 -0.0002818 -0.0007101 0.0001585 -0.0002455
-0.0003453 -0.0015991 0.0000060 -0.0007045 -0.0004601 -0.0015246 -0.0003742 -0.0016362 -0.0002412 -0.0019354 0.0006211 0.0007284 0.0006880 -0.0005526 0.0002880 -0.0016062 -0.0002970 -0.0005977 -0.0001399 0.0000528
-0.0002829 -0.0014934 0.0000171 -0.0004703 -0.0004498 -0.0013350 -0.0003414 -0.0014415 -0.0002229 -0.0017968 0.0007216 0.0011518 0.0007731 -0.0001525 0.0002624 -0.0013668 -0.0002455 -0.0003712 0.0000032 0.0001700
-0.0002326 -0.0012805 -0.0000058 -0.0002974 -0.0004553 -0.0011301 -0.0003012 -0.0011784 -0.0002023 -0.0015984 0.0007345 0.0013767 0.0007865 -0.0000679 0.0002475 -0.0012053 -0.0001858 -0.0002840 0.0000997 -0.0002890
-0.0002801 -0.0012887 -0.0000768 -0.0005102 -0.0004502 -0.0012464 -0.0002860 -0.0012213 -0.0001592 -0.0016447 0.0006564 0.0010429 0.0007240 -0.0004459 0.0002502 -0.0014803 -0.0001816 -0.0005092 -0.0002449 -0.0005859
-0.0006672 -0.0011911 -0.0000919 -0.0007457 -0.0004479 -0.0015055 -0.0002545 -0.0013989 -0.0001022 -0.0018118 0.0006762 0.0008341 0.0007491 -0.0005376 0.0003019 -0.0017382 -0.0002030 -0.0006141 -0.0003484 -0.0003536
-0.0007201 -0.0010465 -0.0000460 -0.0006231 -0.0004580 -0.0014558 -0.0002168 -0.0013104 -0.0000737 -0.0017621 0.0007150 0.0009137 0.0007868 -0.0003897 0.0002929 -0.0015619 -0.0002386 -0.0005222 -0.0000545 -0.0003098
-0.0007473 -0.0008040 -0.0000346 -0.0004515 -0.0004472 -0.0012550 -0.0001896 -0.0010912 -0.0000639 -0.0015769 0.0007814 0.0012088 0.0008509 -0.0000807 0.0003188 -0.0012458 -0.0002616 -0.0003698 -0.0001818 -0.0000558
-0.0006808 -0.0006577 -0.0000327 -0.0002465 -0.0004393 -0.0009544 -0.0001573 -0.0008267 -0.0000661 -0.0013502 0.0008424 0.0015276 0.0009040 0.0002995 0.0004180 -0.0010287 -0.0002575 -0.0002254 -0.0001806 0.0000148
-0.0003055 -0.0008858 -0.0000292 -0.0002419 -0.0003902 -0.0008347 -0.0001353 -0.0008071 -0.0000699 -0.0014212 0.0008582 0.0015010 0.0008976 0.0002573 0.0004719 -0.0011995 -0.0002052 -0.0003597 0.0000978 -0.0002773
-0.0000931 -0.0011400 -0.0000372 -0.0004353 -0.0003479 -0.0009734 -0.0001116 -0.0009734 -0.0000592 -0.0016615 0.0008683 0.0013356 0.0008884 0.0000340 0.0004484 -0.0014036 -0.0001746 -0.0005191 0.0000120 -0.0004194
-0.0001480 -0.0011748 -0.0000506 -0.0004797 -0.0003721 -0.0010196 -0.0000949 -0.0009336 -0.0000521 -0.0016320 0.0008699 0.0013205 0.0008993 0.0000991 0.0004414 -0.0012893 -0.0001964 -0.0004387 0.0002003 -0.0004474
-0.0002685 -0.0010720 -0.0000503 -0.0003178 -0.0004038 -0.0009224 -0.0000788 -0.0007192 -0.0000521 -0.0014477 0.0008758 0.0014322 0.0008953 0.0003491 0.0004561 -0.0010237 -0.0002138 -0.0002976 -0.0000416 -0.0001836
-0.0003178 -0.0008912 -0.0000594 -0.0001300 -0.0004515 -0.0007668 -0.0000637 -0.0004660 -0.0000736 -0.0013189 0.0009177 0.0017796 0.0009393 0.0008316 0.0004683 -0.0005423 -0.0000663 -0.0000047 -0.0000688 0.0001826
-0.0004482 -0.0004999 -0.0001365 -0.0000478 0.0000077 0.0002743 0.0003295 -0.0001204 0.0001415 -0.0010423 0.0006994 0.0008634 0.0008584 0.0005506 0.0006253 -0.0000968 0.0002072 0.0000820 0.0004099 0.0000782
-0.0006058 -0.0000065 -0.0002194 -0.0001642 0.0007992 0.0013825 0.0009881 0.0003529 0.0005879 -0.0003913 0.0003285 -0.0009664 0.0006332 -0.0003347 0.0007833 0.0001389 0.0003611 -0.0000338 0.0002035 0.0000798
-0.0004486 0.0002896 -0.0002572 -0.0001853 0.0010947 0.0016594 0.0013254 0.0008633 0.0008698 0.0003655 0.0001870 -0.0016012 0.0005129 -0.0005260 0.0007860 0.0004221 0.0004310 0.0001179 0.0000193 0.0001536
-0.0002052 0.0004166 -0.0002852 0.0000144 0.0010740 0.0018564 0.0014067 0.0013475 0.0009695 0.0010476 0.0001252 -0.0016710 0.0004398 -0.0003854 0.0007528 0.0008043 0.0004920 0.0003817 0.0002419 0.0001851
-0.0002063 0.0006998 -0.0002757 0.0002710 0.0010548 0.0020872 0.0014150 0.0018032 0.0010044 0.0016613 0.0001130 -0.0015291 0.0003896 -0.0001232 0.0007043 0.0012193 0.0005397 0.0006533 0.0003209 0.0004110
-0.0004391 0.0011113 -0.0002717 0.0005927 0.0009886 0.0023526 0.0013925 0.0022585 0.0010125 0.0021986 0.0001391 -0.0012361 0.0004033 0.0001527 0.0006987 0.0013375 0.0005827 0.0007667 0.0002722 0.0004597
-0.0006901 0.0013419 -0.0002667 0.0005704 0.0009197 0.0022717 0.0013811 0.0022881 0.0010148 0.0023021 0.0001670 -0.0011495 0.0004275 0.0001292 0.0007324 0.0010884 0.0006170 0.0006261 0.0002151 0.0003333
-0.0006938 0.0013589 -0.0002437 0.0003440 0.0008864 0.0019942 0.0013640 0.0021107 0.0010209 0.0022262 0.0001938 -0.0011287 0.0004143 0.0001115 0.0007134 0.0010934 0.0006196 0.0006127 0.0003237 0.0002445
-0.0004655 0.0012766 -0.0002276 0.0004255 0.0008330 0.0020132 0.0013153 0.0022409 0.0010097 0.0024121 0.0002349 -0.0008531 0.0004085 0.0003498 0.0006862 0.0013506 0.0006260 0.0007836 0.0004438 0.0002381
-0.0004704 0.0013967 -0.0002209 0.0006255 0.0007560 0.0021446 0.0012623 0.0024504 0.0009818 0.0026689 0.0002763 -0.0004814 0.0004266 0.0006630 0.0006634 0.0016180 0.0006395 0.0009743 0.0003687 0.0003227
-0.0005713 0.0016115 -0.0002179 0.0008532 0.0006853 0.0023227 0.0012143 0.0027047 0.0009549 0.0029571 0.0002968 -0.0001800 0.0004377 0.0009249 0.0006708 0.0017591 0.0006450 0.0010815 0.0002373 0.0005761
-0.0006205 0.0016200 -0.0002109 0.0008132 0.0006408 0.0022530 0.0011673 0.0026411 0.0009267 0.0028993 0.0003253 -0.0000818 0.0004461 0.0008852 0.0006749 0.0015777 0.0006654 0.0009176 0.0002191 0.0005087
-0.0003791 0.0014288 -0.0001984 0.0005822 0.0006208 0.0019750 0.0011224 0.0023653 0.0009026 0.0026858 0.0003581 -0.0000598 0.0004393 0.0007773 0.0006695 0.0015026 0.0006869 0.0008041 -0.0000219 0.0004836
-0.0002065 0.0013294 -0.0001947 0.0006094 0.0005985 0.0019934 0.0010813 0.0023903 0.0008697 0.0027589 0.0003519 0.0000039 0.0004128 0.0008648 0.0006522 0.0017352 0.0006972 0.0009078 0.0000242 0.0005505
-0.0002323 0.0014317 -0.0001854 0.0007848 0.0005574 0.0021450 0.0010253 0.0025643 0.0008221 0.0029222 0.0003268 0.0001161 0.0003805 0.0010530 0.0005975 0.0019843 0.0006699 0.0010452 0.0003028 0.0005015
-0.0002416 0.0016129 -0.0001904 0.0009276 0.0005264 0.0022971 0.0009546 0.0027520 0.0007878 0.0031664 0.0002583 0.0001652 0.0003160 0.0011537 0.0005338 0.0020399 0.0006219 0.0010126 -0.0000030 0.0005698
-0.0002006 0.0015067 -0.0001792 0.0008533 0.0005309 0.0022200 0.0009131 0.0026234 0.0007627 0.0030723 0.0001969 -0.0000336 0.0002608 0.0009057 0.0004585 0.0016335 0.0005941 0.0007844 0.0000638 0.0003977
0.0000105 0.0013099 -0.0001197 0.0006473 0.0005170 0.0019032 0.0008777 0.0023007 0.0007436 0.0027794 0.0001433 -0.0003568 0.0001984 0.0005586 0.0004366 0.0013568 0.0006079 0.0006772 0.0003303 0.0001605
0.0000527 0.0014109 -0.0000870 0.0006628 0.0005309 0.0019097 0.0008491 0.0023045 0.0007349 0.0028196 0.0000970 -0.0004603 0.0001546 0.0005239 0.0004549 0.0015588 0.0006222 0.0007596 0.0001947 0.0002871
-0.0000225 0.0015556 -0.0000739 0.0008544 0.0005431 0.0020861 0.0008256 0.0024810 0.0007132 0.0029389 0.0001147 -0.0002824 0.0001571 0.0007218 0.0004514 0.0018129 0.0006047 0.0009190 0.0000422 0.0005912
-0.0000904 0.0017491 -0.0000602 0.0010558 0.0004976 0.0022370 0.0007818 0.0026578 0.0006789 0.0031081 0.0001127 -0.0001064 0.0001326 0.0008348 0.0004470 0.0019115 0.0006331 0.0009347 0.0002306 0.0003786
-0.0002431 0.0016663 -0.0000759 0.0007895 0.0005603 0.0021689 0.0006977 0.0024267 0.0006788 0.0030889 0.0000103 -0.0003686 0.0000229 0.0003245 0.0004197 0.0017129 0.0005352 0.0003881 -0.0000010 -0.0000097
-0.0002293 0.0013593 -0.0000575 0.0003897 0.0007010 0.0019209 0.0006306 0.0019850 0.0006954 0.0028512 -0.0000753 -0.0008032 -0.0000835 -0.0001581 0.0003235 0.0014348 0.0003782 -0.0000018 -0.0001517 -0.0000396
-0.0000838 0.0013864 0.0000087 0.0005683 0.0006855 0.0019006 0.0006305 0.0019896 0.0006787 0.0027411 -0.0000717 -0.0008955 -0.0000952 -0.0000703 0.0002429 0.0013760 0.0004064 0.0001215 0.0001424 0.0000447
0.0000952 0.0014748 0.0000277 0.0007435 0.0006481 0.0020630 0.0006047 0.0021433 0.0006548 0.0028503 -0.0001205 -0.0009115 -0.0001452 -0.0000035 0.0002236 0.0015879 0.0004451 0.0002334 0.0002338 -0.0000860
0.0001251 0.0014905 0.0000048 0.0007807 0.0007399 0.0023561 0.0005529 0.0023049 0.0006472 0.0031196 -0.0001847 -0.0008859 -0.0002043 0.0000910 0.0002044 0.0017358 0.0004439 0.0003292 0.0001406 -0.0002007
0.0000443 0.0014618 0.0000123 0.0006800 0.0008385 0.0023674 0.0005285 0.0021691 0.0006488 0.0030268 -0.0001883 -0.0009889 -0.0002347 -0.0002212 0.0003661 0.0016842 0.0004413 0.0001794 -0.0001033 -0.0002136
0.0000728 0.0013294 0.0000769 0.0004543 0.0011423 0.0024059 0.0007040 0.0020846 0.0008184 0.0031209 -0.0000833 -0.0011937 -0.0004231 -0.0012623 0.0006316 0.0016638 0.0003290 0.0000913 -0.0004624 0.0000691
-0.0000488 0.0012981 0.0001569 0.0003940 0.0016271 0.0029660 0.0009810 0.0025578 0.0009642 0.0036560 -0.0001069 -0.0015695 -0.0006740 -0.0020944 0.0005727 0.0015456 0.0001928 0.0001516 -0.0005820 0.0000956
-0.0000484 0.0011557 0.0001778 0.0005201 0.0018341 0.0034425 0.0011620 0.0031194 0.0009648 0.0039094 -0.0001771 -0.0018112 -0.0007355 -0.0020515 0.0004312 0.0014603 0.0001921 0.0003905 -0.0002244 0.0001691
-0.0000475 0.0013576 0.0001828 0.0009396 0.0017508 0.0037539 0.0013206 0.0037338 0.0010092 0.0041267 -0.0000478 -0.0014115 -0.0006887 -0.0016227 0.0005298 0.0015217 0.0003021 0.0009031 -0.0000774 0.0009912
-0.0000032 0.0016963 0.0002119 0.0011678 0.0016870 0.0038511 0.0014346 0.0038607 0.0010337 0.0040205 0.0001114 -0.0009635 -0.0005863 -0.0015062 0.0006369 0.0010787 0.0004342 0.0010147 0.0004402 0.0008966
0.0001207 0.0015186 0.0002015 0.0008719 0.0016931 0.0036070 0.0014768 0.0035453 0.0010325 0.0036864 0.0001519 -0.0009449 -0.0005546 -0.0017523 0.0006401 0.0006901 0.0004959 0.0008687 0.0005437 0.0006449
0.0000816 0.0010634 0.0001207 0.0005642 0.0016658 0.0034456 0.0014286 0.0034890 0.0009931 0.0036579 0.0000979 -0.0009809 -0.0005953 -0.0018058 0.0005535 0.0008138 0.0005166 0.0009628 0.0003365 0.0007477
0.0001157 0.0007912 0.0000634 0.0005723 0.0016170 0.0035022 0.0013290 0.0035662 0.0009263 0.0037347 0.0000891 -0.0007251 -0.0005940 -0.0015997 0.0004222 0.0008672 0.0005138 0.0011110 0.0003278 0.0008264
0.0000101 0.0009556 0.0000689 0.0007534 0.0015706 0.0036386 0.0012542 0.0037007 0.0008727 0.0038533 0.0000941 -0.0004248 -0.0006181 -0.0013157 0.0002949 0.0010364 0.0005068 0.0012778 0.0000966 0.0011534
-0.0001949 0.0011437 0.0000551 0.0008894 0.0015333 0.0037821 0.0012094 0.0037576 0.0008323 0.0038508 0.0000867 -0.0002998 -0.0006303 -0.0012806 0.0002680 0.0009438 0.0005270 0.0012013 0.0000738 0.0010464
-0.0002774 0.0011169 0.0000449 0.0006793 0.0015171 0.0034854 0.0011622 0.0033643 0.0008028 0.0035205 0.0000867 -0.0003372 -0.0006107 -0.0014665 0.0003040 0.0006411 0.0005265 0.0009396 -0.0000559 0.0008714
-0.0000792 0.0008301 0.0000589 0.0004109 0.0014995 0.0031197 0.0010962 0.0029968 0.0007731 0.0032875 0.0000693 -0.0003441 -0.0006484 -0.0015925 0.0004154 0.0009738 0.0004739 0.0008858 -0.0000273 0.0006282
-0.0000836 0.0003930 0.0001357 0.0003701 0.0016203 0.0032133 0.0009918 0.0029750 0.0006823 0.0033231 0.0000251 -0.0004685 -0.0007163 -0.0016474 0.0004620 0.0015500 0.0002445 0.0006833 -0.0000947 -0.0001943
-0.0006089 -0.0004221 0.0002315 0.0003577 0.0018736 0.0036064 0.0009121 0.0031234 0.0005804 0.0034794 -0.0000580 -0.0006008 -0.0007713 -0.0015152 0.0002795 0.0017526 0.0000128 0.0005237 -0.0005161 -0.0004762
-0.0009185 -0.0006990 0.0002751 0.0006150 0.0018959 0.0039142 0.0008662 0.0033432 0.0005106 0.0036137 -0.0000696 -0.0002566 -0.0007842 -0.0012306 0.0001643 0.0016288 -0.0000608 0.0006202 -0.0005118 -0.0001250
-0.0009166 -0.0002153 0.0003272 0.0007370 0.0017604 0.0035917 0.0007963 0.0029832 0.0004385 0.0032115 -0.0000140 -0.0000097 -0.0007665 -0.0013317 0.0001099 0.0010933 -0.0001666 0.0004039 -0.0006935 0.0001789
-0.0006745 -0.0001355 0.0004033 0.0006449 0.0016530 0.0030402 0.0007357 0.0023592 0.0003813 0.0025468 0.0000722 0.0001627 -0.0007496 -0.0014207 0.0000243 0.0003926 -0.0002118 0.0002896 -0.0006192 0.0005676
-0.0003216 -0.0000161 0.0004756 0.0008438 0.0014788 0.0027309 0.0006596 0.0021168 0.0003180 0.0021875 0.0001654 0.0005366 -0.0007663 -0.0011699 -0.0000475 0.0001035 -0.0001922 0.0004715 0.0000082 0.0006388
-0.0002710 0.0002871 0.0004804 0.0009880 0.0013484 0.0026828 0.0005642 0.0020944 0.0002675 0.0021961 0.0001070 0.0006062 -0.0008673 -0.0011191 -0.0001454 0.0004273 -0.0001235 0.0006722 0.0002266 0.0001968
-0.0004547 0.0001422 0.0004098 0.0009921 0.0013325 0.0027884 0.0004372 0.0021362 0.0001963 0.0023001 0.0000452 0.0007764 -0.0009572 -0.0009144 -0.0003758 0.0005206 -0.0001166 0.0008609 -0.0000597 0.0007701
-0.0006175 0.0002010 0.0003823 0.0010101 0.0012056 0.0025277 0.0002620 0.0017842 0.0000710 0.0019090 0.0000640 0.0010282 -0.0009659 -0.0007695 -0.0006536 -0.0003110 -0.0001741 0.0006782 -0.0002757 0.0012645
-0.0006062 0.0002628 0.0003806 0.0008363 0.0009577 0.0018520 0.0001048 0.0010783 -0.0000521 0.0012104 0.0000850 0.0010895 -0.0009430 -0.0007783 -0.0007999 -0.0011302 -0.0001970 0.0003017 0.0000965 0.0007490
-0.0004526 0.0000177 0.0003554 0.0006782 0.0007391 0.0013657 -0.0000049 0.0006787 -0.0001359 0.0008311 0.0000906 0.0011904 -0.0009404 -0.0006071 -0.0009503 -0.0013775 -0.0002284 0.0002210 0.0003764 0.0006272
-0.0001062 -0.0001526 0.0003401 0.0007220 0.0005819 0.0012190 -0.0000802 0.0006221 -0.0001931 0.0007349 0.0000569 0.0012630 -0.0009649 -0.0004867 -0.0010845 -0.0014515 -0.0002690 0.0003784 0.0000844 0.0006370
-0.0000618 -0.0001408 0.0003142 0.0008060 0.0005183 0.0012687 -0.0001456 0.0007267 -0.0002437 0.0007949 0.0000148 0.0013338 -0.0009682 -0.0003102 -0.0011840 -0.0014466 -0.0002969 0.0005690 -0.0000207 0.0007440
-0.0005095 0.0002620 0.0002960 0.0009234 0.0004264 0.0012380 -0.0001945 0.0007002 -0.0002984 0.0006361 0.0000345 0.0014100 -0.0009075 -0.0002112 -0.0012133 -0.0018114 -0.0002197 0.0006044 0.0001943 0.0006523
-0.0005013 0.0001281 0.0002922 0.0007909 0.0002606 0.0007587 -0.0002358 0.0002955 -0.0003504 0.0001328 0.0000666 0.0013467 -0.0008463 -0.0003680 -0.0011747 -0.0023707 -0.0001300 0.0004767 0.0000854 0.0006758
-0.0002108 -0.0002601 0.0002720 0.0005528 0.0001084 0.0002511 -0.0003017 -0.0000706 -0.0003990 -0.0001909 0.0000289 0.0012133 -0.0008760 -0.0004711 -0.0011993 -0.0024267 -0.0001132 0.0004689 -0.0000163 0.0008432
-0.0003446 -0.0002224 0.0002498 0.0005560 0.0000049 0.0000922 -0.0003747 -0.0001430 -0.0004698 -0.0002686 -0.0000255 0.0011675 -0.0009307 -0.0003931 -0.0012559 -0.0022275 -0.0001348 0.0005864 0.0000574 0.0008593
-0.0005415 -0.0000622 0.0002238 0.0006593 -0.0001098 0.0000629 -0.0004428 -0.0000719 -0.0005394 -0.0002335 -0.0000654 0.0012362 -0.0009352 -0.0001761 -0.0012864 -0.0019729 -0.0001655 0.0007311 -0.0000625 0.0009737
-0.0003163 -0.0001108 0.0001726 0.0007579 -0.0001735 0.0002282 -0.0004413 0.0000857 -0.0005516 -0.0001567 -0.0000561 0.0013809 -0.0008381 0.0000694 -0.0012759 -0.0019728 -0.0000678 0.0007214 -0.0000021 0.0007968
-0.0003209 -0.0003130 0.0000936 0.0004969 -0.0001872 0.0000826 -0.0003677 -0.0001034 -0.0005206 -0.0003697 -0.0000865 0.0011726 -0.0007652 -0.0000450 -0.0011726 -0.0022456 0.0000414 0.0005192 0.0001054 0.0005450
-0.0006425 -0.0005163 0.0000220 0.0001451 -0.0002595 -0.0003470 -0.0003232 -0.0003832 -0.0004876 -0.0005789 -0.0001829 0.0008135 -0.0007827 -0.0001605 -0.0011311 -0.0021756 0.0000576 0.0004842 0.0001440 0.0004493
-0.0006692 -0.0005707 -0.0000390 0.0001466 -0.0003452 -0.0004599 -0.0002952 -0.0002373 -0.0004546 -0.0003990 -0.0002758 0.0006767 -0.0007722 0.0000471 -0.0011935 -0.0018337 0.0000928 0.0006326 -0.0000451 0.0005746
-0.0005946 -0.0006012 -0.0001035 0.0002463 -0.0004107 -0.0003640 -0.0002349 0.0000912 -0.0004111 -0.0000380 -0.0003403 0.0007325 -0.0007097 0.0004303 -0.0011852 -0.0014734 0.0001675 0.0008264 -0.0001120 0.0007440
-0.0007833 -0.0003699 -0.0001662 0.0004133 -0.0004782 -0.0001525 -0.0002075 0.0004766 -0.0003892 0.0003385 -0.0003527 0.0009701 -0.0006290 0.0008205 -0.0011169 -0.0012962 0.0002299 0.0008907 -0.0002542 0.0008113
-0.0007630 -0.0003143 -0.0001769 0.0003163 -0.0004938 -0.0002475 -0.0002046 0.0004430 -0.0003735 0.0002986 -0.0003306 0.0009961 -0.0005580 0.0008054 -0.0010199 -0.0014364 0.0002478 0.0006936 0.0001353 0.0003907
-0.0007505 -0.0003903 -0.0001550 0.0000130 -0.0004578 -0.0005520 -0.0002037 0.0001419 -0.0003464 0.0000948 -0.0003003 0.0009226 -0.0004783 0.0007439 -0.0009593 -0.0013845 0.0003135 0.0006002 0.0004024 0.0001913
-0.0007288 -0.0002710 -0.0001756 0.0000060 -0.0004635 -0.0005271 -0.0002084 0.0001851 -0.0003346 0.0001965 -0.0003099 0.0009520 -0.0004486 0.0008846 -0.0009788 -0.0011471 0.0003702 0.0007077 0.0000878 0.0004975
-0.0006650 -0.0001397 -0.0002112 0.0001942 -0.0005311 -0.0003915 -0.0002157 0.0004045 -0.0003566 0.0003527 -0.0002878 0.0012142 -0.0003885 0.0012075 -0.0009633 -0.0009128 0.0003754 0.0008424 0.0000217 0.0006292
-0.0008691 0.0001758 -0.0002377 0.0004311 -0.0006190 -0.0002379 -0.0002474 0.0006776 -0.0003939 0.0005722 -0.0002313 0.0016536 -0.0003003 0.0016795 -0.0009159 -0.0006269 0.0003434 0.0009465 0.0002037 0.0004360
-0.0008205 0.0003337 -0.0001717 0.0004675 -0.0006219 -0.0003075 -0.0002986 0.0006750 -0.0004221 0.0005433 -0.0002646 0.0015339 -0.0003320 0.0015363 -0.0009513 -0.0007596 0.0002303 0.0007851 0.0004481 0.0000007
-0.0004065 0.0002597 -0.0000546 0.0003187 -0.0005843 -0.0006278 -0.0003605 0.0004221 -0.0004372 0.0003386 -0.0003656 0.0010041 -0.0004173 0.0010594 -0.0009595 -0.0010751 0.0000986 0.0006193 0.0002444 0.0000739
-0.0001386 0.0005182 0.0000882 0.0003758 -0.0004913 -0.0006377 -0.0004081 0.0004259 -0.0004155 0.0004971 -0.0004322 0.0008009 -0.0004572 0.0010463 -0.0009589 -0.0009460 0.0000579 0.0007007 0.0001658 0.0004823
0.0000325 0.0006883 0.0002102 0.0005717 -0.0003462 -0.0003719 -0.0004262 0.0006479 -0.0003728 0.0008799 -0.0004080 0.0010143 -0.0004214 0.0013368 -0.0010035 -0.0005665 0.0001487 0.0009062 0.0002390 0.0008928
0.0001474 0.0005484 0.0001715 0.0006983 -0.0003056 -0.0001379 -0.0004583 0.0008692 -0.0003561 0.0012763 -0.0004720 0.0010757 -0.0004791 0.0013876 -0.0010835 -0.0002936 0.0001760 0.0009930 0.0001300 0.0004729
-0.0001599 0.0006402 0.0000008 0.0006103 -0.0004239 -0.0002189 -0.0005481 0.0007827 -0.0003936 0.0013194 -0.0006984 0.0005139 -0.0006658 0.0008590 -0.0012185 -0.0005056 0.0001201 0.0006438 -0.0000905 -0.0005731
-0.0003853 0.0006151 -0.0000833 0.0003991 -0.0004795 -0.0003977 -0.0006096 0.0005339 -0.0003909 0.0011853 -0.0008422 -0.0000078 -0.0007377 0.0004049 -0.0013325 -0.0007051 0.0001140 0.0001537 -0.0003944 -0.0011002
-0.0004070 0.0003305 -0.0000255 0.0004082 -0.0002138 -0.0000361 -0.0005457 0.0006168 -0.0003030 0.0014408 -0.0009376 -0.0002580 -0.0007674 0.0003429 -0.0014055 -0.0003642 0.0000968 -0.0001194 -0.0005254 -0.0015579
-0.0006207 0.0001261 0.0000014 0.0005594 0.0000425 0.0004950 -0.0004610 0.0009630 -0.0002271 0.0018746 -0.0009770 -0.0002484 -0.0008114 0.0004663 -0.0013879 0.0000883 0.0000142 -0.0000962 -0.0007304 -0.0014757
-0.0007491 0.0003667 0.0000555 0.0008067 0.0002109 0.0009531 -0.0003882 0.0014213 -0.0001708 0.0022985 -0.0010272 -0.0002986 -0.0008775 0.0005205 -0.0013579 0.0002275 -0.0000921 0.0000441 -0.0009489 -0.0010549
-0.0007312 0.0009159 0.0001127 0.0009873 0.0003034 0.0011195 -0.0002951 0.0015535 -0.0001466 0.0022944 -0.0011106 -0.0007094 -0.0009231 0.0003310 -0.0013406 -0.0000653 -0.0001646 -0.0001085 -0.0008309 -0.0011486
-0.0006124 0.0010517 0.0001393 0.0009482 0.0002772 0.0009182 -0.0002308 0.0013875 -0.0001526 0.0019760 -0.0010528 -0.0008122 -0.0008724 0.0002458 -0.0012944 -0.0002997 -0.0002297 -0.0002727 -0.0010103 -0.0010161
-0.0001288 0.0008735 0.0001891 0.0010278 0.0002631 0.0008471 -0.0002130 0.0014393 -0.0001600 0.0019638 -0.0010171 -0.0007629 -0.0008712 0.0003046 -0.0012883 -0.0001814 -0.0002842 -0.0001886 -0.0010196 -0.0007188
-0.0001605 0.0012054 0.0002318 0.0012500 0.0002534 0.0009442 -0.0002296 0.0016407 -0.0001724 0.0021304 -0.0010338 -0.0007290 -0.0009005 0.0004490 -0.0012652 0.0001308 -0.0003435 -0.0000447 -0.0006358 -0.0007048
-0.0002803 0.0015077 0.0002811 0.0014998 0.0002600 0.0011869 -0.0002353 0.0019030 -0.0001777 0.0023499 -0.0010190 -0.0005691 -0.0008903 0.0006326 -0.0012036 0.0002555 -0.0003569 0.0000119 -0.0006028 -0.0006365
-0.0001758 0.0015000 0.0003321 0.0014507 0.0002717 0.0011201 -0.0002207 0.0017939 -0.0001739 0.0022358 -0.0009969 -0.0006068 -0.0008578 0.0005476 -0.0011572 0.0000533 -0.0003350 -0.0001244 -0.0008012 -0.0004835
0.0000397 0.0013070 0.0003546 0.0012499 0.0002765 0.0008619 -0.0002146 0.0015145 -0.0001575 0.0019918 -0.0009752 -0.0006824 -0.0008442 0.0004628 -0.0011656 0.0000023 -0.0003241 -0.0001594 -0.0007567 -0.0004491
0.0001240 0.0013309 0.0003652 0.0013495 0.0002522 0.0009168 -0.0002156 0.0015699 -0.0001632 0.0020332 -0.0009577 -0.0005777 -0.0008358 0.0006337 -0.0012041 0.0001973 -0.0003027 -0.0000214 -0.0006088 -0.0004637
-0.0001253 0.0016622 0.0003509 0.0015317 0.0001796 0.0010630 -0.0002226 0.0017274 -0.0001889 0.0021526 -0.0009587 -0.0004122 -0.0008273 0.0008878 -0.0012258 0.0003431 -0.0002997 0.0001456 -0.0006529 -0.0003679
0.0000155 0.0015855 0.0003068 0.0016768 0.0001129 0.0011966 -0.0002227 0.0018337 -0.0002003 0.0021516 -0.0009537 -0.0003346 -0.0008162 0.0009183 -0.0012224 0.0000949 -0.0002865 0.0000880 -0.0005800 -0.0004333
0.0002490 0.0012772 0.0002976 0.0014995 0.0000975 0.0009616 -0.0002139 0.0015638 -0.0001989 0.0018774 -0.0009324 -0.0004228 -0.0007913 0.0006953 -0.0012584 -0.0003208 -0.0002576 -0.0001300 -0.0006705 -0.0004744
0.0002402 0.0011876 0.0003110 0.0012494 0.0000628 0.0006272 -0.0002382 0.0012601 -0.0001986 0.0016917 -0.0009087 -0.0003979 -0.0007700 0.0006726 -0.0012851 -0.0004077 -0.0002575 -0.0001096 -0.0009037 -0.0002054
-0.0000725 0.0013737 0.0003146 0.0013157 0.0000139 0.0006597 -0.0002671 0.0012930 -0.0002071 0.0017327 -0.0008944 -0.0002634 -0.0007584 0.0008375 -0.0013079 -0.0002515 -0.0002402 0.0000318 -0.0007913 -0.0001920
-0.0001233 0.0014878 0.0003009 0.0014909 -0.0000238 0.0008199 -0.0002763 0.0014441 -0.0002216 0.0018432 -0.0008967 -0.0001233 -0.0007656 0.0010426 -0.0013189 -0.0000222 -0.0002169 0.0001537 -0.0006697 -0.0002152
-0.0001392 0.0015319 0.0002901 0.0014786 -0.0000308 0.0007815 -0.0002767 0.0013456 -0.0002322 0.0016857 -0.0008871 -0.0001478 -0.0007566 0.0009305 -0.0012962 -0.0002378 -0.0002219 0.0000314 -0.0009812 -0.0002251
-0.0001519 0.0013883 0.0002904 0.0012320 -0.0000501 0.0004510 -0.0002760 0.0009718 -0.0002339 0.0013084 -0.0008673 -0.0002962 -0.0007492 0.0006568 -0.0013123 -0.0005796 -0.0002161 -0.0001652 -0.0008502 -0.0004677
0.0000938 0.0011446 0.0002828 0.0011408 -0.0001251 0.0002878 -0.0002878 0.0008343 -0.0002415 0.0012111 -0.0008592 -0.0002748 -0.0007418 0.0006884 -0.0013324 -0.0004975 -0.0002024 -0.0000932 -0.0002163 -0.0005944
0.0001823 0.0010786 0.0002720 0.0012507 -0.0001734 0.0003774 -0.0003014 0.0009237 -0.0002511 0.0012976 -0.0008472 -0.0001177 -0.0007111 0.0008780 -0.0013398 -0.0002761 -0.0001934 0.0000768 -0.0006174 -0.0001960
0.0002794 0.0010957 0.0002611 0.0014255 -0.0001984 0.0005444 -0.0003184 0.0011067 -0.0002652 0.0014291 -0.0008355 0.0000362 -0.0006891 0.0009994 -0.0013247 -0.0002209 -0.0001664 0.0001164 -0.0007671 -0.0002237
0.0001417 0.0012552 0.0002599 0.0013160 -0.0002045 0.0004107 -0.0003214 0.0009214 -0.0002645 0.0012074 -0.0008123 -0.0000048 -0.0006687 0.0008306 -0.0012583 -0.0004773 -0.0001272 -0.0000736 -0.0001983 -0.0008250
-0.0000030 0.0011836 0.0002663 0.0010161 -0.0001622 0.0001254 -0.0002958 0.0005187 -0.0002369 0.0008490 -0.0008030 -0.0001419 -0.0006559 0.0006607 -0.0011922 -0.0004780 -0.0001066 -0.0001612 -0.0004023 -0.0007050
-0.0001629 0.0012140 0.0002599 0.0010137 -0.0001648 0.0001431 -0.0002801 0.0004954 -0.0002243 0.0008417 -0.0008016 -0.0000704 -0.0006397 0.0007788 -0.0011748 -0.0002215 -0.0000973 -0.0000479 -0.0009282 -0.0001268
-0.0001227 0.0012861 0.0002486 0.0011798 -0.0002152 0.0002379 -0.0002892 0.0006352 -0.0002339 0.0009559 -0.0007807 0.0001475 -0.0006221 0.0010278 -0.0011778 -0.0000490 -0.0001011 0.0001101 -0.0007944 0.0000199
0.0000527 0.0012337 0.0002374 0.0013680 -0.0002527 0.0003744 -0.0002946 0.0007973 -0.0002457 0.0010387 -0.0007599 0.0002813 -0.0006104 0.0010957 -0.0011842 -0.0001307 -0.0000996 0.0000771 -0.0004613 -0.0002626
-0.0000072 0.0011981 0.0002398 0.0012171 -0.0002725 0.0001944 -0.0002871 0.0005805 -0.0002448 0.0007891 -0.0007370 0.0002295 -0.0006059 0.0008860 -0.0011821 -0.0004712 -0.0000916 -0.0001610 -0.0007460 -0.0003396
-0.0000919 0.0011218 0.0002523 0.0009171 -0.0002890 -0.0001803 -0.0002863 0.0002044 -0.0002344 0.0004906 -0.0007219 0.0002025 -0.0006028 0.0008012 -0.0011765 -0.0005303 -0.0000784 -0.0002195 -0.0007350 -0.0003553
-0.0002187 0.0012069 0.0002491 0.0009496 -0.0003167 -0.0001878 -0.0002928 0.0002073 -0.0002370 0.0005069 -0.0007157 0.0003127 -0.0005920 0.0009304 -0.0011893 -0.0003127 -0.0000726 -0.0000916 -0.0005144 -0.0003938
-0.0002407 0.0013169 0.0002393 0.0011211 -0.0003286 -0.0000308 -0.0003010 0.0003859 -0.0002420 0.0006503 -0.0007115 0.0004798 -0.0005705 0.0011277 -0.0012045 -0.0000138 -0.0000806 0.0000897 -0.0004588 -0.0002408
-0.0003260 0.0015281 0.0002394 0.0012995 -0.0002976 0.0001863 -0.0002923 0.0005846 -0.0002349 0.0007669 -0.0006984 0.0005826 -0.0005540 0.0011694 -0.0011448 0.0000448 -0.0000534 0.0000555 -0.0001365 -0.0004323
-0.0002358 0.0014258 0.0002566 0.0011257 -0.0002127 0.0001347 -0.0002499 0.0004287 -0.0002102 0.0005970 -0.0006902 0.0004887 -0.0005478 0.0009666 -0.0010785 -0.0001570 -0.0000444 -0.0001672 -0.0000409 -0.0008025
-0.0001247 0.0012291 0.0002630 0.0008353 -0.0001818 -0.0001570 -0.0002242 0.0001422 -0.0001873 0.0003991 -0.0006883 0.0004451 -0.0005391 0.0008988 -0.0010710 -0.0001704 -0.0000479 -0.0002001 -0.0001936 -0.0007330
-0.0002913 0.0013072 0.0002569 0.0008814 -0.0002254 -0.0001951 -0.0002282 0.0002029 -0.0001830 0.0004794 -0.0006787 0.0005641 -0.0005340 0.0010368 -0.0010866 0.0000208 -0.0000495 -0.0000752 -0.0003673 -0.0004838
-0.0003454 0.0014123 0.0002537 0.0010452 -0.0002502 -0.0000332 -0.0002231 0.0004267 -0.0001834 0.0006853 -0.0006732 0.0007200 -0.0005297 0.0012409 -0.0011014 0.0002635 -0.0000811 0.0000920 -0.0002520 -0.0004394
-0.0003236 0.0014834 0.0002522 0.0012407 -0.0002569 0.0001851 -0.0002089 0.0006733 -0.0001883 0.0008750 -0.0006775 0.0008005 -0.0005242 0.0013158 -0.0010638 0.0002483 -0.0000791 0.0000820 -0.0004057 -0.0003302
-0.0004796 0.0014693 0.0002682 0.0011082 -0.0002248 0.0000697 -0.0001876 0.0005505 -0.0001806 0.0007002 -0.0006339 0.0008151 -0.0004809 0.0011472 -0.0009838 -0.0000867 -0.0000639 -0.0001619 -0.0003025 -0.0005662
-0.0001750 0.0010412 0.0002594 0.0008220 -0.0002407 -0.0002647 -0.0001718 0.0002701 -0.0001785 0.0003951 -0.0005861 0.0008391 -0.0004743 0.0010200 -0.0010120 -0.0001887 -0.0001262 -0.0002481 0.0000893 -0.0008780
-0.0000111 0.0007529 0.0001863 0.0008233 -0.0003659 -0.0003094 -0.0001592 0.0003247 -0.0001963 0.0003765 -0.0006027 0.0008533 -0.0005103 0.0010981 -0.0010861 -0.0000191 -0.0001627 -0.0001354 -0.0002680 -0.0005346
-0.0002397 0.0008104 0.0000836 0.0009333 -0.0005099 -0.0001932 -0.0001449 0.0005151 -0.0002183 0.0004901 -0.0006004 0.0010225 -0.0004878 0.0013461 -0.0010388 0.0001942 -0.0001355 0.0000187 -0.0004694 -0.0003161
-0.0000837 0.0007011 0.0000183 0.0011000 -0.0005974 -0.0000142 -0.0001522 0.0007733 -0.0002421 0.0006970 -0.0005773 0.0012963 -0.0004524 0.0016316 -0.0010068 0.0003917 -0.0001526 0.0001527 -0.0003755 -0.0003640
0.0001277 0.0005762 0.0000146 0.0010924 -0.0006131 -0.0000246 -0.0001578 0.0007377 -0.0002552 0.0006230 -0.0005163 0.0014323 -0.0004052 0.0016120 -0.0010021 0.0001381 -0.0001697 -0.0000167 -0.0006959 -0.0002738
-0.0001852 0.0006841 0.0000249 0.0008532 -0.0006124 -0.0003153 -0.0001633 0.0004477 -0.0002527 0.0003371 -0.0004228 0.0015203 -0.0003156 0.0014998 -0.0009544 -0.0001862 -0.0001745 -0.0002363 -0.0005779 -0.0005166
-0.0005858 0.0008056 0.0000077 0.0007354 -0.0006718 -0.0004599 -0.0001944 0.0003992 -0.0002626 0.0003206 -0.0003820 0.0016725 -0.0002496 0.0016629 -0.0008856 -0.0000101 -0.0001826 -0.0002367 -0.0002336 -0.0008008
-0.0004104 0.0003320 -0.0000997 0.0005752 -0.0007287 -0.0004389 -0.0002622 0.0004928 -0.0003289 0.0004779 -0.0005691 0.0014397 -0.0004240 0.0014478 -0.0010022 0.0003800 -0.0004088 -0.0007035 -0.0006546 -0.0011566
-0.0004117 -0.0001302 -0.0002613 0.0002746 -0.0006239 -0.0001855 -0.0003557 0.0006090 -0.0004175 0.0006821 -0.0009012 0.0008329 -0.0007022 0.0010223 -0.0012368 0.0006814 -0.0006794 -0.0011278 -0.0010157 -0.0015035
-0.0003082 -0.0003159 -0.0003448 0.0001727 -0.0004717 0.0001950 -0.0003542 0.0006586 -0.0004338 0.0006624 -0.0009400 0.0006359 -0.0006418 0.0010491 -0.0011448 0.0004597 -0.0006667 -0.0011274 -0.0011318 -0.0012299
-0.0002188 -0.0001903 -0.0003343 0.0001772 -0.0002480 0.0005026 -0.0000863 0.0007032 -0.0002153 0.0006494 -0.0007525 0.0006691 -0.0004016 0.0012234 -0.0007748 0.0005127 -0.0005558 -0.0011794 -0.0009363 -0.0010109
-0.0002817 0.0000298 -0.0003361 0.0001579 0.0002416 0.0011076 0.0004228 0.0012239 0.0002455 0.0013599 -0.0007229 0.0002075 -0.0004118 0.0008368 -0.0004367 0.0012042 -0.0004317 -0.0010499 -0.0006847 -0.0007244
-0.0002644 0.0001091 -0.0003143 0.0001416 0.0007942 0.0018849 0.0008580 0.0020842 0.0006452 0.0024179 -0.0007067 -0.0001262 -0.0005586 0.0003483 -0.0001847 0.0017242 -0.0004029 -0.0007280 -0.0005395 -0.0002175
-0.0001011 0.0003491 -0.0002106 0.0003052 0.0011344 0.0025530 0.0011182 0.0028994 0.0008238 0.0030937 -0.0004718 0.0004474 -0.0004945 0.0007181 -0.0000103 0.0020766 -0.0004224 -0.0002791 0.0000249 0.0000314
0.0001443 0.0005803 -0.0001241 0.0006590 0.0011896 0.0029098 0.0012062 0.0032830 0.0008259 0.0031316 -0.0002413 0.0011457 -0.0003336 0.0011208 0.0000031 0.0017563 -0.0003753 -0.0001263 -0.0000120 0.0002373
-0.0000951 0.0006536 -0.0001103 0.0005648 0.0011127 0.0025779 0.0011651 0.0029038 0.0007803 0.0026856 -0.0001349 0.0013374 -0.0002839 0.0010066 -0.0001787 0.0008317 -0.0003246 -0.0002992 -0.0004583 0.0004926
-0.0003069 0.0005291 -0.0001223 0.0002709 0.0010430 0.0021226 0.0011171 0.0024817 0.0007577 0.0023491 -0.0001045 0.0013117 -0.0003226 0.0008453 -0.0004316 0.0002284 -0.0003051 -0.0003019 -0.0001347 0.0002453
-0.0000977 0.0003123 -0.0001347 0.0002859 0.0009863 0.0021082 0.0010445 0.0024543 0.0007310 0.0023440 -0.0001556 0.0011978 -0.0004031 0.0007636 -0.0005905 0.0000599 -0.0002593 -0.0001719 0.0001356 0.0000295
-0.0002420 0.0005071 -0.0001672 0.0004198 0.0009786 0.0023043 0.0009914 0.0025969 0.0007096 0.0025013 -0.0002084 0.0011652 -0.0004438 0.0008146 -0.0007154 0.0001044 -0.0002059 -0.0000268 -0.0001072 0.0002597
-0.0003080 0.0006934 -0.0001981 0.0005817 0.0009815 0.0025789 0.0009502 0.0027761 0.0006711 0.0026026 -0.0002383 0.0012807 -0.0003409 0.0010960 -0.0007349 0.0000587 -0.0001877 -0.0000449 -0.0003778 0.0003683
-0.0000783 0.0005482 -0.0001936 0.0004322 0.0009614 0.0024343 0.0009055 0.0024874 0.0006262 0.0022868 -0.0001524 0.0016702 -0.0000598 0.0015913 -0.0005767 -0.0000122 -0.0001548 -0.0002516 -0.0005771 0.0003323
-0.0001872 0.0004975 -0.0001798 0.0002096 0.0009060 0.0020579 0.0008877 0.0020466 0.0005811 0.0018407 0.0000448 0.0023263 0.0002473 0.0022896 -0.0004010 0.0001580 -0.0001294 -0.0002880 -0.0003374 0.0001749
-0.0004363 0.0006534 -0.0002037 0.0002758 0.0008115 0.0019946 0.0008649 0.0019826 0.0005257 0.0016897 0.0001600 0.0027617 0.0004105 0.0028432 -0.0003121 0.0004566 -0.0001386 -0.0001558 -0.0002520 0.0001932
-0.0004963 0.0007101 -0.0002260 0.0004568 0.0006729 0.0019883 0.0007947 0.0019936 0.0004299 0.0015928 0.0001704 0.0028808 0.0004314 0.0030945 -0.0003369 0.0007788 -0.0001381 0.0000232 -0.0005185 0.0005392
-0.0003583 0.0006557 -0.0002224 0.0007210 0.0004838 0.0019806 0.0006761 0.0020339 0.0003093 0.0015335 0.0001515 0.0028989 0.0004141 0.0031915 -0.0003384 0.0008154 -0.0001066 0.0001282 -0.0001968 0.0005255
-0.0003539 0.0006510 -0.0001800 0.0006889 0.0003761 0.0017215 0.0005899 0.0017198 0.0002456 0.0012131 0.0001730 0.0027985 0.0004456 0.0030873 -0.0002895 0.0005534 -0.0000933 -0.0000036 0.0003258 0.0000542
-0.0003047 0.0005008 -0.0001449 0.0004516 0.0003502 0.0013336 0.0005628 0.0012564 0.0002164 0.0007683 0.0002169 0.0026942 0.0004917 0.0030153 -0.0002664 0.0005379 -0.0001040 -0.0001046 0.0003150 0.0000570
-0.0003310 0.0004373 -0.0001530 0.0004510 0.0003109 0.0012943 0.0005530 0.0012078 0.0001858 0.0006721 0.0002121 0.0026180 0.0005136 0.0031153 -0.0001471 0.0009672 -0.0001067 -0.0000226 0.0001251 0.0003214
-0.0007344 0.0005974 -0.0001403 0.0005847 0.0002963 0.0014441 0.0005533 0.0013744 0.0001777 0.0007849 0.0001485 0.0024390 0.0004917 0.0032613 -0.0000265 0.0015262 -0.0000838 0.0001781 0.0001989 0.0003493
-0.0007549 0.0006766 -0.0001405 0.0007823 0.0002656 0.0016129 0.0005515 0.0016308 0.0001778 0.0010030 0.0000760 0.0023349 0.0004562 0.0033683 -0.0000362 0.0016338 -0.0000241 0.0003059 0.0000507 0.0005720
-0.0003122 0.0003950 -0.0001698 0.0006962 0.0001954 0.0014471 0.0005522 0.0014697 0.0001826 0.0008384 0.0000750 0.0022863 0.0004821 0.0032659 -0.0000095 0.0012914 0.0000423 0.0001534 0.0002447 0.0003200
-0.0001765 0.0000770 -0.0002056 0.0004067 0.0001219 0.0011108 0.0005705 0.0010947 0.0001956 0.0004838 0.0002555 0.0027352 0.0006427 0.0035715 0.0001113 0.0013809 0.0000739 0.0000482 0.0004767 -0.0000388
-0.0002095 0.0000013 -0.0002486 0.0003648 0.0000624 0.0010916 0.0005843 0.0010624 0.0001639 0.0003883 0.0004870 0.0035650 0.0008211 0.0041720 0.0001945 0.0018456 0.0000393 0.0000965 0.0003170 0.0000618
-0.0001402 0.0000613 -0.0002560 0.0004917 0.0000585 0.0012623 0.0005610 0.0011680 0.0000956 0.0003896 0.0005833 0.0040128 0.0008651 0.0044171 0.0001630 0.0021298 -0.0000314 0.0001879 -0.0002040 0.0005453
-0.0002677 0.0003996 -0.0002267 0.0006981 0.0000477 0.0014607 0.0004991 0.0013264 0.0000129 0.0004788 0.0005604 0.0040871 0.0008225 0.0044637 0.0001155 0.0021464 -0.0000744 0.0002504 -0.0003157 0.0005925
-0.0004235 0.0005819 -0.0002007 0.0006547 0.0000032 0.0013485 0.0004440 0.0011199 -0.0000655 0.0002205 0.0005570 0.0039865 0.0008227 0.0042828 0.0001295 0.0018192 -0.0000663 0.0000634 -0.0000719 0.0002043
-0.0004057 0.0004025 -0.0001964 0.0004006 -0.0000283 0.0009778 0.0004139 0.0006752 -0.0001120 -0.0002461 0.0006049 0.0039190 0.0008601 0.0041232 0.0001681 0.0016245 -0.0000825 -0.0001034 0.0001816 -0.0000133
-0.0004137 0.0004045 -0.0001991 0.0003661 -0.0000922 0.0008094 0.0003756 0.0005415 -0.0001739 -0.0004180 0.0006423 0.0040071 0.0008638 0.0042305 0.0001972 0.0017637 -0.0001187 -0.0000326 0.0003676 -0.0001628
-0.0003232 0.0003346 -0.0002032 0.0004740 -0.0002189 0.0007600 0.0003129 0.0005392 -0.0002747 -0.0004627 0.0006710 0.0041679 0.0008827 0.0044046 0.0001982 0.0020155 -0.0001142 0.0000900 0.0000763 0.0001359
-0.0002464 0.0002672 -0.0002198 0.0006248 -0.0003275 0.0007909 0.0002569 0.0006293 -0.0003514 -0.0004044 0.0006865 0.0043286 0.0009050 0.0045397 0.0002061 0.0021212 -0.0001076 0.0001509 0.0000612 0.0002776
-0.0003327 0.0003359 -0.0002238 0.0005424 -0.0003664 0.0006410 0.0002319 0.0004304 -0.0003747 -0.0006355 0.0007001 0.0042812 0.0009093 0.0043755 0.0002415 0.0018230 -0.0000785 -0.0000265 0.0004826 -0.0001451
-0.0004987 0.0003526 -0.0002078 0.0002758 -0.0003803 0.0002991 0.0002274 -0.0000008 -0.0003722 -0.0010363 0.0006986 0.0041028 0.0009005 0.0041324 0.0002732 0.0016121 -0.0000535 -0.0001647 0.0007054 -0.0004662
-0.0006358 0.0004111 -0.0002092 0.0002444 -0.0004113 0.0002098 0.0002173 -0.0001132 -0.0003825 -0.0011235 0.0006938 0.0040784 0.0008906 0.0041408 0.0002600 0.0017405 -0.0000744 -0.0000740 0.0002366 -0.0000654
-0.0004610 0.0003930 -0.0002167 0.0003588 -0.0004583 0.0002868 0.0001946 -0.0000387 -0.0004067 -0.0010639 0.0007004 0.0041763 0.0009017 0.0042738 0.0002501 0.0019611 -0.0000898 0.0000699 0.0002017 0.0002916
-0.0004237 0.0004774 -0.0002268 0.0005259 -0.0004764 0.0004213 0.0001815 0.0001268 -0.0004281 -0.0009116 0.0007012 0.0042918 0.0009055 0.0043903 0.0002805 0.0020255 -0.0000607 0.0001397 -0.0001219 0.0005893
-0.0004513 0.0004051 -0.0002150 0.0004335 -0.0003700 0.0003922 0.0002126 0.0000183 -0.0003802 -0.0010179 0.0005762 0.0036956 0.0008448 0.0040800 0.0004758 0.0022834 0.0000062 0.0000100 -0.0004037 0.0006045
-0.0003163 0.0001614 -0.0001745 0.0001451 -0.0001936 0.0002532 0.0003151 -0.0002239 -0.0002401 -0.0012036 0.0003758 0.0026597 0.0007324 0.0035333 0.0006776 0.0027108 0.0000502 -0.0000496 0.0001667 0.0003349
-0.0003729 0.0001670 -0.0001653 0.0001262 -0.0001019 0.0002565 0.0003826 -0.0001811 -0.0001497 -0.0011196 0.0003040 0.0023241 0.0006751 0.0033323 0.0007217 0.0028824 0.0000451 0.0000893 0.0000704 0.0005635
-0.0006374 0.0003807 -0.0001503 0.0002521 -0.0001006 0.0003192 0.0003604 -0.0000643 -0.0001456 -0.0009791 0.0002940 0.0023963 0.0006362 0.0033898 0.0007030 0.0030941 0.0000279 0.0002595 0.0000644 0.0007555
-0.0004598 0.0004080 -0.0001207 0.0004146 -0.0000703 0.0005194 0.0003369 0.0001375 -0.0001218 -0.0006897 0.0002592 0.0023985 0.0005497 0.0033277 0.0006919 0.0031976 0.0000400 0.0003669 0.0003570 0.0007623
-0.0001087 0.0003758 -0.0001101 0.0003619 0.0001925 0.0008050 0.0004894 0.0002983 0.0001243 -0.0003209 0.0002011 0.0018629 0.0003173 0.0023614 0.0007333 0.0024955 0.0001093 0.0001901 0.0003949 0.0007070
-0.0001413 0.0003795 -0.0001026 0.0000474 0.0006583 0.0010842 0.0009084 0.0005902 0.0005423 0.0001817 0.0000746 0.0007639 -0.0000428 0.0008159 0.0007416 0.0016428 0.0001622 0.0000792 0.0004536 0.0007415
-0.0001608 0.0002258 -0.0001105 -0.0001037 0.0010129 0.0014529 0.0013247 0.0012418 0.0008598 0.0008896 -0.0000132 0.0002186 -0.0001919 0.0002658 0.0007749 0.0017265 0.0002436 0.0002597 0.0005525 0.0010001
-0.0004971 0.0002440 -0.0001542 -0.0000116 0.0012722 0.0019074 0.0017048 0.0021445 0.0011887 0.0019378 0.0000088 0.0003400 -0.0001688 0.0003862 0.0008132 0.0021302 0.0004317 0.0004861 0.0007764 0.0012997
-0.0009143 0.0003021 -0.0002229 0.0001606 0.0014243 0.0022584 0.0019683 0.0029461 0.0014203 0.0028845 0.0000312 0.0005251 -0.0001702 0.0004855 0.0008368 0.0023635 0.0005531 0.0007278 0.0009928 0.0014738
-0.0010237 0.0003069 -0.0002620 0.0001559 0.0014289 0.0022203 0.0020248 0.0030408 0.0014383 0.0029516 0.0000798 0.0006084 -0.0001339 0.0003573 0.0008836 0.0019818 0.0005416 0.0005805 0.0011386 0.0013233
-0.0008787 0.0001094 -0.0002466 -0.0001469 0.0014269 0.0018668 0.0019766 0.0026311 0.0013885 0.0025544 0.0001288 0.0005139 -0.0001087 0.0000012 0.0008281 0.0013892 0.0004762 0.0003149 0.0012097 0.0010907
-0.0006279 -0.0002808 -0.0002339 -0.0003915 0.0013608 0.0016348 0.0018249 0.0023474 0.0012794 0.0023464 0.0001330 0.0005384 -0.0001131 -0.0000042 0.0006701 0.0012556 0.0004253 0.0003890 0.0011654 0.0011820
-0.0005106 -0.0003686 -0.0002491 -0.0003728 0.0012577 0.0016458 0.0016549 0.0022570 0.0011591 0.0023056 0.0001909 0.0010087 -0.0000169 0.0004944 0.0005145 0.0013783 0.0004268 0.0005498 0.0010513 0.0014051
-0.0006710 0.0000206 -0.0002457 -0.0001850 0.0011918 0.0017949 0.0015088 0.0022935 0.0010733 0.0023862 0.0001927 0.0013658 0.0000325 0.0009139 0.0002863 0.0014509 0.0003974 0.0006312 0.0009111 0.0013328
-0.0009531 0.0003608 -0.0002579 -0.0000760 0.0011991 0.0020193 0.0013904 0.0022785 0.0010493 0.0025098 -0.0000782 0.0007132 -0.0001373 0.0004567 0.0000280 0.0009968 0.0002841 0.0000994 0.0007680 0.0006871
-0.0008801 0.0001723 -0.0002845 -0.0003728 0.0012094 0.0018641 0.0012489 0.0018972 0.0010285 0.0023699 -0.0003689 -0.0002171 -0.0003235 -0.0003741 -0.0001782 0.0003318 0.0001529 -0.0006041 0.0007523 0.0001803
-0.0005547 -0.0001514 -0.0002338 -0.0005609 0.0011678 0.0015678 0.0011040 0.0015967 0.0009693 0.0021796 -0.0004673 -0.0006028 -0.0004442 -0.0007711 -0.0003472 0.0000471 0.0000191 -0.0006757 0.0003568 0.0005259
-0.0003415 -0.0002379 -0.0001399 -0.0003478 0.0011380 0.0016268 0.0010080 0.0016505 0.0008931 0.0021528 -0.0004591 -0.0005661 -0.0004876 -0.0007354 -0.0004463 0.0000714 -0.0000789 -0.0005243 0.0004350 0.0005947
-0.0002817 -0.0001305 -0.0000886 -0.0001014 0.0010958 0.0017972 0.0009125 0.0017286 0.0007871 0.0021493 -0.0004819 -0.0005321 -0.0005228 -0.0006565 -0.0005298 0.0002375 -0.0001209 -0.0003633 0.0006283 0.0005777
-0.0002592 -0.0000312 -0.0000289 0.0001521 0.0009923 0.0018614 0.0007291 0.0016619 0.0006266 0.0019971 -0.0005306 -0.0006364 -0.0005810 -0.0007925 -0.0005905 0.0000163 -0.0001699 -0.0003704 0.0005221 0.0006734
-0.0002289 -0.0001120 0.0000683 0.0001170 0.0008781 0.0014780 0.0005450 0.0012122 0.0005118 0.0016094 -0.0005267 -0.0007756 -0.0006240 -0.0010729 -0.0006553 -0.0005095 -0.0001904 -0.0005419 0.0005227 0.0005140
-0.0002771 -0.0001342 0.0001433 -0.0000443 0.0008502 0.0010931 0.0004433 0.0008216 0.0004715 0.0014192 -0.0005978 -0.0010562 -0.0006892 -0.0012909 -0.0007695 -0.0006638 -0.0001530 -0.0004908 0.0004012 0.0007470
-0.0001919 -0.0000573 0.0002148 0.0001307 0.0007920 0.0010438 0.0003387 0.0008035 0.0004029 0.0014470 -0.0006571 -0.0011418 -0.0007427 -0.0012821 -0.0008407 -0.0006149 -0.0001570 -0.0003407 0.0005669 0.0008707
-0.0000381 -0.0000450 0.0002465 0.0003709 0.0007290 0.0011659 0.0002711 0.0009139 0.0003476 0.0015503 -0.0006355 -0.0009308 -0.0007391 -0.0010175 -0.0008780 -0.0005196 -0.0001615 -0.0002031 0.0006527 0.0007785
-0.0001184 0.0001619 0.0002196 0.0005656 0.0006834 0.0014061 0.0002402 0.0011012 0.0003104 0.0016640 -0.0006003 -0.0006858 -0.0006780 -0.0007768 -0.0008888 -0.0006834 -0.0001536 -0.0002073 0.0006137 0.0007869
-0.0000781 0.0001388 0.0002250 0.0004779 0.0006294 0.0011984 0.0002132 0.0008615 0.0002756 0.0013804 -0.0005545 -0.0006587 -0.0006444 -0.0008980 -0.0008758 -0.0011212 -0.0002054 -0.0004517 0.0005180 0.0008163
-0.0001167 0.0000223 0.0002746 0.0002634 0.0006130 0.0007723 0.0001763 0.0004379 0.0002412 0.0010007 -0.0005134 -0.0006939 -0.0006135 -0.0010049 -0.0008192 -0.0012872 -0.0002740 -0.0005389 0.0003805 0.0009095
-0.0002108 0.0000263 0.0003048 0.0002630 0.0005821 0.0006907 0.0001223 0.0003661 0.0002131 0.0009871 -0.0005852 -0.0008403 -0.0006505 -0.0010236 -0.0008103 -0.0010901 -0.0002970 -0.0004874 0.0005344 0.0009148
0.0000396 -0.0000603 0.0003357 0.0004332 0.0005514 0.0008001 0.0000879 0.0004704 0.0002002 0.0010934 -0.0005046 -0.0004927 -0.0005208 -0.0004610 -0.0007514 -0.0007267 -0.0002830 -0.0002290 0.0009979 0.0008630
-0.0001345 0.0003086 0.0003698 0.0007478 0.0005026 0.0009284 0.0000679 0.0006201 0.0001599 0.0010969 -0.0003447 0.0000878 -0.0003135 0.0000961 -0.0006298 -0.0006232 -0.0002197 -0.0000910 0.0009657 0.0010085
-0.0002159 0.0002892 0.0003562 0.0005706 0.0004736 0.0006948 0.0000318 0.0003649 0.0000972 0.0008354 -0.0003854 -0.0000185 -0.0003144 -0.0001362 -0.0006403 -0.0009497 -0.0001337 -0.0002998 0.0006263 0.0010371
-0.0000247 -0.0000413 0.0003269 0.0001562 0.0004547 0.0003164 -0.0000426 -0.0000255 0.0000400 0.0005747 -0.0004756 -0.0002748 -0.0003696 -0.0003682 -0.0007403 -0.0011275 -0.0000881 -0.0003694 0.0005579 0.0009297
-0.0001661 0.0001360 0.0003384 0.0001896 0.0004084 0.0003004 -0.0001056 -0.0000341 -0.0000099 0.0005607 -0.0004827 -0.0001863 -0.0003624 -0.0002804 -0.0008118 -0.0010776 -0.0000880 -0.0003015 0.0004601 0.0009293
-0.0001884 0.0002762 0.0003535 0.0003617 0.0004004 0.0004581 -0.0001368 0.0001121 -0.0000395 0.0006928 -0.0005139 -0.0001610 -0.0004058 -0.0002242 -0.0008587 -0.0008798 -0.0000799 -0.0002338 0.0002831 0.0007830
0.0000256 0.0001529 0.0003268 0.0004471 0.0004380 0.0007137 -0.0001705 0.0002593 -0.0000517 0.0008392 -0.0005736 -0.0003019 -0.0004483 -0.0003453 -0.0008757 -0.0009501 -0.0000482 -0.0003110 0.0001136 0.0006438
0.0001396 0.0000460 0.0003308 0.0002855 0.0004695 0.0005613 -0.0002004 0.0000047 -0.0000560 0.0006159 -0.0005049 -0.0002804 -0.0003465 -0.0004123 -0.0007981 -0.0014606 -0.0000461 -0.0004960 0.0001735 0.0006967
-0.0000696 0.0002724 0.0003535 0.0001221 0.0004135 0.0001374 -0.0002047 -0.0003576 -0.0000727 0.0002680 -0.0004319 -0.0002201 -0.0002580 -0.0002890 -0.0007659 -0.0015753 -0.0000429 -0.0005322 0.0005351 0.0005659
0.0000391 0.0003160 0.0003281 0.0002031 0.0003017 0.0000779 -0.0001849 -0.0003515 -0.0001104 0.0001603 -0.0004098 -0.0001450 -0.0002230 -0.0000663 -0.0007827 -0.0012980 -0.0000165 -0.0004459 0.0007612 0.0003922
0.0000643 0.0002285 0.0002571 0.0002655 0.0002741 0.0002239 -0.0001803 -0.0002238 -0.0001683 0.0001906 -0.0004227 0.0000253 -0.0002027 0.0002098 -0.0007619 -0.0009298 -0.0000205 -0.0003960 0.0002311 0.0006078
-0.0001145 0.0002871 0.0001743 0.0002947 0.0002695 0.0004758 -0.0001891 -0.0000773 -0.0002762 0.0001711 -0.0003873 0.0003137 -0.0001322 0.0004967 -0.0007018 -0.0008079 -0.0001014 -0.0005032 -0.0000179 0.0005504
-0.0001523 0.0001482 0.0001595 0.0001129 0.0002277 0.0003118 -0.0002103 -0.0002741 -0.0003595 -0.0001356 -0.0002904 0.0004888 -0.0000317 0.0005247 -0.0006368 -0.0009374 -0.0002071 -0.0006992 0.0002528 0.0003472
-0.0001276 -0.0000813 0.0002474 -0.0000263 0.0001929 -0.0001568 -0.0002524 -0.0006078 -0.0004077 -0.0005017 -0.0000236 0.0011080 0.0002334 0.0010786 -0.0003892 -0.0005909 -0.0002844 -0.0006444 0.0001864 0.0006638
0.0000129 -0.0000893 0.0003525 0.0001875 0.0001451 -0.0002811 -0.0002880 -0.0006597 -0.0004613 -0.0006433 0.0002641 0.0019454 0.0005110 0.0019537 -0.0001317 0.0000045 -0.0003043 -0.0003928 -0.0000272 0.0010140
-0.0001609 0.0002716 0.0003906 0.0004030 0.0000877 -0.0001932 -0.0003066 -0.0005667 -0.0004941 -0.0006118 0.0003114 0.0021965 0.0005535 0.0022659 -0.0001140 0.0004264 -0.0002911 -0.0002112 0.0000486 0.0010054
-0.0001688 0.0004815 0.0003665 0.0005349 0.0000611 -0.0000121 -0.0003091 -0.0004127 -0.0005146 -0.0005073 0.0002401 0.0021099 0.0005294 0.0021644 -0.0001629 0.0004165 -0.0002472 -0.0002607 0.0002486 0.0008195
-0.0000339 0.0002577 0.0003787 0.0003521 0.0001119 -0.0001893 -0.0003257 -0.0006546 -0.0005421 -0.0007271 0.0002386 0.0020754 0.0005525 0.0019306 -0.0001722 0.0000680 -0.0001872 -0.0004644 0.0004411 0.0004465
0.0001543 -0.0000655 0.0003848 0.0001210 0.0000330 -0.0006424 -0.0003883 -0.0010959 -0.0005838 -0.0010641 0.0003234 0.0022229 0.0006126 0.0020045 -0.0001345 0.0001090 -0.0001372 -0.0004479 0.0006465 0.0002906
0.0002311 0.0000889 0.0003692 0.0002704 -0.0001928 -0.0008204 -0.0004486 -0.0011483 -0.0006081 -0.0011027 0.0004081 0.0024543 0.0006900 0.0023071 -0.0000617 0.0005088 -0.0000800 -0.0002081 0.0009420 0.0003722
0.0003072 0.0004179 0.0004185 0.0005604 -0.0002797 -0.0007579 -0.0004723 -0.0009505 -0.0006142 -0.0009539 0.0005726 0.0030661 0.0008450 0.0028454 0.0000919 0.0010807 0.0000450 0.0002106 0.0007568 0.0010207
0.0003967 0.0007829 0.0004806 0.0008447 -0.0001856 -0.0004585 -0.0004546 -0.0007106 -0.0006135 -0.0007944 0.0006839 0.0034631 0.0009465 0.0031215 0.0002592 0.0014358 0.0001642 0.0003787 0.0006010 0.0013125
0.0002932 0.0010384 0.0005101 0.0007423 -0.0001139 -0.0005428 -0.0004138 -0.0009261 -0.0005919 -0.0010623 0.0006110 0.0029841 0.0008969 0.0026870 0.0003530 0.0011706 0.0001576 0.0001003 0.0007070 0.0009536
0.0002860 0.0009106 0.0005125 0.0004585 -0.0001377 -0.0009557 -0.0003660 -0.0013456 -0.0005535 -0.0014738 0.0005658 0.0025891 0.0008692 0.0024306 0.0003339 0.0008886 0.0001372 -0.0000319 0.0005671 0.0009176
0.0003549 0.0006423 0.0004415 0.0004167 -0.0001803 -0.0009968 -0.0003096 -0.0013605 -0.0005350 -0.0015229 0.0005788 0.0026353 0.0008516 0.0025062 0.0001981 0.0008702 0.0001306 0.0000313 0.0006667 0.0009486
0.0003572 0.0006280 0.0003670 0.0004759 -0.0002190 -0.0008233 -0.0002865 -0.0011779 -0.0005507 -0.0013519 0.0005513 0.0026474 0.0008083 0.0026249 0.0001386 0.0010036 0.0000399 0.0001416 0.0007964 0.0011080
0.0004220 0.0008180 0.0003971 0.0005734 -0.0001891 -0.0005957 -0.0003149 -0.0009002 -0.0005610 -0.0010976 0.0005731 0.0027767 0.0008172 0.0028301 0.0002527 0.0010854 -0.0001324 0.0001006 0.0006537 0.0011879
0.0006166 0.0007731 0.0004238 0.0003501 -0.0001662 -0.0007639 -0.0003307 -0.0009605 -0.0005451 -0.0011230 0.0006372 0.0028855 0.0008683 0.0028676 0.0003380 0.0009137 -0.0002146 -0.0000175 0.0007219 0.0011501
0.0009940 0.0008308 0.0004526 0.0000438 -0.0002073 -0.0011051 -0.0003189 -0.0011611 -0.0005210 -0.0012061 0.0006838 0.0030034 0.0009340 0.0030197 0.0003946 0.0009439 -0.0001454 0.0000471 0.0013109 0.0013066
0.0015757 0.0012869 0.0005435 0.0000330 -0.0002395 -0.0011027 -0.0003057 -0.0010568 -0.0005014 -0.0010652 0.0008110 0.0035451 0.0010682 0.0035661 0.0005185 0.0013493 -0.0000479 0.0001814 0.0014303 0.0019521
0.0019465 0.0017151 0.0006640 0.0001617 -0.0002157 -0.0009217 -0.0002695 -0.0008774 -0.0004745 -0.0008712 0.0009215 0.0040720 0.0011572 0.0039576 0.0005215 0.0017264 0.0000103 0.0004185 0.0014315 0.0022092
0.0020641 0.0017341 0.0007239 0.0005024 -0.0001868 -0.0007339 -0.0002345 -0.0007263 -0.0004609 -0.0008051 0.0009392 0.0041907 0.0011659 0.0039094 0.0004929 0.0015517 0.0000352 0.0004649 0.0013102 0.0020715
0.0019428 0.0016080 0.0007016 0.0005016 -0.0001850 -0.0008977 -0.0002177 -0.0008624 -0.0004575 -0.0009826 0.0009620 0.0041814 0.0012022 0.0037600 0.0004963 0.0012195 0.0000753 0.0003169 0.0014153 0.0018814
0.0017402 0.0015485 0.0006361 0.0002902 -0.0002154 -0.0011172 -0.0002007 -0.0010109 -0.0004514 -0.0010505 0.0009819 0.0042590 0.0012127 0.0037531 0.0004240 0.0012961 0.0001291 0.0003565 0.0016237 0.0018654
0.0014884 0.0015130 0.0005188 0.0002569 -0.0002226 -0.0010096 -0.0001997 -0.0009005 -0.0004624 -0.0009107 0.0008543 0.0040756 0.0010663 0.0035586 0.0002522 0.0014428 0.0001446 0.0003608 0.0014775 0.0016567
0.0012520 0.0010891 0.0003514 0.0002275 -0.0001969 -0.0007382 -0.0002210 -0.0006928 -0.0004781 -0.0006823 0.0006322 0.0036334 0.0008809 0.0033165 0.0000860 0.0015250 0.0001779 0.0004330 0.0014428 0.0013653
0.0008795 0.0008585 0.0002321 0.0002800 -0.0002770 -0.0007284 -0.0002178 -0.0006814 -0.0004886 -0.0007136 0.0004720 0.0030840 0.0008009 0.0030066 0.0000508 0.0011959 0.0003306 0.0003900 0.0014575 0.0012104
0.0005968 0.0009040 0.0001470 0.0001685 -0.0004550 -0.0010494 -0.0001996 -0.0009029 -0.0004902 -0.0009300 0.0003310 0.0024685 0.0007432 0.0025820 0.0000347 0.0007247 0.0005266 0.0002363 0.0015663 0.0010681
0.0005358 0.0009328 0.0000395 0.0000926 -0.0006267 -0.0011605 -0.0001753 -0.0009001 -0.0004794 -0.0008642 0.0002405 0.0022070 0.0007024 0.0024802 -0.0000086 0.0007630 0.0006246 0.0003436 0.0014778 0.0013294
0.0004434 0.0011168 -0.0000064 0.0001676 -0.0006745 -0.0009877 -0.0001620 -0.0006863 -0.0004703 -0.0006283 0.0002477 0.0023766 0.0007010 0.0026013 -0.0000222 0.0010211 0.0006362 0.0005087 0.0010891 0.0016531
0.0005251 0.0011940 -0.0000117 0.0002801 -0.0006332 -0.0007496 -0.0001876 -0.0004481 -0.0004722 -0.0003697 0.0003272 0.0028201 0.0007357 0.0027669 0.0000086 0.0010881 0.0006116 0.0004954 0.0011366 0.0016339
0.0007406 0.0010811 0.0000076 0.0002159 -0.0005976 -0.0008339 -0.0002069 -0.0005417 -0.0004715 -0.0004495 0.0004254 0.0030969 0.0007923 0.0027002 0.0000871 0.0007452 0.0005917 0.0002336 0.0012312 0.0014423
0.0005744 0.0010808 0.0000327 0.0000298 -0.0006195 -0.0011471 -0.0002128 -0.0008049 -0.0004639 -0.0006966 0.0005072 0.0031889 0.0008504 0.0026947 0.0001373 0.0005905 0.0006185 0.0001472 0.0010755 0.0015310
0.0005336 0.0011214 0.0000181 0.0001077 -0.0007151 -0.0012129 -0.0002171 -0.0007759 -0.0004712 -0.0006780 0.0005610 0.0033814 0.0008797 0.0028684 0.0000990 0.0007977 0.0006247 0.0002771 0.0008927 0.0016854
0.0005543 0.0011409 -0.0000230 0.0002103 -0.0007566 -0.0010608 -0.0002250 -0.0006112 -0.0004830 -0.0005191 0.0005567 0.0035163 0.0008647 0.0029625 0.0000570 0.0010084 0.0006032 0.0004010 0.0011309 0.0014717
0.0003705 0.0013088 -0.0000380 0.0003378 -0.0007731 -0.0008859 -0.0002361 -0.0004446 -0.0004944 -0.0003939 0.0005910 0.0036891 0.0008872 0.0030258 0.0001310 0.0009226 0.0005633 0.0003422 0.0014561 0.0011275
0.0005457 0.0010791 -0.0000079 0.0002823 -0.0007918 -0.0010683 -0.0002295 -0.0005889 -0.0004951 -0.0005673 0.0006796 0.0038353 0.0009518 0.0029939 0.0002358 0.0005715 0.0005225 0.0001005 0.0011165 0.0011953
0.0004613 0.0008687 0.0000200 0.0000784 -0.0007893 -0.0013673 -0.0002260 -0.0007951 -0.0004861 -0.0007525 0.0007524 0.0040091 0.0009822 0.0030806 0.0002622 0.0006029 0.0005017 0.0000732 0.0009192 0.0013322
0.0004192 0.0009391 0.0000089 0.0001204 -0.0007935 -0.0013038 -0.0002187 -0.0007046 -0.0004841 -0.0006785 0.0008058 0.0042783 0.0010212 0.0033247 0.0002683 0.0009087 0.0005256 0.0002502 0.0010271 0.0012131
0.0004013 0.0011266 -0.0000329 0.0002840 -0.0007908 -0.0010384 -0.0001878 -0.0004868 -0.0004767 -0.0004811 0.0007667 0.0043064 0.0009943 0.0034511 0.0002386 0.0012337 0.0005820 0.0004420 0.0010096 0.0014388
0.0001799 0.0013624 -0.0000592 0.0003863 -0.0007057 -0.0007306 -0.0001516 -0.0003044 -0.0004624 -0.0003754 0.0006612 0.0040552 0.0009037 0.0031981 0.0001970 0.0011311 0.0005685 0.0002697 0.0009803 0.0013889
0.0003003 0.0010974 -0.0000435 0.0001633 -0.0005931 -0.0007579 -0.0001394 -0.0004120 -0.0004427 -0.0004626 0.0005366 0.0036511 0.0008141 0.0027652 0.0001475 0.0007916 0.0005110 -0.0000805 0.0010291 0.0008316
0.0002708 0.0007352 -0.0000448 -0.0000452 -0.0005526 -0.0008676 -0.0001633 -0.0004689 -0.0004248 -0.0004340 0.0004361 0.0033914 0.0007553 0.0026815 0.0000904 0.0009286 0.0004749 -0.0000585 0.0011072 0.0007559
-0.0000986 0.0008375 -0.0000586 0.0000469 -0.0005231 -0.0007007 -0.0001817 -0.0003095 -0.0004252 -0.0002730 0.0004057 0.0034142 0.0007431 0.0028134 0.0000975 0.0012558 0.0004691 0.0001073 0.0012519 0.0008103
-0.0000352 0.0009187 -0.0000539 0.0002160 -0.0005165 -0.0004998 -0.0001901 -0.0001112 -0.0004410 -0.0000695 0.0003988 0.0035249 0.0007306 0.0030135 0.0001109 0.0015486 0.0004634 0.0002773 0.0011449 0.0009758
0.0000776 0.0009685 -0.0000449 0.0003030 -0.0005414 -0.0004506 -0.0001875 -0.0000770 -0.0004486 -0.0000881 0.0004080 0.0035140 0.0007499 0.0030101 0.0001163 0.0013170 0.0004702 0.0001632 0.0009396 0.0009905
0.0001332 0.0009221 -0.0000309 0.0001778 -0.0005592 -0.0006246 -0.0001784 -0.0002421 -0.0004396 -0.0003144 0.0004204 0.0034175 0.0007706 0.0028297 0.0001218 0.0009442 0.0004734 -0.0000408 0.0007178 0.0010000
0.0001756 0.0009616 -0.0000213 0.0001426 -0.0005669 -0.0006658 -0.0001726 -0.0002351 -0.0004327 -0.0003309 0.0004250 0.0034373 0.0007669 0.0029015 0.0000972 0.0010432 0.0004476 0.0000286 0.0008628 0.0009465
0.0002283 0.0010028 -0.0000232 0.0002943 -0.0005896 -0.0005082 -0.0001554 -0.0000771 -0.0004301 -0.0002020 0.0004549 0.0035967 0.0007747 0.0031136 0.0000965 0.0012619 0.0004495 0.0001594 0.0008541 0.0010827
0.0003589 0.0010043 -0.0000441 0.0004421 -0.0006139 -0.0003128 -0.0001367 0.0001329 -0.0004255 -0.0000416 0.0004712 0.0037097 0.0007859 0.0032194 0.0001194 0.0012930 0.0004730 0.0001728 0.0006276 0.0012310
-0.0000285 0.0012101 -0.0000550 0.0003510 -0.0006193 -0.0003863 -0.0001171 0.0000441 -0.0004170 -0.0001848 0.0004835 0.0036634 0.0007944 0.0030905 0.0001359 0.0009876 0.0004902 -0.0000428 0.0003596 0.0012418
-0.0000107 0.0010395 -0.0000438 0.0001219 -0.0006237 -0.0006625 -0.0001052 -0.0002386 -0.0004056 -0.0004746 0.0005147 0.0036558 0.0007974 0.0029815 0.0001451 0.0008922 0.0004743 -0.0001429 0.0003445 0.0012091
0.0002393 0.0008621 -0.0000508 0.0000851 -0.0006334 -0.0006551 -0.0001237 -0.0002425 -0.0004039 -0.0004862 0.0005002 0.0036615 0.0007785 0.0029900 0.0001071 0.0011251 0.0004395 -0.0000747 0.0008405 0.0009084
0.0004241 0.0007637 -0.0000462 0.0001968 -0.0006377 -0.0005020 -0.0001533 -0.0000949 -0.0004115 -0.0003689 0.0005039 0.0037619 0.0007770 0.0031226 0.0000652 0.0013721 0.0003988 0.0000406 0.0008367 0.0010545
0.0004785 0.0007641 -0.0000208 0.0003163 -0.0006333 -0.0004085 -0.0001568 -0.0000645 -0.0004154 -0.0004036 0.0005346 0.0038297 0.0007981 0.0030926 0.0001358 0.0011579 0.0003875 -0.0000572 0.0007542 0.0010050
0.0002086 0.0008950 -0.0000068 0.0001717 -0.0006307 -0.0006042 -0.0001503 -0.0003278 -0.0004059 -0.0006999 0.0005580 0.0037334 0.0008064 0.0028606 0.0001881 0.0007144 0.0003939 -0.0003303 0.0006757 0.0008034
0.0003573 0.0006751 0.0000067 0.0000246 -0.0006654 -0.0008516 -0.0001666 -0.0005541 -0.0004026 -0.0009124 0.0005946 0.0037563 0.0008209 0.0028742 0.0001536 0.0007549 0.0003620 -0.0003028 0.0008574 0.0007058
0.0004023 0.0006339 0.0000238 0.0001463 -0.0007293 -0.0008521 -0.0001920 -0.0005540 -0.0004138 -0.0009300 0.0006455 0.0039255 0.0008525 0.0030569 0.0001339 0.0010171 0.0003364 -0.0001223 0.0009420 0.0008799
0.0003342 0.0008630 0.0000401 0.0003488 -0.0007726 -0.0007756 -0.0002217 -0.0004595 -0.0004273 -0.0008518 0.0007058 0.0041769 0.0008893 0.0032777 0.0001838 0.0012055 0.0003129 0.0000298 0.0007963 0.0011276
0.0005165 0.0008717 0.0000596 0.0003721 -0.0007964 -0.0008436 -0.0002300 -0.0005776 -0.0004308 -0.0010109 0.0007490 0.0042142 0.0009148 0.0031948 0.0002446 0.0008641 0.0002959 -0.0001454 0.0007790 0.0010317
0.0005210 0.0008177 0.0000803 0.0001608 -0.0008103 -0.0011505 -0.0002320 -0.0009340 -0.0004221 -0.0014081 0.0007750 0.0040624 0.0009321 0.0029124 0.0002256 0.0004934 0.0003113 -0.0004116 0.0006644 0.0008708
0.0006047 0.0006969 0.0000892 0.0000723 -0.0008470 -0.0013185 -0.0002552 -0.0010957 -0.0004196 -0.0015669 0.0007928 0.0040493 0.0009544 0.0028654 0.0001938 0.0006210 0.0003165 -0.0003580 0.0008349 0.0006887
0.0008232 0.0005972 0.0000897 0.0001626 -0.0008933 -0.0012728 -0.0002729 -0.0010761 -0.0004269 -0.0015312 0.0008221 0.0041867 0.0009683 0.0029883 0.0002117 0.0008297 0.0002957 -0.0001808 0.0010943 0.0006830
0.0008032 0.0007406 0.0000738 0.0003111 -0.0009403 -0.0011531 -0.0002772 -0.0009844 -0.0004322 -0.0014142 0.0008243 0.0042743 0.0009528 0.0031224 0.0002730 0.0009280 0.0003024 -0.0000444 0.0009098 0.0009074
0.0005240 0.0009049 0.0000557 0.0002573 -0.0009678 -0.0012285 -0.0002673 -0.0011294 -0.0004278 -0.0015593 0.0008251 0.0041848 0.0009525 0.0029602 0.0003060 0.0005522 0.0003394 -0.0002542 0.0008563 0.0007200
0.0004797 0.0006301 0.0000565 -0.0000077 -0.0009656 -0.0015322 -0.0002708 -0.0014956 -0.0004185 -0.0019045 0.0008334 0.0040164 0.0009546 0.0026559 0.0002653 0.0002857 0.0003810 -0.0004703 0.0010427 0.0005782
0.0005284 0.0004783 0.0000557 -0.0000652 -0.0009789 -0.0015914 -0.0002774 -0.0016005 -0.0004113 -0.0019790 0.0008264 0.0039445 0.0009500 0.0025965 0.0002265 0.0004773 0.0003869 -0.0003548 0.0009153 0.0008350
0.0006230 0.0005855 0.0000472 0.0000733 -0.0009554 -0.0014071 -0.0002620 -0.0014835 -0.0004099 -0.0018809 0.0008438 0.0040245 0.0009636 0.0027269 0.0002105 0.0007287 0.0003637 -0.0001695 0.0010429 0.0008109
0.0007072 0.0006499 0.0000311 0.0002499 -0.0009399 -0.0012230 -0.0002634 -0.0012974 -0.0004152 -0.0017035 0.0008588 0.0041418 0.0009652 0.0029064 0.0002283 0.0009442 0.0003492 -0.0000006 0.0008634 0.0010205
0.0004465 0.0008512 0.0000186 0.0002546 -0.0009663 -0.0012792 -0.0002625 -0.0013702 -0.0004180 -0.0017732 0.0008758 0.0040984 0.0009768 0.0028048 0.0002555 0.0006520 0.0003484 -0.0001613 0.0007138 0.0009782
0.0005510 0.0005918 0.0000197 0.0000640 -0.0009798 -0.0015515 -0.0002456 -0.0016664 -0.0004093 -0.0020500 0.0008936 0.0039327 0.0009852 0.0025669 0.0002778 0.0003275 0.0003554 -0.0003664 0.0010317 0.0006335
0.0008257 0.0002954 0.0000327 0.0000313 -0.0010119 -0.0016334 -0.0002496 -0.0017242 -0.0004026 -0.0020988 0.0009014 0.0038969 0.0009733 0.0025491 0.0002899 0.0004490 0.0003321 -0.0002572 0.0009714 0.0008327
0.0005635 0.0006029 0.0000319 0.0001561 -0.0010300 -0.0015188 -0.0002614 -0.0015975 -0.0004043 -0.0019763 0.0008878 0.0039084 0.0009680 0.0026340 0.0002637 0.0006840 0.0003357 -0.0000876 0.0008792 0.0011486
0.0005667 0.0006536 0.0000136 0.0003159 -0.0010444 -0.0013538 -0.0002659 -0.0014144 -0.0004105 -0.0017731 0.0008823 0.0039988 0.0009717 0.0028363 0.0002440 0.0009709 0.0003765 0.0000944 0.0010750 0.0011333
0.0006740 0.0006074 0.0000130 0.0003456 -0.0010456 -0.0013170 -0.0002574 -0.0014202 -0.0004104 -0.0017879 0.0009297 0.0041153 0.0010056 0.0028445 0.0003196 0.0006919 0.0003940 -0.0000486 0.0014012 0.0007116
0.0005666 0.0006546 0.0000250 0.0001641 -0.0010372 -0.0014969 -0.0002404 -0.0016421 -0.0003974 -0.0019954 0.0009222 0.0039210 0.0010177 0.0025713 0.0003755 0.0003231 0.0004190 -0.0002664 0.0011948 0.0006414
0.0006081 0.0004777 0.0000042 0.0000773 -0.0010452 -0.0015376 -0.0002214 -0.0016854 -0.0003829 -0.0019707 0.0008221 0.0035532 0.0009612 0.0024170 0.0002839 0.0005089 0.0004590 -0.0001555 0.0010223 0.0007881
0.0005101 0.0004835 -0.0000200 0.0001653 -0.0010335 -0.0013705 -0.0002051 -0.0015252 -0.0003732 -0.0017821 0.0007834 0.0035058 0.0009187 0.0025313 0.0002183 0.0007874 0.0004733 0.0000310 0.0009725 0.0009714
0.0005530 0.0005829 -0.0000110 0.0003279 -0.0010217 -0.0011670 -0.0002150 -0.0012858 -0.0003764 -0.0015283 0.0008310 0.0037790 0.0009396 0.0028050 0.0002389 0.0010839 0.0004520 0.0002215 0.0006405 0.0014263
0.0005877 0.0007087 0.0000092 0.0004379 -0.0010100 -0.0010563 -0.0002282 -0.0011778 -0.0003830 -0.0014500 0.0008865 0.0039338 0.0009831 0.0028245 0.0003013 0.0008513 0.0004074 0.0000878 0.0006093 0.0014520
0.0006264 0.0006294 0.0000526 0.0002612 -0.0009966 -0.0012599 -0.0002368 -0.0013615 -0.0003776 -0.0016317 0.0009288 0.0038798 0.0010003 0.0026287 0.0003189 0.0003766 0.0003709 -0.0002150 0.0005925 0.0012513
0.0005971 0.0005711 0.0000827 0.0000949 -0.0010018 -0.0014639 -0.0002657 -0.0014735 -0.0003725 -0.0016747 0.0009263 0.0037957 0.0009733 0.0025890 0.0003021 0.0004356 0.0003481 -0.0001658 0.0008824 0.0010050
0.0005016 0.0006715 0.0000822 0.0001553 -0.0010013 -0.0013872 -0.0002912 -0.0013366 -0.0003725 -0.0015181 0.0009054 0.0037985 0.0009558 0.0026826 0.0003256 0.0007016 0.0003175 0.0000430 0.0011014 0.0010405
0.0007933 0.0005202 0.0000799 0.0003014 -0.0010112 -0.0011797 -0.0003036 -0.0011155 -0.0003757 -0.0012724 0.0009033 0.0039059 0.0009664 0.0028721 0.0002923 0.0010198 0.0003144 0.0002218 0.0008694 0.0014241
0.0008267 0.0005653 0.0000711 0.0004354 -0.0010195 -0.0009629 -0.0003015 -0.0009597 -0.0003790 -0.0011373 0.0008807 0.0038690 0.0009537 0.0028402 0.0002822 0.0009003 0.0003363 0.0001336 0.0006222 0.0014826
0.0005498 0.0005643 0.0000512 0.0002220 -0.0009898 -0.0010797 -0.0002911 -0.0011021 -0.0003707 -0.0012706 0.0008007 0.0035395 0.0009115 0.0024673 0.0002591 0.0004853 0.0003703 -0.0001503 0.0008565 0.0009895
0.0005044 0.0002859 0.0000318 -0.0000669 -0.0009378 -0.0012252 -0.0002960 -0.0012334 -0.0003649 -0.0013393 0.0007189 0.0032747 0.0008580 0.0023022 0.0002341 0.0005016 0.0004140 -0.0001675 0.0010908 0.0006922
0.0006676 0.0000839 0.0000291 -0.0000308 -0.0008959 -0.0010702 -0.0003023 -0.0010958 -0.0003696 -0.0012004 0.0006857 0.0032474 0.0008259 0.0023926 0.0002114 0.0007818 0.0004096 0.0000050 0.0006944 0.0011803
0.0008295 0.0000198 0.0000244 0.0001101 -0.0008792 -0.0008458 -0.0003028 -0.0008661 -0.0003773 -0.0009822 0.0006731 0.0033332 0.0007908 0.0025212 0.0001470 0.0011428 0.0003465 0.0001538 0.0005507 0.0014365
0.0007856 0.0001416 0.0000422 0.0002834 -0.0008547 -0.0006388 -0.0003224 -0.0006031 -0.0003842 -0.0007880 0.0006913 0.0034530 0.0007850 0.0025576 0.0002025 0.0010889 0.0002796 0.0000952 0.0006313 0.0011627
0.0006530 0.0000836 0.0000779 0.0001782 -0.0008404 -0.0007921 -0.0003400 -0.0007005 -0.0003809 -0.0009133 0.0007756 0.0036133 0.0008526 0.0025319 0.0002705 0.0007004 0.0002579 -0.0001261 0.0005056 0.0012385
0.0004772 -0.0000007 0.0000999 -0.0000444 -0.0008685 -0.0010814 -0.0003428 -0.0009450 -0.0003743 -0.0011190 0.0008774 0.0038391 0.0009164 0.0026459 0.0002930 0.0006732 0.0002169 -0.0001519 0.0004779 0.0012365
0.0005064 -0.0000278 0.0001114 0.0000455 -0.0009106 -0.0010890 -0.0003525 -0.0008878 -0.0003830 -0.0010797 0.0009460 0.0040560 0.0009528 0.0028503 0.0003271 0.0008844 0.0001355 -0.0000090 0.0006810 0.0009997
0.0004702 0.0000040 0.0001098 0.0002425 -0.0009378 -0.0009433 -0.0003664 -0.0006844 -0.0003964 -0.0009058 0.0009558 0.0041549 0.0009529 0.0030536 0.0002940 0.0011938 0.0000520 0.0001500 0.0007265 0.0011485
0.0005618 0.0000243 0.0001259 0.0004793 -0.0009481 -0.0007319 -0.0003863 -0.0004144 -0.0004087 -0.0006315 0.0009559 0.0042642 0.0009520 0.0032510 0.0003159 0.0013436 -0.0000343 0.0002327 0.0004980 0.0014428
0.0006407 -0.0000524 0.0001788 0.0004602 -0.0009496 -0.0008134 -0.0004132 -0.0004716 -0.0004223 -0.0007104 0.0010019 0.0043613 0.0009885 0.0032232 0.0003948 0.0010750 -0.0000711 0.0000498 0.0006049 0.0011774
0.0006589 -0.0003631 0.0001955 0.0002204 -0.0009800 -0.0011047 -0.0004584 -0.0007258 -0.0004368 -0.0009851 0.0009718 0.0041557 0.0009602 0.0030305 0.0003358 0.0009317 -0.0000325 -0.0000657 0.0006060 0.0009504
0.0005829 -0.0004369 0.0001473 0.0001856 -0.0010984 -0.0011734 -0.0005086 -0.0007126 -0.0004402 -0.0009140 0.0008314 0.0037743 0.0009002 0.0029953 0.0002782 0.0011193 0.0000758 0.0000402 0.0006687 0.0009693
0.0003688 -0.0003090 0.0000669 0.0002461 -0.0012717 -0.0011541 -0.0005397 -0.0005661 -0.0004218 -0.0006949 0.0007618 0.0036829 0.0008564 0.0030782 0.0002666 0.0013653 0.0001357 0.0001196 0.0008934 0.0008632
0.0003505 -0.0002778 -0.0000184 0.0003839 -0.0014367 -0.0010455 -0.0005324 -0.0003636 -0.0004133 -0.0005123 0.0008232 0.0040303 0.0008786 0.0032862 0.0002735 0.0015266 0.0001118 0.0000424 0.0007362 0.0006674
0.0001520 -0.0003128 -0.0001484 0.0001672 -0.0014872 -0.0010502 -0.0005456 -0.0004721 -0.0004401 -0.0006897 0.0007418 0.0037930 0.0008546 0.0030505 0.0002409 0.0012499 0.0000244 -0.0005142 0.0008137 0.0003742
0.0002571 -0.0006532 -0.0002117 -0.0001215 -0.0015119 -0.0012478 -0.0005336 -0.0007230 -0.0004393 -0.0009930 0.0007213 0.0035609 0.0008680 0.0028772 0.0002698 0.0010691 -0.0000007 -0.0009822 0.0012449 0.0008447
0.0004228 -0.0005871 -0.0001828 0.0000245 -0.0016169 -0.0013158 -0.0004823 -0.0006772 -0.0004157 -0.0010179 0.0008375 0.0038974 0.0009674 0.0031545 0.0003629 0.0012996 0.0000457 -0.0008807 0.0014146 0.0009683
0.0000075 -0.0001980 -0.0002189 0.0001200 -0.0016967 -0.0012720 -0.0004860 -0.0005703 -0.0004206 -0.0009442 0.0008332 0.0040357 0.0009412 0.0032320 0.0003078 0.0015310 0.0000175 -0.0006887 0.0007809 0.0006401
-0.0004547 -0.0000661 -0.0002944 0.0000768 -0.0017252 -0.0011507 -0.0005577 -0.0004587 -0.0004440 -0.0007632 0.0006059 0.0035564 0.0007034 0.0027966 0.0000605 0.0014488 -0.0002384 -0.0010736 0.0001114 -0.0002702
-0.0005399 -0.0006100 -0.0003455 -0.0002426 -0.0016949 -0.0012848 -0.0006513 -0.0005983 -0.0004552 -0.0007907 0.0002682 0.0025711 0.0004236 0.0019590 -0.0001618 0.0009324 -0.0004800 -0.0017312 -0.0002658 -0.0012569
-0.0003276 -0.0012999 -0.0003058 -0.0004856 -0.0016647 -0.0015205 -0.0006651 -0.0008576 -0.0004357 -0.0009908 0.0002033 0.0022398 0.0004140 0.0017579 -0.0001280 0.0007812 -0.0004688 -0.0018411 -0.0003108 -0.0005843
0.0001762 -0.0012880 -0.0001984 -0.0002302 -0.0016587 -0.0014448 -0.0006154 -0.0008004 -0.0004250 -0.0010109 0.0004071 0.0027441 0.0006105 0.0022632 0.0000854 0.0010915 -0.0003595 -0.0016963 0.0006410 0.0006037
0.0006820 -0.0006411 -0.0000847 0.0000809 -0.0014325 -0.0009438 -0.0005362 -0.0005728 -0.0004192 -0.0010168 0.0003345 0.0023504 0.0005827 0.0022946 0.0004040 0.0021143 -0.0002859 -0.0014093 0.0009754 0.0009941
0.0007949 -0.0002131 -0.0000075 0.0002860 -0.0009258 -0.0000909 -0.0004049 -0.0002041 -0.0003523 -0.0007884 0.0000676 0.0013533 0.0003982 0.0019204 0.0006643 0.0027801 -0.0003046 -0.0011651 0.0007994 0.0006841
0.0006788 -0.0001055 0.0000799 0.0002628 -0.0005688 0.0001483 -0.0003130 -0.0002015 -0.0003034 -0.0007470 -0.0000029 0.0009651 0.0003137 0.0014573 0.0006596 0.0023189 -0.0003062 -0.0012972 0.0009376 0.0002175
0.0005055 -0.0001683 0.0001546 -0.0000122 -0.0004710 -0.0001620 -0.0003419 -0.0005105 -0.0003146 -0.0009348 -0.0001214 0.0005311 0.0001813 0.0009686 0.0004626 0.0020470 -0.0003344 -0.0013706 0.0007935 -0.0000408
0.0006824 -0.0004761 0.0002090 0.0000528 -0.0004052 -0.0001144 -0.0003702 -0.0004911 -0.0003066 -0.0008591 -0.0001130 0.0005766 0.0001915 0.0011424 0.0003180 0.0020033 -0.0003189 -0.0011438 0.0006856 0.0004744
0.0008863 -0.0001551 0.0002745 0.0003852 -0.0002951 0.0002093 -0.0003241 -0.0002658 -0.0002905 -0.0006828 -0.0000074 0.0009494 0.0002795 0.0015368 0.0002379 0.0019717 -0.0002595 -0.0008917 0.0004341 0.0013179
0.0008157 0.0004909 0.0003291 0.0006446 -0.0002107 0.0005536 -0.0002578 0.0000623 -0.0002358 -0.0003227 -0.0000517 0.0008930 0.0002449 0.0014956 0.0002445 0.0019646 -0.0001847 -0.0008418 0.0005229 0.0013628
0.0010002 0.0006174 0.0003710 0.0005313 0.0000789 0.0007943 -0.0000732 0.0002113 -0.0000202 0.0000745 -0.0001188 0.0005942 0.0001996 0.0011921 0.0002937 0.0018070 -0.0001101 -0.0010039 0.0010093 0.0007497
0.0010958 0.0005789 0.0003996 0.0002752 0.0004207 0.0009174 0.0001530 0.0002649 0.0002082 0.0003918 -0.0001168 0.0004821 0.0002140 0.0010955 0.0002636 0.0016800 -0.0000647 -0.0010028 0.0011483 0.0005181
0.0009578 0.0008227 0.0003963 0.0003795 0.0004905 0.0010641 0.0002793 0.0005202 0.0003100 0.0007283 -0.0001132 0.0005197 0.0002348 0.0012228 0.0002119 0.0017365 -0.0000179 -0.0007950 0.0008253 0.0007186
0.0008459 0.0011107 0.0003713 0.0006040 0.0004847 0.0012804 0.0003576 0.0008714 0.0003607 0.0010888 -0.0001052 0.0006378 0.0002451 0.0014529 0.0001803 0.0019218 0.0000017 -0.0005861 0.0004325 0.0009485
0.0008106 0.0013749 0.0003700 0.0008587 0.0004660 0.0014999 0.0003815 0.0012227 0.0003611 0.0014099 -0.0000846 0.0008148 0.0002682 0.0016335 0.0001600 0.0018995 0.0000181 -0.0005383 0.0006023 0.0006576
0.0009855 0.0013027 0.0003833 0.0008230 0.0004535 0.0013652 0.0003793 0.0011417 0.0003459 0.0013484 -0.0000766 0.0007555 0.0002741 0.0014809 0.0001337 0.0015530 0.0000187 -0.0007026 0.0006617 0.0004534
0.0011024 0.0010412 0.0003993 0.0005979 0.0004446 0.0010549 0.0003813 0.0008827 0.0003368 0.0011745 -0.0000877 0.0005940 0.0002501 0.0013147 0.0000920 0.0014327 0.0000067 -0.0007425 0.0005871 0.0006245
0.0010047 0.0011501 0.0004066 0.0006403 0.0004275 0.0010760 0.0003760 0.0009681 0.0003274 0.0013078 -0.0001008 0.0005914 0.0002509 0.0013723 0.0001083 0.0016530 0.0000099 -0.0006216 0.0002680 0.0010597
0.0010080 0.0012627 0.0004172 0.0008171 0.0004173 0.0012793 0.0003551 0.0011854 0.0003118 0.0015344 -0.0001041 0.0006566 0.0002461 0.0015108 0.0001053 0.0019664 -0.0000135 -0.0004671 0.0000416 0.0013668
0.0009572 0.0014649 0.0004334 0.0010441 0.0004299 0.0015130 0.0003450 0.0014091 0.0002928 0.0017200 -0.0000973 0.0006901 0.0002349 0.0015329 0.0001649 0.0019750 -0.0000457 -0.0004753 0.0005628 0.0009939
0.0009615 0.0015021 0.0004645 0.0009605 0.0004930 0.0014159 0.0003409 0.0012905 0.0002838 0.0016183 -0.0000577 0.0006519 0.0002229 0.0012925 0.0004134 0.0019701 -0.0001510 -0.0006512 0.0006409 0.0008917
0.0011715 0.0013657 0.0006303 0.0009264 0.0005615 0.0011048 0.0002588 0.0010571 0.0002271 0.0013831 0.0000003 0.0005950 0.0001898 0.0012242 0.0006651 0.0024224 -0.0002590 -0.0004558 0.0002501 0.0014125
0.0011328 0.0014375 0.0007586 0.0011797 0.0005566 0.0010781 0.0001888 0.0010838 0.0001294 0.0013075 0.0000826 0.0008175 0.0002379 0.0015613 0.0007391 0.0026619 -0.0002924 -0.0001202 0.0004868 0.0014712
0.0010812 0.0013821 0.0007289 0.0013209 0.0005133 0.0012745 0.0001864 0.0012232 0.0000626 0.0013767 0.0001286 0.0011388 0.0003044 0.0019013 0.0006036 0.0025694 -0.0003144 0.0000572 0.0006482 0.0014324
0.0011885 0.0013342 0.0006972 0.0013554 0.0005088 0.0013692 0.0001818 0.0011988 0.0000225 0.0012911 0.0001247 0.0011387 0.0003165 0.0018235 0.0004290 0.0020620 -0.0003029 -0.0000302 0.0005293 0.0014598
0.0012494 0.0012386 0.0006859 0.0011811 0.0005123 0.0011524 0.0001890 0.0009310 -0.0000002 0.0010289 0.0001359 0.0010307 0.0003224 0.0016226 0.0003327 0.0014844 -0.0002992 -0.0002336 0.0005059 0.0014467
0.0010421 0.0013060 0.0006938 0.0010678 0.0004907 0.0010021 0.0001782 0.0008155 -0.0000250 0.0009545 0.0001500 0.0010607 0.0003306 0.0016569 0.0003104 0.0013759 -0.0003274 -0.0001864 0.0004492 0.0015839
0.0009415 0.0014185 0.0006840 0.0011492 0.0004537 0.0010542 0.0001544 0.0008823 -0.0000634 0.0010225 0.0001712 0.0012262 0.0003506 0.0018639 0.0002630 0.0014872 -0.0003434 -0.0000548 0.0006044 0.0016061
0.0011844 0.0012762 0.0006637 0.0012910 0.0003926 0.0011505 0.0001240 0.0010084 -0.0001157 0.0011429 0.0002002 0.0014746 0.0003800 0.0021434 0.0002202 0.0015788 -0.0003438 0.0000512 0.0002304 0.0018897
0.0012242 0.0012232 0.0006599 0.0012566 0.0003253 0.0010092 0.0000965 0.0008848 -0.0001693 0.0009805 0.0002525 0.0016140 0.0004397 0.0021200 0.0002495 0.0012274 -0.0003429 -0.0001135 0.0001731 0.0017386
0.0011234 0.0011305 0.0006650 0.0010102 0.0002544 0.0005940 0.0000713 0.0005152 -0.0002110 0.0006079 0.0003019 0.0015946 0.0004805 0.0019354 0.0002980 0.0008440 -0.0003382 -0.0003263 0.0004766 0.0014173
0.0011415 0.0009530 0.0006695 0.0009204 0.0001944 0.0004167 0.0000477 0.0004061 -0.0002355 0.0005218 0.0003151 0.0016034 0.0004797 0.0019649 0.0003388 0.0009933 -0.0003611 -0.0002642 0.0002641 0.0015829
0.0012083 0.0009229 0.0006645 0.0010013 0.0001662 0.0005057 0.0000379 0.0005131 -0.0002501 0.0006087 0.0003033 0.0016190 0.0004533 0.0020908 0.0003716 0.0013744 -0.0004012 -0.0001000 0.0000080 0.0018229
0.0011741 0.0011008 0.0006307 0.0011291 0.0001441 0.0007058 0.0000513 0.0007026 -0.0002456 0.0007665 0.0003179 0.0017724 0.0004821 0.0023806 0.0004700 0.0017333 -0.0003266 0.0000652 0.0002740 0.0018300
0.0011578 0.0010554 0.0004873 0.0009237 0.0005706 0.0014542 0.0004621 0.0011465 0.0002059 0.0015337 0.0001701 0.0010358 0.0002369 0.0014564 0.0007318 0.0016026 -0.0001542 -0.0001592 0.0006178 0.0016326
0.0008959 0.0009660 0.0002935 0.0002894 0.0013975 0.0022962 0.0013765 0.0022389 0.0011499 0.0032356 -0.0000242 -0.0005180 -0.0002312 -0.0005517 0.0009928 0.0013147 -0.0000019 -0.0004059 0.0006033 0.0014820
0.0007542 0.0009421 0.0001794 -0.0000099 0.0018633 0.0026438 0.0020848 0.0034977 0.0017279 0.0044403 0.0000109 -0.0010087 -0.0003629 -0.0012584 0.0010272 0.0014511 0.0000745 -0.0002169 0.0008644 0.0014182
0.0008443 0.0008324 0.0001293 0.0001190 0.0018662 0.0027529 0.0021936 0.0039192 0.0017117 0.0045417 0.0000742 -0.0005533 -0.0002482 -0.0008396 0.0009942 0.0018114 0.0000975 0.0000322 0.0007447 0.0018248
0.0007294 0.0009853 0.0001037 0.0003530 0.0016655 0.0027140 0.0018708 0.0035300 0.0013800 0.0040505 0.0001763 0.0004856 -0.0000270 0.0001920 0.0009180 0.0022445 0.0000921 0.0002450 0.0005984 0.0020169
0.0005674 0.0012218 0.0000949 0.0005328 0.0013837 0.0024456 0.0015026 0.0028181 0.0010366 0.0032224 0.0003707 0.0015000 0.0002798 0.0012731 0.0007401 0.0017603 0.0000818 0.0000976 0.0009744 0.0015153
0.0004227 0.0012511 0.0000976 0.0003545 0.0011563 0.0018582 0.0013141 0.0021431 0.0008717 0.0024771 0.0005365 0.0019680 0.0005735 0.0017977 0.0005948 0.0008076 0.0000887 -0.0002624 0.0013389 0.0011041
0.0007204 0.0008792 0.0000839 0.0001429 0.0009527 0.0013836 0.0011982 0.0017782 0.0007149 0.0019676 0.0006574 0.0023895 0.0007813 0.0022484 0.0005603 0.0007332 0.0000787 -0.0002803 0.0013508 0.0012273
0.0008610 0.0007233 0.0000594 0.0002003 0.0007274 0.0012140 0.0010776 0.0016744 0.0005187 0.0016470 0.0007577 0.0028458 0.0009159 0.0027531 0.0005741 0.0011251 0.0000632 -0.0001148 0.0010190 0.0015388
0.0008497 0.0007646 0.0000424 0.0003828 0.0005587 0.0012034 0.0009694 0.0016861 0.0003565 0.0014964 0.0008268 0.0032117 0.0010062 0.0031673 0.0006309 0.0015475 0.0000402 0.0000595 0.0010920 0.0015486
0.0009668 0.0008427 0.0000335 0.0006387 0.0004161 0.0013116 0.0008747 0.0017794 0.0002404 0.0014542 0.0008876 0.0035313 0.0010790 0.0034695 0.0007223 0.0017017 0.0000288 0.0000984 0.0010997 0.0015225
0.0007820 0.0009290 0.0000385 0.0005719 0.0002504 0.0009817 0.0007844 0.0014730 0.0001465 0.0010577 0.0009751 0.0037419 0.0011592 0.0035242 0.0008091 0.0014856 0.0000397 -0.0001348 0.0009885 0.0013403
0.0007607 0.0007317 0.0000353 0.0002933 0.0000481 0.0003501 0.0007101 0.0009031 0.0000725 0.0004902 0.0010692 0.0039011 0.0012455 0.0035352 0.0008619 0.0014613 0.0000390 -0.0002760 0.0009930 0.0012970
0.0008636 0.0006176 0.0000220 0.0002870 -0.0001565 0.0000786 0.0006361 0.0006674 0.0000018 0.0002027 0.0011381 0.0041543 0.0012999 0.0036976 0.0008789 0.0017111 0.0000176 -0.0001847 0.0009887 0.0014678
0.0007961 0.0006431 0.0000150 0.0004359 -0.0003192 0.0000478 0.0005452 0.0005992 -0.0000731 0.0000648 0.0012019 0.0044778 0.0013525 0.0039289 0.0008709 0.0020156 0.0000120 -0.0000324 0.0009475 0.0015864
0.0007232 0.0007461 0.0000084 0.0006388 -0.0004607 0.0000980 0.0004426 0.0005846 -0.0001436 0.0000162 0.0012636 0.0048314 0.0013996 0.0042012 0.0008841 0.0023606 0.0000151 0.0001550 0.0009993 0.0016930
0.0007207 0.0008700 0.0000025 0.0007855 -0.0005604 0.0000961 0.0003536 0.0004612 -0.0002013 -0.0002031 0.0013079 0.0049986 0.0014323 0.0042021 0.0009425 0.0021489 0.0000206 0.0000330 0.0010448 0.0015926
0.0005636 0.0008426 0.0000022 0.0006141 -0.0006525 -0.0002610 0.0002830 0.0000316 -0.0002333 -0.0006942 0.0013399 0.0049717 0.0014553 0.0039863 0.0010017 0.0016238 0.0000362 -0.0002831 0.0008771 0.0015370
0.0005423 0.0006754 0.0000029 0.0004225 -0.0007704 -0.0006614 0.0002109 -0.0003493 -0.0002531 -0.0010837 0.0013664 0.0049994 0.0014542 0.0039248 0.0009902 0.0016142 0.0000280 -0.0003056 0.0006557 0.0016665
0.0007208 0.0005554 0.0000059 0.0004898 -0.0008556 -0.0007623 0.0001397 -0.0004694 -0.0002832 -0.0012617 0.0013896 0.0051341 0.0014630 0.0040050 0.0009470 0.0018724 0.0000097 -0.0001575 0.0005016 0.0017379
0.0007195 0.0005775 0.0000080 0.0006443 -0.0009352 -0.0007357 0.0000710 -0.0004810 -0.0003194 -0.0013431 0.0014124 0.0053171 0.0014676 0.0041641 0.0009105 0.0021415 -0.0000115 0.0000151 0.0007599 0.0016652
0.0005891 0.0008216 0.0000023 0.0008491 -0.0010071 -0.0006594 0.0000105 -0.0004041 -0.0003648 -0.0013212 0.0014238 0.0054845 0.0014644 0.0043100 0.0009367 0.0022191 -0.0000121 0.0001014 0.0009241 0.0016032
0.0005709 0.0008717 0.0000079 0.0008047 -0.0010336 -0.0008129 -0.0000250 -0.0006244 -0.0004002 -0.0016241 0.0014293 0.0054446 0.0014710 0.0041109 0.0009717 0.0018167 0.0000072 -0.0001350 0.0010496 0.0013323
0.0005936 0.0007207 0.0000414 0.0005536 -0.0010133 -0.0011389 -0.0000481 -0.0010403 -0.0004075 -0.0021217 0.0014229 0.0052686 0.0014573 0.0037783 0.0009201 0.0015231 0.0000100 -0.0003280 0.0011670 0.0011686
0.0006802 0.0006952 0.0000752 0.0005160 -0.0009872 -0.0012173 -0.0000704 -0.0011723 -0.0004138 -0.0022785 0.0014093 0.0052285 0.0014326 0.0037016 0.0008788 0.0016459 0.0000142 -0.0002188 0.0008090 0.0014919
0.0007184 0.0006987 0.0000895 0.0006490 -0.0009967 -0.0011066 -0.0001005 -0.0011240 -0.0004280 -0.0022305 0.0013801 0.0052334 0.0013987 0.0037182 0.0008525 0.0018667 0.0000137 -0.0000287 0.0005626 0.0017448
0.0006808 0.0007853 0.0001028 0.0008312 -0.0010076 -0.0009657 -0.0001483 -0.0009680 -0.0004435 -0.0020681 0.0013188 0.0051723 0.0013451 0.0037679 0.0008329 0.0021634 0.0000128 0.0002070 0.0004903 0.0019603
0.0007535 0.0009479 0.0001265 0.0009932 -0.0009808 -0.0008005 -0.0001729 -0.0008687 -0.0004583 -0.0020185 0.0012600 0.0050167 0.0013056 0.0036166 0.0008185 0.0019675 0.0000526 0.0001335 0.0004812 0.0018619
0.0008809 0.0007352 0.0001469 0.0008013 -0.0009342 -0.0009634 -0.0001888 -0.0010800 -0.0004515 -0.0022453 0.0011947 0.0047147 0.0012592 0.0031874 0.0007273 0.0014452 0.0000875 -0.0001362 0.0007622 0.0013050
0.0009208 0.0005129 0.0001499 0.0005106 -0.0008792 -0.0012023 -0.0002141 -0.0012753 -0.0004384 -0.0023596 0.0010022 0.0042070 0.0010891 0.0027033 0.0005391 0.0013554 0.0000899 -0.0001764 0.0009473 0.0010649
0.0008965 0.0005408 0.0001618 0.0004875 -0.0007932 -0.0010838 -0.0002264 -0.0011866 -0.0004321 -0.0022227 0.0007984 0.0037575 0.0009016 0.0024456 0.0004449 0.0015121 0.0000786 -0.0000877 0.0010366 0.0010009
0.0007650 0.0006909 0.0001909 0.0006502 -0.0007142 -0.0007991 -0.0002209 -0.0009762 -0.0004295 -0.0020057 0.0007264 0.0036218 0.0008112 0.0023792 0.0003164 0.0017037 -0.0000237 -0.0001393 0.0006347 0.0008738
0.0005400 0.0007252 0.0001526 0.0007469 -0.0006496 -0.0005048 -0.0002374 -0.0007583 -0.0004296 -0.0017505 0.0005332 0.0030865 0.0006600 0.0019551 0.0001335 0.0014580 -0.0001435 -0.0004735 0.0002305 0.0004102
0.0004961 0.0003613 0.0001155 0.0005549 -0.0005801 -0.0006368 -0.0002517 -0.0009019 -0.0004085 -0.0018061 0.0003603 0.0024098 0.0005573 0.0014418 0.0000626 0.0009247 -0.0001917 -0.0007805 0.0001148 0.0000257
0.0002439 0.0002689 0.0001483 0.0004108 -0.0005374 -0.0009118 -0.0002300 -0.0011350 -0.0003786 -0.0019939 0.0003630 0.0022316 0.0005791 0.0013564 0.0000898 0.0008075 -0.0002042 -0.0007787 -0.0001236 0.0003436
0.0002298 0.0003979 0.0002035 0.0005503 -0.0005187 -0.0008550 -0.0002036 -0.0010678 -0.0003676 -0.0019876 0.0004677 0.0024686 0.0006819 0.0016851 0.0001966 0.0009709 -0.0001965 -0.0005975 -0.0000608 0.0009870
0.0007865 0.0005301 0.0002698 0.0008564 -0.0005354 -0.0006874 -0.0001738 -0.0008983 -0.0003775 -0.0019223 0.0006204 0.0029024 0.0007986 0.0021238 0.0002892 0.0011717 -0.0001760 -0.0004231 0.0005346 0.0013811
0.0012128 0.0008743 0.0003075 0.0011262 -0.0005371 -0.0004853 -0.0001623 -0.0006715 -0.0003944 -0.0018142 0.0006375 0.0029482 0.0008162 0.0021864 0.0003508 0.0010711 -0.0001621 -0.0004656 0.0008532 0.0013190
0.0012778 0.0010794 0.0003442 0.0010291 -0.0004710 -0.0005749 -0.0001383 -0.0007940 -0.0003914 -0.0019871 0.0005936 0.0026355 0.0007996 0.0018840 0.0003646 0.0006351 -0.0001730 -0.0007436 0.0005254 0.0013256
0.0011559 0.0009466 0.0003582 0.0006909 -0.0004316 -0.0009094 -0.0001324 -0.0010872 -0.0003762 -0.0022197 0.0005171 0.0022353 0.0007423 0.0015959 0.0002826 0.0005637 -0.0001919 -0.0008329 0.0006840 0.0010024
0.0012115 0.0008121 0.0003575 0.0006514 -0.0004596 -0.0009812 -0.0001436 -0.0010791 -0.0003674 -0.0021599 0.0004859 0.0021605 0.0007143 0.0016183 0.0002318 0.0008206 -0.0001801 -0.0006900 0.0007779 0.0007981
0.0011870 0.0007302 0.0003199 0.0007393 -0.0004224 -0.0007713 -0.0001276 -0.0009184 -0.0003469 -0.0019725 0.0004637 0.0021943 0.0006938 0.0017233 0.0002291 0.0012170 -0.0001159 -0.0005281 0.0005633 0.0011141
0.0010269 0.0007641 0.0002662 0.0008159 -0.0003299 -0.0004141 -0.0001017 -0.0006268 -0.0003305 -0.0016927 0.0004213 0.0021403 0.0006726 0.0018034 0.0003225 0.0013780 -0.0000729 -0.0004440 0.0008067 0.0008807
0.0011846 0.0007944 0.0002898 0.0008101 -0.0003480 -0.0005109 -0.0000682 -0.0006793 -0.0003222 -0.0017832 0.0004979 0.0022163 0.0007548 0.0018635 0.0004709 0.0009007 -0.0000464 -0.0005778 0.0006595 0.0008403
0.0013843 0.0006977 0.0003090 0.0006661 -0.0004475 -0.0009313 -0.0000482 -0.0009672 -0.0003080 -0.0020554 0.0005783 0.0022928 0.0008293 0.0019042 0.0004806 0.0006159 -0.0000003 -0.0006463 0.0005297 0.0010113
0.0012508 0.0008796 0.0002642 0.0006419 -0.0005440 -0.0010013 -0.0000384 -0.0009338 -0.0003067 -0.0020126 0.0006000 0.0023707 0.0008524 0.0020391 0.0004480 0.0007124 0.0000571 -0.0005127 0.0008465 0.0008244
0.0010324 0.0011293 0.0001816 0.0007438 -0.0006283 -0.0008492 -0.0000256 -0.0007029 -0.0003054 -0.0017779 0.0005705 0.0024007 0.0008378 0.0021714 0.0003865 0.0009987 0.0001109 -0.0003257 0.0008330 0.0008822
0.0010593 0.0010687 0.0001173 0.0008792 -0.0005920 -0.0004875 0.0000014 -0.0003552 -0.0002865 -0.0013723 0.0004574 0.0021829 0.0007602 0.0021782 0.0004064 0.0014872 0.0001256 -0.0001899 0.0007468 0.0009939
0.0011621 0.0010013 0.0001455 0.0007980 -0.0004024 -0.0003032 0.0000351 -0.0002624 -0.0002517 -0.0012408 0.0003674 0.0017783 0.0006961 0.0018636 0.0005714 0.0014381 0.0001228 -0.0003723 0.0009675 0.0007781
0.0010487 0.0010102 0.0002367 0.0005779 -0.0002372 -0.0003937 0.0000548 -0.0004024 -0.0002049 -0.0013263 0.0003499 0.0014910 0.0006637 0.0015385 0.0006665 0.0012528 0.0001396 -0.0005684 0.0007864 0.0008614
0.0009518 0.0010363 0.0002734 0.0005408 -0.0001593 -0.0003139 0.0000782 -0.0003545 -0.0001583 -0.0011675 0.0002891 0.0012626 0.0005914 0.0014195 0.0006113 0.0014057 0.0002030 -0.0004823 0.0000176 0.0013686
0.0009823 0.0009898 0.0002175 0.0006333 -0.0001960 -0.0001823 0.0000932 -0.0002066 -0.0001399 -0.0009321 0.0002627 0.0012741 0.0005911 0.0015967 0.0005196 0.0014207 0.0002513 -0.0002746 0.0000671 0.0014033
0.0011810 0.0010840 0.0001984 0.0008603 -0.0003610 -0.0001624 0.0000560 -0.0000428 -0.0001767 -0.0007204 0.0003673 0.0016942 0.0006890 0.0020398 0.0004763 0.0013597 0.0002493 -0.0001164 0.0003057 0.0013195
0.0012938 0.0013261 0.0002441 0.0008819 -0.0004419 -0.0002873 0.0000223 -0.0001049 -0.0001893 -0.0007409 0.0004204 0.0018428 0.0007170 0.0019604 0.0004467 0.0009680 0.0003199 -0.0003295 0.0003892 0.0009632
0.0010554 0.0012766 0.0001895 0.0005588 -0.0002738 -0.0001910 0.0001622 -0.0001660 -0.0000261 -0.0006336 0.0002312 0.0011368 0.0006030 0.0014843 0.0003943 0.0008230 0.0004057 -0.0004820 0.0007165 0.0005987
0.0009655 0.0012538 0.0001342 0.0005442 -0.0000425 0.0002337 0.0003917 0.0001979 0.0001936 -0.0001700 0.0001663 0.0008335 0.0006070 0.0016107 0.0004064 0.0011276 0.0004320 -0.0002175 0.0008995 0.0007427
0.0012965 0.0013801 0.0001948 0.0008573 0.0000546 0.0005114 0.0004849 0.0006164 0.0002797 0.0001527 0.0002549 0.0011009 0.0006371 0.0018970 0.0004154 0.0013806 0.0004028 0.0000388 0.0007606 0.0010104
0.0012707 0.0016780 0.0002452 0.0010885 0.0000432 0.0006418 0.0004427 0.0008816 0.0002488 0.0004162 0.0001004 0.0007887 0.0004892 0.0018192 0.0003311 0.0016608 0.0002993 0.0001375 0.0005281 0.0012260
0.0009176 0.0017738 0.0002833 0.0011138 -0.0000357 0.0005245 0.0003825 0.0007834 0.0001388 0.0002954 0.0002331 0.0013450 0.0005909 0.0020656 0.0003820 0.0015291 0.0002018 -0.0000777 0.0003562 0.0013528
0.0009958 0.0013444 0.0003168 0.0009263 -0.0001154 0.0001462 0.0003259 0.0003801 -0.0000132 -0.0002004 0.0005658 0.0023601 0.0007907 0.0023808 0.0004612 0.0012220 0.0000815 -0.0003377 0.0003186 0.0012696
0.0012834 0.0009313 0.0003408 0.0008093 -0.0001478 -0.0000634 0.0002244 0.0001657 -0.0001322 -0.0004258 0.0006643 0.0027084 0.0008120 0.0024608 0.0003681 0.0011950 -0.0000427 -0.0003289 0.0003920 0.0010627
0.0010982 0.0008789 0.0003406 0.0008117 -0.0002458 -0.0001616 0.0000654 0.0000647 -0.0001877 -0.0003890 0.0006445 0.0027877 0.0007187 0.0023935 0.0001770 0.0012202 -0.0001558 -0.0003276 0.0003408 0.0008859
0.0006763 0.0007140 0.0002975 0.0008065 -0.0004863 -0.0003666 -0.0001239 -0.0000032 -0.0002018 -0.0002093 0.0005602 0.0026638 0.0006262 0.0023371 0.0000784 0.0012457 -0.0002499 -0.0003256 0.0005768 0.0009759
0.0007902 0.0004161 0.0003043 0.0007859 -0.0006632 -0.0006637 -0.0001976 -0.0001849 -0.0001900 -0.0003390 0.0006065 0.0026672 0.0007012 0.0023372 0.0001568 0.0010128 -0.0002659 -0.0005024 0.0008024 0.0010077
0.0010641 0.0001751 0.0003197 0.0005851 -0.0007047 -0.0010278 -0.0001897 -0.0005477 -0.0001841 -0.0007688 0.0006795 0.0026834 0.0007455 0.0021303 0.0001780 0.0007215 -0.0002639 -0.0007158 0.0004544 0.0006250
0.0010080 -0.0000174 0.0002656 0.0003710 -0.0007252 -0.0011916 -0.0002175 -0.0007288 -0.0001889 -0.0009640 0.0007099 0.0027852 0.0007680 0.0021770 0.0001788 0.0008290 -0.0002793 -0.0006460 -0.0000560 0.0009373
0.0009208 0.0001534 0.0002452 0.0004656 -0.0007811 -0.0011523 -0.0002078 -0.0007298 -0.0001997 -0.0010141 0.0008363 0.0031960 0.0008780 0.0025789 0.0002815 0.0011472 -0.0002845 -0.0004862 0.0000825 0.0013516
0.0008642 0.0004210 0.0002544 0.0007061 -0.0008685 -0.0010968 -0.0001811 -0.0006758 -0.0002260 -0.0010648 0.0009718 0.0036534 0.0009809 0.0029750 0.0004061 0.0014706 -0.0002942 -0.0003244 0.0005188 0.0012862
0.0008077 0.0003744 0.0002367 0.0007036 -0.0009087 -0.0012056 -0.0001767 -0.0008486 -0.0002534 -0.0013779 0.0010609 0.0038622 0.0010495 0.0030347 0.0005120 0.0012989 -0.0003070 -0.0004591 0.0004266 0.0012688
0.0008823 0.0000988 0.0002204 0.0004736 -0.0009356 -0.0015465 -0.0001677 -0.0012154 -0.0002603 -0.0018476 0.0011386 0.0039337 0.0011067 0.0029411 0.0005860 0.0010306 -0.0002924 -0.0006809 0.0002759 0.0013291
0.0007416 0.0000609 0.0002021 0.0003632 -0.0009993 -0.0017470 -0.0001725 -0.0013752 -0.0002642 -0.0020518 0.0012113 0.0041389 0.0011614 0.0030718 0.0006424 0.0012006 -0.0002875 -0.0006142 0.0001522 0.0016177
0.0005640 0.0001279 0.0001874 0.0004326 -0.0010596 -0.0017499 -0.0001776 -0.0013785 -0.0002752 -0.0020867 0.0012948 0.0044748 0.0012355 0.0033471 0.0006950 0.0015269 -0.0003023 -0.0004529 0.0003149 0.0016502
0.0005585 0.0001136 0.0001759 0.0005685 -0.0011026 -0.0017066 -0.0001747 -0.0013072 -0.0002849 -0.0020554 0.0013944 0.0049209 0.0013166 0.0037140 0.0007808 0.0019223 -0.0003136 -0.0002668 0.0005653 0.0017040
0.0005393 0.0000939 0.0001687 0.0006545 -0.0011336 -0.0016802 -0.0001656 -0.0013309 -0.0002911 -0.0021934 0.0015016 0.0052762 0.0014145 0.0038592 0.0008957 0.0018310 -0.0003009 -0.0003858 0.0003499 0.0019098
0.0004616 -0.0000172 0.0001773 0.0004765 -0.0011507 -0.0018881 -0.0001601 -0.0015693 -0.0002872 -0.0025341 0.0015865 0.0054371 0.0015030 0.0037792 0.0009551 0.0015141 -0.0002934 -0.0006368 0.0005065 0.0016810
0.0003373 -0.0001385 0.0001788 0.0003158 -0.0011752 -0.0021063 -0.0001654 -0.0017136 -0.0002839 -0.0027161 0.0016323 0.0055754 0.0015254 0.0038140 0.0009702 0.0016039 -0.0003061 -0.0005978 0.0006696 0.0015938
0.0002950 -0.0001517 0.0001610 0.0003762 -0.0012150 -0.0021041 -0.0001693 -0.0016717 -0.0002837 -0.0027182 0.0016631 0.0057507 0.0015432 0.0039423 0.0009911 0.0018481 -0.0003086 -0.0004542 0.0006703 0.0017567
0.0002053 -0.0001007 0.0001615 0.0004921 -0.0012532 -0.0020344 -0.0001665 -0.0015564 -0.0002778 -0.0026418 0.0016872 0.0059464 0.0015511 0.0041194 0.0009855 0.0021418 -0.0003172 -0.0002835 0.0004448 0.0020643
0.0003079 -0.0001528 0.0001675 0.0006624 -0.0012908 -0.0019065 -0.0001574 -0.0014089 -0.0002710 -0.0026003 0.0017029 0.0060633 0.0015570 0.0041567 0.0010231 0.0020179 -0.0003084 -0.0003624 0.0004433 0.0020339
0.0003476 -0.0001976 0.0001762 0.0005714 -0.0012991 -0.0020586 -0.0001449 -0.0015496 -0.0002574 -0.0028310 0.0017274 0.0060484 0.0015960 0.0040027 0.0010617 0.0016016 -0.0003176 -0.0006263 0.0007310 0.0017060
0.0002405 -0.0002182 0.0001959 0.0003435 -0.0012994 -0.0023480 -0.0001362 -0.0017945 -0.0002359 -0.0030952 0.0017461 0.0060468 0.0015958 0.0039334 0.0010592 0.0015525 -0.0003521 -0.0006381 0.0006769 0.0017434
0.0002456 -0.0002363 0.0002095 0.0003516 -0.0013286 -0.0023651 -0.0001341 -0.0017825 -0.0002243 -0.0031377 0.0017524 0.0061234 0.0015876 0.0039749 0.0010640 0.0017383 -0.0003532 -0.0004910 0.0006614 0.0018346
0.0002372 -0.0001941 0.0002092 0.0004777 -0.0013556 -0.0022683 -0.0001342 -0.0016755 -0.0002262 -0.0030691 0.0017571 0.0062360 0.0015951 0.0040792 0.0010342 0.0020089 -0.0003395 -0.0003266 0.0005706 0.0020230
0.0002392 -0.0001296 0.0002107 0.0006505 -0.0013804 -0.0021137 -0.0001404 -0.0014988 -0.0002321 -0.0029160 0.0017570 0.0063893 0.0016027 0.0042223 0.0010199 0.0021751 -0.0003201 -0.0002212 0.0003400 0.0021974
0.0001963 -0.0000498 0.0002203 0.0006070 -0.0013657 -0.0021559 -0.0001348 -0.0015544 -0.0002263 -0.0030433 0.0017651 0.0064101 0.0016206 0.0041117 0.0010441 0.0018159 -0.0002938 -0.0004242 0.0002363 0.0021160
0.0002940 -0.0001949 0.0002315 0.0003660 -0.0013391 -0.0024131 -0.0001199 -0.0018095 -0.0002113 -0.0033458 0.0017771 0.0063352 0.0016283 0.0038982 0.0010676 0.0015029 -0.0002781 -0.0005968 0.0003563 0.0019986
0.0001571 -0.0001656 0.0002348 0.0003006 -0.0013504 -0.0024891 -0.0001167 -0.0018522 -0.0002060 -0.0033997 0.0017753 0.0063461 0.0016240 0.0038749 0.0010552 0.0016374 -0.0002665 -0.0004910 0.0008069 0.0016913
0.0000045 -0.0000050 0.0002126 0.0004040 -0.0013792 -0.0023840 -0.0001176 -0.0017399 -0.0002065 -0.0033135 0.0017690 0.0064273 0.0016179 0.0039561 0.0010246 0.0018474 -0.0002465 -0.0003357 0.0004637 0.0020454
0.0002095 -0.0001175 0.0001951 0.0005417 -0.0014123 -0.0022359 -0.0001208 -0.0015621 -0.0002047 -0.0031535 0.0017702 0.0065620 0.0016128 0.0041134 0.0009928 0.0021406 -0.0002414 -0.0001441 0.0001713 0.0024210
0.0003050 -0.0001697 0.0001843 0.0006206 -0.0014130 -0.0021449 -0.0001062 -0.0014976 -0.0002014 -0.0031544 0.0017860 0.0066078 0.0016369 0.0040859 0.0010325 0.0019108 -0.0002272 -0.0002751 0.0004908 0.0021501
0.0002211 -0.0001065 0.0001762 0.0004564 -0.0013972 -0.0023102 -0.0000847 -0.0016828 -0.0001884 -0.0033942 0.0018045 0.0065335 0.0016720 0.0038819 0.0011005 0.0014176 -0.0002061 -0.0005551 0.0003234 0.0020998
0.0000389 -0.0000818 0.0001696 0.0002951 -0.0014167 -0.0024818 -0.0000793 -0.0018129 -0.0001764 -0.0035279 0.0018110 0.0064944 0.0016785 0.0038242 0.0010704 0.0014488 -0.0002034 -0.0005349 0.0004779 0.0019505
0.0002689 -0.0003424 0.0001642 0.0003401 -0.0014416 -0.0024441 -0.0000833 -0.0017621 -0.0001814 -0.0034862 0.0018146 0.0065306 0.0016700 0.0039079 0.0010140 0.0016950 -0.0002278 -0.0003746 0.0005199 0.0021142
0.0004721 -0.0004206 0.0001605 0.0004537 -0.0014530 -0.0023228 -0.0000917 -0.0016354 -0.0001899 -0.0033627 0.0018204 0.0066179 0.0016569 0.0040607 0.0010194 0.0019580 -0.0002414 -0.0001978 0.0005558 0.0022033
0.0001278 -0.0000303 0.0001476 0.0006215 -0.0014803 -0.0021351 -0.0000925 -0.0014686 -0.0001960 -0.0032512 0.0018278 0.0066816 0.0016842 0.0040913 0.0010573 0.0018693 -0.0002300 -0.0002479 0.0007310 0.0019316
0.0000685 0.0000047 0.0001365 0.0005299 -0.0014752 -0.0022400 -0.0000829 -0.0016024 -0.0001942 -0.0034213 0.0018445 0.0066280 0.0017161 0.0039308 0.0011049 0.0014208 -0.0002160 -0.0005135 0.0006609 0.0018203
0.0003079 -0.0003512 0.0001395 0.0002938 -0.0014429 -0.0025163 -0.0000833 -0.0018785 -0.0001885 -0.0036557 0.0018555 0.0065646 0.0017197 0.0038307 0.0011110 0.0013185 -0.0002148 -0.0005627 0.0007906 0.0017207
0.0001142 -0.0003410 0.0001415 0.0002632 -0.0014367 -0.0024941 -0.0000964 -0.0019126 -0.0002098 -0.0037321 0.0018495 0.0065676 0.0017185 0.0038816 0.0011095 0.0015241 -0.0001943 -0.0004087 0.0008313 0.0017964
-0.0001432 -0.0000886 0.0001095 0.0003531 -0.0014384 -0.0022828 -0.0000944 -0.0017962 -0.0002412 -0.0037118 0.0018855 0.0067711 0.0017693 0.0041262 0.0011611 0.0018390 -0.0001520 -0.0002348 0.0005209 0.0021085
0.0002346 -0.0002291 0.0000614 0.0005181 -0.0014217 -0.0020190 -0.0000646 -0.0016045 -0.0002565 -0.0035592 0.0019832 0.0072031 0.0018689 0.0045591 0.0012412 0.0022051 -0.0001265 -0.0000760 0.0006138 0.0021652
0.0000883 -0.0001453 0.0000274 0.0005024 -0.0014064 -0.0019921 -0.0000196 -0.0016494 -0.0002614 -0.0036793 0.0020757 0.0074661 0.0019678 0.0046935 0.0013548 0.0020036 -0.0000634 -0.0002727 0.0010464 0.0018580
-0.0002946 -0.0000273 0.0000009 0.0002710 -0.0014253 -0.0022476 0.0000115 -0.0019217 -0.0002562 -0.0040153 0.0021416 0.0075952 0.0020368 0.0045800 0.0014210 0.0016963 0.0000023 -0.0005324 0.0009664 0.0017255
-0.0001381 -0.0002490 -0.0000342 0.0001695 -0.0014406 -0.0024104 0.0000167 -0.0020362 -0.0002542 -0.0041255 0.0021783 0.0077529 0.0020599 0.0045961 0.0014292 0.0018128 0.0000237 -0.0004735 0.0006094 0.0019442
-0.0002222 -0.0001513 -0.0000581 0.0002286 -0.0014595 -0.0024008 0.0000085 -0.0019887 -0.0002586 -0.0040714 0.0021934 0.0078934 0.0020692 0.0046759 0.0014334 0.0020406 0.0000317 -0.0003340 0.0006962 0.0019731
-0.0001542 -0.0001391 -0.0000749 0.0003617 -0.0015049 -0.0022929 0.0000023 -0.0018749 -0.0002676 -0.0039392 0.0022080 0.0080574 0.0020663 0.0048304 0.0014055 0.0023804 0.0000207 -0.0001544 0.0008710 0.0020139
0.0002296 -0.0003766 -0.0000823 0.0004632 -0.0015312 -0.0021983 0.0000087 -0.0018282 -0.0002754 -0.0039365 0.0022201 0.0080753 0.0020724 0.0048348 0.0014335 0.0022301 0.0000185 -0.0002785 0.0005908 0.0021496
0.0001605 -0.0003327 -0.0000707 0.0003023 -0.0015418 -0.0023727 0.0000163 -0.0020355 -0.0002730 -0.0041720 0.0022376 0.0079589 0.0020989 0.0046755 0.0014964 0.0018042 0.0000239 -0.0005899 0.0007000 0.0018484
0.0000624 -0.0004351 -0.0000661 0.0001071 -0.0015484 -0.0026033 0.0000111 -0.0022434 -0.0002752 -0.0043258 0.0022805 0.0080350 0.0021321 0.0046835 0.0015501 0.0018573 0.0000065 -0.0006086 0.0010046 0.0016757
0.0001044 -0.0005398 -0.0000683 0.0001126 -0.0015459 -0.0026089 0.0000063 -0.0022466 -0.0002844 -0.0043253 0.0023382 0.0082763 0.0021742 0.0048274 0.0015943 0.0021471 -0.0000288 -0.0004651 0.0006229 0.0019631
0.0001293 -0.0004509 -0.0000746 0.0002078 -0.0015510 -0.0024997 0.0000039 -0.0021598 -0.0002988 -0.0042496 0.0023972 0.0085926 0.0022064 0.0050571 0.0016391 0.0024629 -0.0000551 -0.0002965 0.0002697 0.0023081
0.0002176 -0.0005377 -0.0000857 0.0003631 -0.0015523 -0.0023177 -0.0000001 -0.0020052 -0.0003160 -0.0041076 0.0025180 0.0087448 0.0022508 0.0052637 0.0016675 0.0025788 -0.0000615 -0.0002725 0.0005633 0.0022403
0.0002070 -0.0006334 -0.0000776 0.0002820 -0.0015304 -0.0023666 -0.0000011 -0.0021305 -0.0003191 -0.0042750 0.0026147 0.0086993 0.0022879 0.0051756 0.0016738 0.0022443 -0.0000674 -0.0005483 0.0009709 0.0017364
0.0000414 -0.0006563 -0.0000497 0.0000046 -0.0015127 -0.0026376 -0.0000109 -0.0024678 -0.0003157 -0.0046093 0.0025593 0.0088117 0.0022678 0.0049488 0.0016833 0.0019876 -0.0000689 -0.0007443 0.0010656 0.0015729
0.0000270 -0.0007047 -0.0000353 -0.0000696 -0.0015070 -0.0027254 -0.0000477 -0.0025913 -0.0003211 -0.0047109 0.0024591 0.0088380 0.0021964 0.0047821 0.0016398 0.0020943 -0.0000996 -0.0006724 0.0007397 0.0018927
0.0002184 -0.0007511 -0.0000224 -0.0000083 -0.0015113 -0.0026292 -0.0000942 -0.0025671 -0.0003331 -0.0046778 0.0023743 0.0086641 0.0021008 0.0046475 0.0015469 0.0022838 -0.0001276 -0.0005504 0.0005219 0.0020741
0.0003022 -0.0007185 -0.0000183 0.0000681 -0.0015344 -0.0024911 -0.0001501 -0.0024616 -0.0003528 -0.0045695 0.0022221 0.0083539 0.0019530 0.0043985 0.0013745 0.0025098 -0.0002203 -0.0006111 0.0003471 0.0019150
0.0002786 -0.0006317 -0.0000405 0.0000385 -0.0015434 -0.0024262 -0.0002311 -0.0024460 -0.0003785 -0.0046082 0.0019249 0.0074503 0.0016669 0.0035941 0.0010582 0.0020457 -0.0004585 -0.0013313 0.0002080 0.0007108
0.0001137 -0.0008381 -0.0000716 -0.0002528 -0.0015764 -0.0026590 -0.0003131 -0.0026843 -0.0003838 -0.0048243 0.0016662 0.0064624 0.0014486 0.0028055 0.0008523 0.0013204 -0.0006018 -0.0019997 0.0000939 -0.0002554
-0.0000109 -0.0010659 -0.0000553 -0.0003577 -0.0016091 -0.0029040 -0.0003396 -0.0028524 -0.0003611 -0.0049223 0.0016769 0.0063606 0.0014777 0.0028285 0.0009225 0.0013591 -0.0006026 -0.0019493 0.0001488 -0.0000575
-0.0001520 -0.0007043 0.0000033 -0.0001512 -0.0016115 -0.0028795 -0.0003090 -0.0028041 -0.0003396 -0.0048726 0.0017686 0.0065983 0.0015617 0.0031152 0.0010192 0.0016973 -0.0006063 -0.0017442 0.0003675 0.0003071
-0.0000576 -0.0003848 0.0000285 0.0000392 -0.0016231 -0.0027604 -0.0002840 -0.0026836 -0.0003377 -0.0047738 0.0017845 0.0066769 0.0015780 0.0032284 0.0010097 0.0020115 -0.0005757 -0.0015558 0.0001384 0.0006513
0.0001860 -0.0003290 0.0000153 0.0001599 -0.0016412 -0.0025689 -0.0003055 -0.0025154 -0.0003566 -0.0046315 0.0017341 0.0066239 0.0015202 0.0031951 0.0009549 0.0020283 -0.0005041 -0.0015065 0.0001683 0.0004155
0.0001522 -0.0003462 -0.0000129 -0.0000021 -0.0016443 -0.0025918 -0.0003554 -0.0025921 -0.0003737 -0.0047439 0.0016303 0.0061895 0.0014496 0.0029360 0.0009424 0.0015797 -0.0004602 -0.0017118 0.0002245 0.0002213
0.0001668 -0.0004670 0.0000067 -0.0001611 -0.0016224 -0.0027980 -0.0003512 -0.0027978 -0.0003570 -0.0049762 0.0016142 0.0058193 0.0014718 0.0028156 0.0009982 0.0013663 -0.0004583 -0.0018208 0.0001951 0.0006129
0.0002875 -0.0003294 0.0000672 -0.0000136 -0.0016112 -0.0027973 -0.0002940 -0.0027967 -0.0003427 -0.0049945 0.0016205 0.0056501 0.0014840 0.0028433 0.0010269 0.0015618 -0.0004350 -0.0017197 0.0002119 0.0009179
0.0005444 -0.0003162 0.0000528 0.0000616 -0.0016390 -0.0026579 -0.0003022 -0.0026913 -0.0003628 -0.0048993 0.0015766 0.0055344 0.0014483 0.0028725 0.0009742 0.0018238 -0.0004098 -0.0015576 0.0000674 0.0009915
0.0005629 -0.0003368 0.0000053 0.0001072 -0.0016573 -0.0024830 -0.0003437 -0.0024993 -0.0003783 -0.0047054 0.0015902 0.0057391 0.0014601 0.0030829 0.0009818 0.0021217 -0.0004133 -0.0013402 0.0001323 0.0009639
0.0003333 -0.0000587 0.0000024 0.0001755 -0.0016275 -0.0023775 -0.0003284 -0.0024081 -0.0003717 -0.0046762 0.0016189 0.0058388 0.0014832 0.0030721 0.0010101 0.0018984 -0.0003850 -0.0014820 0.0001507 0.0008066
0.0003680 -0.0000927 0.0000122 0.0000558 -0.0016011 -0.0025014 -0.0002990 -0.0025549 -0.0003548 -0.0048531 0.0016153 0.0057024 0.0014829 0.0028549 0.0010202 0.0014644 -0.0003625 -0.0017606 0.0001757 0.0006921
0.0004458 -0.0003187 0.0000113 -0.0000554 -0.0015969 -0.0026085 -0.0003087 -0.0026443 -0.0003533 -0.0049107 0.0015940 0.0056448 0.0014581 0.0027506 0.0010138 0.0015100 -0.0003676 -0.0017178 0.0004258 0.0006155
0.0004581 -0.0003003 0.0000461 -0.0000127 -0.0015508 -0.0025149 -0.0003513 -0.0025784 -0.0003760 -0.0048386 0.0015389 0.0055235 0.0013783 0.0026612 0.0010346 0.0020041 -0.0004137 -0.0015187 0.0004800 0.0007903
0.0003768 -0.0000001 0.0001541 0.0001398 -0.0013236 -0.0020853 -0.0003882 -0.0023647 -0.0004313 -0.0047342 0.0014041 0.0049667 0.0012927 0.0026124 0.0010954 0.0025959 -0.0005062 -0.0012515 0.0002708 0.0012493
0.0004617 0.0002509 0.0002708 0.0003855 -0.0009494 -0.0013528 -0.0003775 -0.0019851 -0.0004768 -0.0045324 0.0012902 0.0043660 0.0012486 0.0025835 0.0011295 0.0025368 -0.0005638 -0.0011652 -0.0000326 0.0014737
0.0005456 0.0003872 0.0003645 0.0003905 -0.0006289 -0.0009680 -0.0003022 -0.0017347 -0.0004581 -0.0043215 0.0013198 0.0042726 0.0012709 0.0025815 0.0011419 0.0020190 -0.0005414 -0.0011973 0.0002829 0.0011529
0.0007693 0.0003387 0.0004390 0.0002939 -0.0004859 -0.0009525 -0.0002534 -0.0015885 -0.0004361 -0.0040947 0.0014473 0.0046991 0.0013827 0.0028401 0.0011387 0.0018467 -0.0004940 -0.0010362 0.0007274 0.0009761
0.0008836 0.0003905 0.0004467 0.0004326 -0.0005191 -0.0008714 -0.0002416 -0.0013395 -0.0004324 -0.0037446 0.0015840 0.0053273 0.0015041 0.0032253 0.0011432 0.0020046 -0.0004533 -0.0008324 0.0004332 0.0012716
0.0006675 0.0006326 0.0004004 0.0006429 -0.0006081 -0.0006720 -0.0002159 -0.0010189 -0.0004313 -0.0033418 0.0016913 0.0059228 0.0015621 0.0036230 0.0011179 0.0022493 -0.0003998 -0.0005991 0.0001939 0.0015439
0.0007428 0.0008065 0.0003839 0.0009053 -0.0005789 -0.0002599 -0.0001767 -0.0005839 -0.0004385 -0.0029461 0.0017424 0.0063103 0.0015677 0.0039061 0.0012042 0.0025305 -0.0003090 -0.0004054 0.0002011 0.0016710
0.0007855 0.0010209 0.0004268 0.0008839 0.0000518 0.0005954 0.0001946 0.0000087 -0.0000888 -0.0020776 0.0013703 0.0043366 0.0013146 0.0031118 0.0014762 0.0026783 -0.0001061 -0.0001654 0.0003837 0.0018278
0.0007844 0.0014543 0.0004868 0.0007629 0.0008894 0.0014841 0.0008049 0.0008635 0.0004575 -0.0007572 0.0008776 0.0015781 0.0009804 0.0020370 0.0016532 0.0028116 0.0000911 0.0002275 0.0006018 0.0019987
0.0008530 0.0019881 0.0005210 0.0009505 0.0011781 0.0019158 0.0011043 0.0016199 0.0007129 0.0002378 0.0007630 0.0010582 0.0009094 0.0019454 0.0016687 0.0030368 0.0001698 0.0005124 0.0007665 0.0021652
0.0010399 0.0021656 0.0005409 0.0012158 0.0011760 0.0021547 0.0011538 0.0020920 0.0008048 0.0009429 0.0007533 0.0011270 0.0009007 0.0021699 0.0016765 0.0033768 0.0001987 0.0007573 0.0008108 0.0024553
0.0012329 0.0022892 0.0005510 0.0014985 0.0011782 0.0024560 0.0011815 0.0025545 0.0008570 0.0015885 0.0008119 0.0014614 0.0009265 0.0024661 0.0017234 0.0035618 0.0002288 0.0008824 0.0006547 0.0026220
0.0011779 0.0024391 0.0005940 0.0015305 0.0011747 0.0024337 0.0011676 0.0025599 0.0008463 0.0017011 0.0009685 0.0020477 0.0010443 0.0027090 0.0017387 0.0031688 0.0002550 0.0006692 0.0004232 0.0026872
0.0012245 0.0024321 0.0006689 0.0013665 0.0011944 0.0021820 0.0011146 0.0022693 0.0007979 0.0015207 0.0011142 0.0026609 0.0011654 0.0029247 0.0016662 0.0028034 0.0002482 0.0005440 0.0004993 0.0024971
0.0012178 0.0025740 0.0006937 0.0014118 0.0012060 0.0022341 0.0010759 0.0023024 0.0007609 0.0016314 0.0010987 0.0028295 0.0011857 0.0030903 0.0015077 0.0027581 0.0002793 0.0007185 0.0006813 0.0024909
0.0011898 0.0027120 0.0006585 0.0015837 0.0011595 0.0024084 0.0010451 0.0024768 0.0007144 0.0018099 0.0010547 0.0029193 0.0011784 0.0032596 0.0012896 0.0026327 0.0003179 0.0009226 0.0008238 0.0026058
0.0011474 0.0028258 0.0006415 0.0017730 0.0011178 0.0026012 0.0009863 0.0026452 0.0006522 0.0019843 0.0010746 0.0032504 0.0011847 0.0033125 0.0011086 0.0021409 0.0003581 0.0009123 0.0010929 0.0023086
0.0011135 0.0029543 0.0006728 0.0016857 0.0011644 0.0025148 0.0009132 0.0024737 0.0006011 0.0018923 0.0010582 0.0032944 0.0011329 0.0029935 0.0009446 0.0013605 0.0004044 0.0006318 0.0010806 0.0020231
0.0011421 0.0028598 0.0007109 0.0014168 0.0012045 0.0021957 0.0008241 0.0021226 0.0005280 0.0016573 0.0010245 0.0032475 0.0010592 0.0026886 0.0007862 0.0011509 0.0004271 0.0005194 0.0009712 0.0019285
0.0011457 0.0027380 0.0007038 0.0013423 0.0012023 0.0021762 0.0007377 0.0020586 0.0004611 0.0017125 0.0009816 0.0032861 0.0010145 0.0025966 0.0007168 0.0013681 0.0004944 0.0006508 0.0006335 0.0021591
0.0011538 0.0027817 0.0006618 0.0014072 0.0011799 0.0023406 0.0006846 0.0021456 0.0004191 0.0018800 0.0009357 0.0033032 0.0009660 0.0026043 0.0006352 0.0015419 0.0005467 0.0008095 0.0002716 0.0024203
0.0011201 0.0028027 0.0006359 0.0015258 0.0011327 0.0024686 0.0006443 0.0022123 0.0003668 0.0019307 0.0008966 0.0032713 0.0009133 0.0024575 0.0005535 0.0013480 0.0005403 0.0006916 0.0003561 0.0019002
0.0009715 0.0025454 0.0006517 0.0013552 0.0010988 0.0021777 0.0005820 0.0019458 0.0003166 0.0016815 0.0008490 0.0030747 0.0008505 0.0020619 0.0004962 0.0007902 0.0004817 0.0003247 0.0003280 0.0013723
0.0008957 0.0021060 0.0006864 0.0010943 0.0010127 0.0016963 0.0005046 0.0015860 0.0002555 0.0013532 0.0008151 0.0029017 0.0007869 0.0018136 0.0004108 0.0006196 0.0004322 0.0002129 0.0002661 0.0012679
0.0008992 0.0017944 0.0006713 0.0010925 0.0008100 0.0014527 0.0004045 0.0014403 0.0001279 0.0011383 0.0007859 0.0028577 0.0007496 0.0018645 0.0003574 0.0008123 0.0004085 0.0003286 0.0002716 0.0012334
0.0007909 0.0017013 0.0005932 0.0011918 0.0004091 0.0011222 0.0002160 0.0012890 -0.0000594 0.0009811 0.0008069 0.0030787 0.0007725 0.0021293 0.0003444 0.0011661 0.0003960 0.0004868 0.0005314 0.0011630
0.0008384 0.0015442 0.0005014 0.0013046 -0.0000028 0.0008299 0.0000332 0.0011046 -0.0001813 0.0007886 0.0008147 0.0031459 0.0007820 0.0021192 0.0003694 0.0011183 0.0004017 0.0003761 0.0007069 0.0009375
0.0008604 0.0012084 0.0004623 0.0011770 -0.0002016 0.0004505 -0.0000576 0.0007699 -0.0002050 0.0004420 0.0007426 0.0027602 0.0007330 0.0017985 0.0003695 0.0007198 0.0003800 0.0000970 0.0004306 0.0009733
0.0007044 0.0009695 0.0004757 0.0009890 -0.0003209 0.0000156 -0.0001397 0.0004765 -0.0001941 0.0002189 0.0007377 0.0026833 0.0007243 0.0017313 0.0003680 0.0007033 0.0003327 0.0001060 0.0005430 0.0008247
0.0007269 0.0008257 0.0004919 0.0010193 -0.0004034 -0.0000933 -0.0002045 0.0004208 -0.0001896 0.0001818 0.0007730 0.0028662 0.0007267 0.0018477 0.0003644 0.0009135 0.0003069 0.0002436 0.0006456 0.0008128
0.0005636 0.0009602 0.0004927 0.0011290 -0.0004267 -0.0000298 -0.0002436 0.0004665 -0.0002064 0.0002376 0.0007685 0.0029689 0.0007049 0.0019891 0.0003095 0.0011647 0.0002676 0.0003751 0.0004646 0.0011209
0.0003966 0.0011293 0.0004566 0.0012279 -0.0004593 0.0001232 -0.0002560 0.0004942 -0.0002194 0.0002508 0.0007291 0.0029341 0.0007108 0.0019626 0.0002539 0.0010676 0.0002944 0.0002084 0.0005365 0.0008094
0.0003889 0.0010001 0.0003689 0.0010325 -0.0005353 -0.0000405 -0.0002341 0.0002042 -0.0002189 -0.0000312 0.0006485 0.0026013 0.0007029 0.0017028 0.0002293 0.0006469 0.0003647 -0.0001852 0.0006858 0.0002640
0.0003942 0.0006571 0.0003198 0.0007332 -0.0005555 -0.0003465 -0.0002121 -0.0001428 -0.0002167 -0.0003234 0.0006440 0.0025370 0.0006995 0.0016332 0.0002496 0.0005876 0.0003773 -0.0002634 0.0004333 0.0003949
0.0003728 0.0005664 0.0003116 0.0007185 -0.0005687 -0.0003426 -0.0002089 -0.0001867 -0.0002212 -0.0003661 0.0007011 0.0027946 0.0007344 0.0017909 0.0002446 0.0008216 0.0003971 -0.0001186 0.0006318 0.0003851
0.0004002 0.0006632 0.0002753 0.0008491 -0.0006344 -0.0002465 -0.0002139 -0.0001043 -0.0002264 -0.0002776 0.0007533 0.0030604 0.0007747 0.0020256 0.0002250 0.0011270 0.0003970 0.0000653 0.0006320 0.0005522
0.0004542 0.0007078 0.0002418 0.0010203 -0.0006971 -0.0001121 -0.0002103 0.0000099 -0.0002338 -0.0001892 0.0008359 0.0034343 0.0008483 0.0022536 0.0003097 0.0011852 0.0004016 0.0000540 0.0002776 0.0008589
0.0004386 0.0005912 0.0002141 0.0009515 -0.0007474 -0.0002700 -0.0001973 -0.0001905 -0.0002277 -0.0004059 0.0008772 0.0035023 0.0008874 0.0021965 0.0003794 0.0008730 0.0004229 -0.0002374 0.0003969 0.0005147
0.0004523 0.0003847 0.0001586 0.0007065 -0.0008703 -0.0006836 -0.0001911 -0.0005323 -0.0002013 -0.0006875 0.0008425 0.0032780 0.0008512 0.0020310 0.0003488 0.0008431 0.0004265 -0.0003561 0.0004060 0.0003696
0.0002082 0.0004608 0.0001206 0.0006925 -0.0010529 -0.0009044 -0.0002094 -0.0005802 -0.0001915 -0.0007158 0.0007784 0.0030516 0.0007987 0.0019488 0.0003298 0.0010851 0.0003655 -0.0002198 0.0002420 0.0006102
-0.0000683 0.0007095 0.0001682 0.0008766 -0.0011587 -0.0009375 -0.0002621 -0.0004705 -0.0002080 -0.0006517 0.0007681 0.0030329 0.0007729 0.0019808 0.0003232 0.0013195 0.0002520 -0.0000424 0.0001800 0.0008917
0.0001508 0.0007710 0.0002399 0.0011176 -0.0011782 -0.0008361 -0.0003263 -0.0003182 -0.0002367 -0.0005396 0.0008229 0.0032877 0.0007816 0.0021138 0.0003138 0.0013772 0.0001705 0.0000054 0.0001012 0.0009427
0.0002714 0.0007431 0.0003012 0.0010920 -0.0011373 -0.0009051 -0.0003585 -0.0004417 -0.0002536 -0.0007003 0.0008536 0.0032969 0.0007843 0.0020061 0.0003019 0.0010769 0.0001352 -0.0001812 0.0000637 0.0006910
0.0000933 0.0007860 0.0003426 0.0008701 -0.0010732 -0.0010965 -0.0003492 -0.0006954 -0.0002509 -0.0009678 0.0008456 0.0031174 0.0007760 0.0018654 0.0002948 0.0009754 0.0001332 -0.0002501 0.0000924 0.0005850
0.0000060 0.0008593 0.0003277 0.0008586 -0.0010457 -0.0010392 -0.0003287 -0.0006809 -0.0002461 -0.0009599 0.0008403 0.0031097 0.0007744 0.0019371 0.0003114 0.0011672 0.0001384 -0.0001156 0.0000175 0.0008323
-0.0000680 0.0009646 0.0003120 0.0009928 -0.0010478 -0.0008674 -0.0003260 -0.0005320 -0.0002455 -0.0008313 0.0008512 0.0032301 0.0007702 0.0021019 0.0002583 0.0014632 0.0001226 0.0000431 -0.0000535 0.0011340
0.0000749 0.0010242 0.0003043 0.0011740 -0.0010528 -0.0006714 -0.0003320 -0.0003296 -0.0002520 -0.0006445 0.0008791 0.0034445 0.0007855 0.0023323 0.0002740 0.0016682 0.0001039 0.0001793 0.0000948 0.0010520
0.0002542 0.0009326 0.0002999 0.0011571 -0.0010473 -0.0006617 -0.0003228 -0.0003530 -0.0002582 -0.0007200 0.0009170 0.0035278 0.0008330 0.0022949 0.0003669 0.0013623 0.0001055 0.0000277 -0.0001129 0.0010838
0.0003122 0.0006899 0.0002971 0.0009599 -0.0010467 -0.0008775 -0.0002999 -0.0005773 -0.0002571 -0.0009725 0.0009480 0.0034743 0.0008582 0.0021245 0.0003795 0.0010969 0.0001041 -0.0001305 0.0000630 0.0009250
0.0002419 0.0006688 0.0002858 0.0009327 -0.0010786 -0.0009382 -0.0002982 -0.0005817 -0.0002543 -0.0009856 0.0009676 0.0035281 0.0008611 0.0021839 0.0003813 0.0012419 0.0001023 -0.0000333 0.0004803 0.0007652
0.0002738 0.0006666 0.0002685 0.0010565 -0.0011168 -0.0008356 -0.0003043 -0.0004246 -0.0002580 -0.0008512 0.0009933 0.0037143 0.0008853 0.0023746 0.0003798 0.0015106 0.0000958 0.0001161 0.0000719 0.0012208
0.0002107 0.0008216 0.0002493 0.0012266 -0.0011493 -0.0007088 -0.0003045 -0.0002334 -0.0002646 -0.0006593 0.0010284 0.0039695 0.0009201 0.0026127 0.0004013 0.0018059 0.0000622 0.0003035 0.0000611 0.0013453
0.0001254 0.0009891 0.0002527 0.0013337 -0.0011805 -0.0006221 -0.0002939 -0.0001512 -0.0002632 -0.0006514 0.0010639 0.0041077 0.0009540 0.0026431 0.0004506 0.0016296 0.0000496 0.0002071 0.0001056 0.0012576
0.0003436 0.0007398 0.0002567 0.0012024 -0.0012082 -0.0007954 -0.0002815 -0.0003186 -0.0002538 -0.0008739 0.0010916 0.0040981 0.0009775 0.0024697 0.0004593 0.0012334 0.0000595 -0.0000518 -0.0001069 0.0012063
0.0003541 0.0006048 0.0002669 0.0010598 -0.0012227 -0.0009930 -0.0002920 -0.0004356 -0.0002511 -0.0009672 0.0010921 0.0040773 0.0009751 0.0023998 0.0004337 0.0012589 0.0000476 -0.0000414 -0.0002063 0.0011709
0.0002069 0.0007284 0.0002842 0.0011238 -0.0012165 -0.0009399 -0.0003086 -0.0003437 -0.0002525 -0.0008701 0.0010795 0.0041244 0.0009423 0.0024803 0.0004259 0.0014787 0.0000229 0.0001057 -0.0001368 0.0012759
0.0001283 0.0009509 0.0002949 0.0012766 -0.0012181 -0.0007916 -0.0003262 -0.0001705 -0.0002512 -0.0006838 0.0010698 0.0042426 0.0009073 0.0026354 0.0003844 0.0017589 -0.0000097 0.0002825 0.0001961 0.0012460
0.0003840 0.0009447 0.0003099 0.0014790 -0.0012349 -0.0006148 -0.0003339 0.0000463 -0.0002481 -0.0004263 0.0010743 0.0044347 0.0009091 0.0028158 0.0003744 0.0018955 -0.0000235 0.0003801 0.0001590 0.0012167
0.0003838 0.0008466 0.0003372 0.0014469 -0.0012359 -0.0006902 -0.0003397 0.0000038 -0.0002423 -0.0004630 0.0010944 0.0045046 0.0009381 0.0027194 0.0004083 0.0015677 -0.0000193 0.0001892 -0.0000996 0.0012300
0.0002678 0.0007819 0.0003739 0.0012230 -0.0012276 -0.0009759 -0.0003530 -0.0002192 -0.0002302 -0.0006782 0.0011112 0.0044955 0.0009561 0.0025205 0.0004009 0.0013331 -0.0000106 0.0000270 -0.0000553 0.0011660
0.0002506 0.0008349 0.0003905 0.0011845 -0.0012288 -0.0010427 -0.0003730 -0.0002056 -0.0002202 -0.0006188 0.0011098 0.0045777 0.0009381 0.0025522 0.0003459 0.0015244 -0.0000027 0.0001170 0.0000945 0.0010688
0.0002296 0.0008445 0.0003935 0.0012586 -0.0012264 -0.0009099 -0.0004051 -0.0000164 -0.0002181 -0.0003955 0.0010763 0.0046196 0.0008987 0.0026303 0.0002907 0.0017879 0.0000062 0.0002546 0.0000174 0.0012444
0.0003710 0.0006236 0.0003867 0.0013839 -0.0011982 -0.0007022 -0.0004310 0.0002200 -0.0002130 -0.0001087 0.0010326 0.0046517 0.0008688 0.0027305 0.0002720 0.0020915 -0.0000006 0.0004431 -0.0003039 0.0016444
0.0001140 0.0006712 0.0003727 0.0015171 -0.0011646 -0.0004748 -0.0004390 0.0004029 -0.0002065 0.0000469 0.0010026 0.0046422 0.0008592 0.0026722 0.0002861 0.0019488 0.0000051 0.0003823 -0.0000609 0.0012625
-0.0000024 0.0005662 0.0003755 0.0013573 -0.0011356 -0.0005883 -0.0004372 0.0002936 -0.0001970 -0.0000583 0.0009762 0.0045092 0.0008516 0.0024391 0.0002621 0.0015581 0.0000374 0.0000941 0.0000262 0.0009253
0.0000991 0.0002764 0.0003728 0.0011494 -0.0011182 -0.0007843 -0.0004489 0.0001715 -0.0001835 -0.0001020 0.0009395 0.0043925 0.0008152 0.0023698 0.0002222 0.0015799 0.0000363 0.0000270 -0.0003485 0.0010553
-0.0000436 0.0002654 0.0003530 0.0011842 -0.0011244 -0.0006944 -0.0004535 0.0002919 -0.0001752 0.0000443 0.0008953 0.0043346 0.0007568 0.0024541 0.0001761 0.0018340 0.0000058 0.0001151 -0.0001655 0.0008179
-0.0001960 0.0002840 0.0003210 0.0013098 -0.0011272 -0.0005263 -0.0004535 0.0004835 -0.0001733 0.0002580 0.0008617 0.0043350 0.0007268 0.0025713 0.0001440 0.0021197 -0.0000202 0.0002376 -0.0001393 0.0008838
-0.0002793 0.0003243 0.0003080 0.0014698 -0.0011297 -0.0003123 -0.0004604 0.0007035 -0.0001743 0.0004496 0.0008462 0.0043661 0.0007305 0.0025989 0.0001770 0.0020651 -0.0000330 0.0002135 -0.0002637 0.0008761
-0.0003183 0.0003299 0.0003114 0.0013636 -0.0011251 -0.0003926 -0.0004607 0.0006166 -0.0001685 0.0003238 0.0008399 0.0042664 0.0007298 0.0024249 0.0001723 0.0017407 -0.0000207 -0.0000122 -0.0001305 0.0004251
-0.0002069 0.0000874 0.0003090 0.0011374 -0.0011027 -0.0006213 -0.0004662 0.0004147 -0.0001613 0.0001339 0.0008243 0.0041530 0.0007124 0.0023287 0.0001377 0.0017306 -0.0000206 -0.0000863 -0.0001048 0.0003071
-0.0001414 0.0000295 0.0003307 0.0011313 -0.0008378 -0.0001632 -0.0004048 0.0005437 -0.0001494 0.0001806 0.0006276 0.0033958 0.0005610 0.0020439 0.0004715 0.0027772 -0.0000021 0.0001119 -0.0002988 0.0007606
0.0000146 0.0002721 0.0004449 0.0013528 0.0003208 0.0015195 0.0001232 0.0015753 0.0002193 0.0013671 0.0001676 0.0013228 0.0001705 0.0011261 0.0008528 0.0037637 0.0000290 0.0004642 -0.0004319 0.0013883
0.0000365 0.0008250 0.0005739 0.0017111 0.0013234 0.0030649 0.0007045 0.0029161 0.0006405 0.0028779 -0.0000820 -0.0000130 -0.0000173 0.0006867 0.0010117 0.0038701 0.0000110 0.0006488 -0.0004753 0.0017273
-0.0001286 0.0014164 0.0006843 0.0017664 0.0014916 0.0030738 0.0007986 0.0030969 0.0006735 0.0029497 0.0000698 0.0002458 0.0000948 0.0008972 0.0011568 0.0036536 -0.0001507 0.0004523 -0.0005104 0.0016142
-0.0001553 0.0015156 0.0007852 0.0016102 0.0013661 0.0024664 0.0006684 0.0026501 0.0005018 0.0023817 0.0003755 0.0014181 0.0003392 0.0016543 0.0010613 0.0034330 -0.0002932 0.0002918 -0.0003621 0.0013859
