-0.0000000 -0.0000000 -0.0000000 -0.0000000 -0.0000000 -0.0000000 -0.0000000 -0.0000000 -0.0000000 -0.0000000 -0.0000000 -0.0000000 -0.0000000 -0.0000000 -0.0000000 -0.0000000 -0.0000000 -0.0000000 -0.0000000 -0.0000000
-0.0000000 -0.0000000 -0.0000000 -0.0000000 -0.0000000 -0.0000000 -0.0000000 -0.0000000 -0.0000000 -0.0000000 -0.0000000 -0.0000000 -0.0000000 -0.0000000 -0.0000000 -0.0000000 -0.0000000 -0.0000000 -0.0000000 -0.0000000
0.0038885 -0.0024630 0.0001639 -0.0004265 -0.0008582 -0.0009017 0.0013056 -0.0050189 -0.0000002 0.0000779 -0.0000010 0.0000843 -0.0000031 0.0000599 -0.0000067 0.0000486 -0.0000034 0.0000393 -0.0000069 0.0000388
0.0056939 -0.0149509 0.0015301 0.0050125 0.0063357 -0.0216508 0.0012264 -0.0055675 -0.0000055 0.0001381 -0.0000062 0.0000984 0.0000033 0.0000455 -0.0000136 0.0000307 -0.0000007 0.0000466 -0.0000122 0.0000304
0.0056454 -0.0106944 -0.0015089 0.0113770 0.0015600 -0.0025358 -0.0042183 0.0017476 -0.0000093 0.0000142 -0.0000111 -0.0000877 0.0000203 -0.0001152 -0.0000134 -0.0001001 0.0000066 -0.0000242 -0.0000149 -0.0000369
-0.0005463 -0.0003716 -0.0007597 0.0069664 0.0005126 0.0067488 0.0036244 -0.0080428 -0.0000015 -0.0001754 -0.0000129 -0.0002440 0.0000160 -0.0002160 0.0000021 -0.0001572 0.0000103 -0.0000596 -0.0000229 -0.0000281
0.0015836 -0.0088211 -0.0007000 -0.0034259 0.0036715 -0.0053386 0.0081294 -0.0190267 0.0000049 -0.0001340 -0.0000129 -0.0001744 -0.0000060 -0.0001330 0.0000113 -0.0000759 0.0000049 -0.0000249 -0.0000273 0.0000259
-0.0100660 0.0140943 -0.0009960 0.0029143 0.0037748 -0.0012784 -0.0015596 0.0087491 -0.0000043 -0.0000269 -0.0000168 -0.0000633 -0.0000207 -0.0000414 0.0000088 -0.0000267 0.0000065 0.0000056 -0.0000107 0.0000305
-0.0102695 0.0156957 0.0060133 -0.0116879 0.0052704 -0.0015380 0.0006240 0.0068627 -0.0000082 0.0001066 -0.0000198 0.0000756 -0.0000129 0.0000364 -0.0000135 0.0000445 -0.0000006 0.0000604 -0.0000156 0.0000564
-0.0005988 0.0008774 0.0022091 -0.0158708 0.0045152 -0.0109148 0.0027533 -0.0167127 -0.0000150 0.0002301 -0.0000208 0.0001706 -0.0000056 0.0000743 -0.0000295 0.0000521 -0.0000046 0.0000824 -0.0000302 0.0000491
0.0018725 -0.0044140 0.0021571 -0.0058451 -0.0017671 -0.0017379 0.0013670 -0.0042128 -0.0000245 0.0000997 -0.0000244 -0.0000151 0.0000036 -0.0000714 -0.0000178 -0.0001187 -0.0000025 0.0000006 -0.0000470 -0.0000454
0.0027811 -0.0119583 0.0043170 -0.0118273 -0.0025923 0.0026763 0.0039418 -0.0016502 -0.0000267 -0.0001510 -0.0000262 -0.0002528 0.0000068 -0.0002204 0.0000030 -0.0002393 0.0000058 -0.0000835 -0.0000609 -0.0001137
0.0040317 -0.0099216 0.0049681 -0.0220255 -0.0023558 -0.0033560 0.0038991 -0.0103540 -0.0000207 -0.0001487 -0.0000194 -0.0001952 -0.0000069 -0.0001832 0.0000150 -0.0001926 0.0000109 -0.0000711 -0.0000536 -0.0001060
0.0026943 -0.0012008 0.0228637 -0.0594238 -0.0009668 -0.0011749 0.0124301 -0.0320024 -0.0000207 -0.0000300 -0.0000159 -0.0000461 -0.0000149 -0.0000847 -0.0000019 -0.0000999 0.0000066 -0.0000130 -0.0000541 -0.0000496
0.0045514 -0.0079382 0.0126423 -0.0407523 0.0002112 -0.0007158 0.0059582 -0.0134421 -0.0000247 0.0001160 -0.0000123 0.0001300 -0.0000160 0.0000440 -0.0000295 0.0000161 -0.0000048 0.0000644 -0.0000433 0.0000302
-0.0007083 -0.0003736 -0.0016240 -0.0218612 0.0015346 -0.0087072 -0.0026001 0.0003610 -0.0000263 0.0002517 -0.0000090 0.0002841 -0.0000061 0.0001320 -0.0000450 0.0001062 -0.0000056 0.0001434 -0.0000213 0.0000922
0.0026079 -0.0025508 0.0029128 -0.0163677 0.0058999 -0.0160896 0.0052461 -0.0236163 -0.0000289 0.0001822 -0.0000214 0.0001674 -0.0000093 0.0000281 -0.0000483 0.0000009 0.0000139 0.0001376 -0.0000235 0.0000236
0.0117045 -0.0225166 0.0089034 -0.0213184 -0.0019113 0.0042617 0.0097998 -0.0284118 -0.0000224 -0.0000633 -0.0000346 -0.0001452 -0.0000286 -0.0002017 -0.0000325 -0.0001870 0.0000363 0.0000784 -0.0000431 -0.0000871
0.0087066 -0.0376374 -0.0062995 0.0084999 -0.0042842 0.0084018 0.0034181 -0.0101908 -0.0000051 -0.0001479 -0.0000221 -0.0002366 -0.0000578 -0.0003303 0.0001213 0.0001413 0.0000478 0.0000559 0.0000408 0.0001918
-0.0040921 -0.0021199 -0.0047264 0.0145407 -0.0008807 -0.0000101 -0.0008366 -0.0082844 0.0000105 -0.0000493 0.0000089 -0.0001194 -0.0000871 -0.0003836 0.0002297 0.0004789 0.0000588 0.0001359 0.0001563 0.0004843
-0.0019402 -0.0003166 0.0078581 -0.0114827 -0.0053292 0.0155915 -0.0097990 0.0006527 0.0000192 0.0001367 0.0000172 0.0000803 -0.0000852 -0.0002580 0.0001407 0.0004716 0.0000803 0.0003305 0.0001257 0.0004210
0.0088434 -0.0216078 0.0060068 -0.0110741 -0.0053498 0.0164562 -0.0106542 0.0067423 0.0000235 0.0003215 -0.0000049 0.0002623 -0.0000561 0.0000008 0.0000547 0.0005257 0.0000951 0.0004982 0.0000516 0.0003327
0.0053858 -0.0071536 0.0054679 -0.0078304 -0.0010637 0.0053449 0.0029294 -0.0095735 0.0000301 0.0004130 -0.0000306 0.0003071 -0.0000371 0.0000876 0.0000122 0.0004186 0.0001008 0.0005109 -0.0000110 0.0001857
0.0009332 0.0045589 -0.0005457 0.0020144 0.0028434 -0.0059282 0.0041543 -0.0089016 0.0000386 0.0002283 -0.0000383 0.0001168 -0.0000378 -0.0000600 -0.0000035 0.0001215 0.0001163 0.0003979 -0.0000692 -0.0000223
-0.0031267 0.0095224 -0.0023986 0.0083360 0.0132809 -0.0260070 -0.0031307 0.0142337 0.0000501 0.0000287 -0.0000266 -0.0000085 -0.0000532 -0.0001383 -0.0000188 -0.0000684 0.0001360 0.0003589 -0.0001075 -0.0001344
-0.0072984 0.0218669 0.0020436 -0.0021712 0.0151613 -0.0344586 -0.0015113 0.0128875 0.0000556 0.0000866 -0.0000178 0.0000798 -0.0000602 -0.0000562 -0.0000494 -0.0000559 0.0001281 0.0003918 -0.0001430 -0.0001491
-0.0074737 0.0198826 -0.0013711 0.0017698 -0.0034540 -0.0002405 0.0054347 -0.0140145 0.0000488 0.0002075 -0.0000078 0.0002309 -0.0000672 0.0000533 -0.0000744 0.0000420 0.0001073 0.0004025 -0.0001241 -0.0001164
-0.0011929 0.0071842 0.0045991 -0.0101227 -0.0031479 -0.0000871 0.0081915 -0.0167817 0.0002368 0.0005871 0.0001281 0.0005505 -0.0000433 0.0000310 0.0004429 0.0013628 -0.0000681 0.0000870 0.0000071 0.0003638
-0.0073124 0.0094707 -0.0016901 -0.0049561 -0.0020833 -0.0004824 0.0049137 -0.0079321 0.0011771 0.0020870 0.0007439 0.0014475 0.0002104 0.0003210 0.0009871 0.0023368 -0.0003667 -0.0006603 -0.0001162 0.0003174
-0.0144532 0.0101546 -0.0088712 0.0077340 -0.0000854 -0.0036111 -0.0038966 0.0017854 0.0016435 0.0027281 0.0009325 0.0016398 0.0003083 0.0004875 0.0006855 0.0012027 -0.0004781 -0.0011171 -0.0003943 -0.0003456
-0.0026486 0.0022733 0.0034716 -0.0077313 0.0080813 -0.0246687 -0.0064502 0.0110012 0.0011995 0.0018795 0.0004924 0.0009807 0.0001567 0.0003557 0.0002420 0.0002010 -0.0004276 -0.0010103 -0.0004588 -0.0005416
0.0013468 -0.0033130 0.0053062 -0.0132603 -0.0020297 0.0000899 0.0002132 -0.0014696 0.0008122 0.0013366 0.0002676 0.0007354 0.0001207 0.0005141 0.0001076 0.0001146 -0.0003592 -0.0007138 -0.0004596 -0.0006516
-0.0049922 0.0151817 -0.0015759 -0.0051689 -0.0046841 0.0081309 0.0041664 -0.0187081 0.0005111 0.0010003 0.0001537 0.0006706 0.0000997 0.0006226 0.0000131 0.0000712 -0.0003052 -0.0004772 -0.0004678 -0.0007248
-0.0048235 0.0116129 -0.0042568 0.0006651 -0.0017685 0.0034007 0.0022173 -0.0143861 0.0003442 0.0008897 0.0001057 0.0007518 0.0001013 0.0007132 -0.0000330 0.0000734 -0.0002952 -0.0003540 -0.0005134 -0.0007623
0.0078024 -0.0277962 0.0038819 -0.0063313 -0.0005312 0.0049396 0.0152132 -0.0382257 0.0002540 0.0006483 0.0000651 0.0005964 0.0000951 0.0006014 -0.0000530 -0.0000893 -0.0002771 -0.0003939 -0.0005698 -0.0008503
0.0069734 -0.0148218 0.0027611 0.0010905 -0.0002824 0.0039501 0.0061357 -0.0119696 0.0001941 0.0002666 0.0000322 0.0002740 0.0000721 0.0003551 -0.0000521 -0.0003408 -0.0002560 -0.0005097 -0.0006252 -0.0009470
0.0021043 -0.0011896 0.0011124 0.0024502 -0.0039180 0.0002978 -0.0061710 0.0094472 0.0001470 0.0001310 0.0000096 0.0001748 0.0000383 0.0002438 -0.0000692 -0.0004161 -0.0002462 -0.0004990 -0.0006211 -0.0009687
-0.0031109 0.0066841 0.0081734 -0.0140433 -0.0067936 0.0124265 -0.0020201 -0.0056160 0.0001095 0.0001781 -0.0000123 0.0002010 0.0000026 0.0002238 -0.0001096 -0.0003910 -0.0002250 -0.0004187 -0.0005605 -0.0009476
0.0019567 -0.0012770 0.0130162 -0.0234626 -0.0084473 0.0181176 0.0123651 -0.0353978 0.0000852 0.0002458 -0.0000456 0.0002553 -0.0000199 0.0002506 -0.0001492 -0.0003294 -0.0002140 -0.0003054 -0.0005265 -0.0008761
0.0018717 -0.0070448 0.0144905 -0.0268020 -0.0069729 0.0092988 0.0013545 -0.0053326 0.0000653 0.0003366 -0.0000772 0.0003380 -0.0000219 0.0002902 -0.0001652 -0.0003006 -0.0001965 -0.0002129 -0.0005167 -0.0008080
-0.0074845 0.0031935 0.0091640 -0.0139861 0.0009292 -0.0100600 -0.0030842 0.0072150 0.0000432 0.0001695 -0.0000954 0.0001345 -0.0000170 0.0001173 -0.0001487 -0.0004583 -0.0001527 -0.0002621 -0.0005205 -0.0008343
0.0049378 -0.0213943 0.0090185 -0.0140864 0.0031436 -0.0087035 0.0041359 -0.0031156 0.0000227 -0.0001804 -0.0001118 -0.0002342 -0.0000356 -0.0001389 -0.0001276 -0.0006442 -0.0001230 -0.0003585 -0.0005353 -0.0008747
0.0120534 -0.0271297 0.0052061 -0.0042786 -0.0034586 0.0083977 0.0042270 -0.0024811 0.0000254 -0.0002821 -0.0000820 -0.0003189 -0.0000398 -0.0002770 0.0003665 0.0004905 -0.0002071 -0.0006308 -0.0003089 -0.0002672
-0.0035627 0.0057965 0.0081024 -0.0123963 0.0001522 0.0012959 0.0010853 0.0041609 0.0010383 0.0013712 0.0007983 0.0009703 0.0003947 0.0004989 0.0009187 0.0016160 -0.0004366 -0.0012271 -0.0001934 0.0000682
-0.0026833 -0.0012083 0.0137463 -0.0420530 0.0064438 -0.0137344 0.0046592 0.0035698 0.0016534 0.0025310 0.0011500 0.0018196 0.0005336 0.0008310 0.0006085 0.0008160 -0.0005422 -0.0013996 -0.0004770 -0.0006044
0.0067608 -0.0224967 0.0106047 -0.0367438 -0.0015461 0.0034324 0.0066051 -0.0025853 0.0009526 0.0015805 0.0003949 0.0010097 0.0001691 0.0002366 0.0000543 -0.0002543 -0.0004102 -0.0009760 -0.0007147 -0.0011426
-0.0056267 0.0065815 0.0037169 -0.0075712 -0.0011114 0.0064601 0.0083345 -0.0154449 0.0002788 0.0004507 0.0000043 0.0002444 0.0000654 0.0000359 -0.0001046 -0.0006495 -0.0002517 -0.0006353 -0.0007772 -0.0013337
-0.0061805 0.0031278 -0.0073125 0.0150444 0.0087176 -0.0136849 0.0160096 -0.0408490 -0.0000407 -0.0003178 -0.0000752 -0.0001542 0.0000533 -0.0001482 -0.0001306 -0.0008418 -0.0001340 -0.0004900 -0.0007685 -0.0013920
-0.0054277 0.0063498 -0.0064898 0.0086485 0.0035529 -0.0009743 -0.0007836 -0.0014620 -0.0001264 -0.0005023 -0.0000861 -0.0001812 0.0000388 -0.0001401 -0.0001400 -0.0008496 -0.0000820 -0.0004062 -0.0007203 -0.0013820
-0.0022845 0.0154404 -0.0016375 -0.0008975 0.0014141 -0.0014980 -0.0093390 0.0157711 -0.0001675 -0.0004626 -0.0000900 -0.0000670 0.0000173 -0.0000504 -0.0001723 -0.0008021 -0.0000738 -0.0003587 -0.0006747 -0.0013517
-0.0017855 0.0136646 0.0051092 -0.0122707 0.0065259 -0.0104662 0.0059687 -0.0078860 -0.0002034 -0.0003992 -0.0000988 0.0000735 0.0000137 0.0000215 -0.0001754 -0.0006531 -0.0000436 -0.0002519 -0.0006227 -0.0011524
-0.0081074 0.0131871 0.0007502 0.0054248 0.0026992 0.0018955 0.0054484 -0.0059999 -0.0002228 -0.0003215 -0.0000155 0.0003073 0.0000393 0.0000554 0.0001716 0.0002009 -0.0000593 -0.0002831 -0.0004416 -0.0005845
-0.0049507 0.0098492 -0.0038314 0.0129197 -0.0017433 0.0016076 -0.0046889 -0.0006531 -0.0000252 -0.0002597 0.0002438 0.0005054 0.0001112 -0.0000234 0.0005215 0.0007970 -0.0001036 -0.0005672 -0.0002818 -0.0002074
0.0032503 0.0016696 -0.0025991 0.0045051 0.0000949 -0.0044678 0.0053355 -0.0148255 0.0005001 0.0001243 0.0005073 0.0005855 0.0001492 -0.0001514 0.0005891 0.0006845 -0.0001906 -0.0009409 -0.0003484 -0.0003759
0.0025353 0.0009863 -0.0035616 -0.0014318 -0.0015592 0.0023725 0.0036431 -0.0002944 0.0006015 0.0002311 0.0003831 0.0004579 0.0001254 -0.0001184 0.0003843 0.0002337 -0.0002056 -0.0009297 -0.0005390 -0.0010016
-0.0006736 0.0032469 0.0060389 -0.0199730 0.0029815 -0.0065421 0.0015808 0.0020581 0.0002596 -0.0001203 0.0000970 0.0002854 0.0000737 0.0000407 0.0000512 -0.0003303 -0.0001047 -0.0005551 -0.0006153 -0.0012959
-0.0023814 0.0072443 0.0001440 0.0109034 0.0082346 -0.0155274 0.0063855 -0.0052290 0.0001109 -0.0001611 0.0000292 0.0003486 0.0000775 0.0001794 -0.0000460 -0.0003948 -0.0000688 -0.0003788 -0.0006559 -0.0013937
0.0005828 0.0041019 -0.0029111 0.0160194 -0.0012293 -0.0059863 0.0019835 0.0042595 0.0000734 -0.0000404 0.0000157 0.0004909 0.0001061 0.0003001 -0.0000536 -0.0003719 -0.0000642 -0.0003398 -0.0007667 -0.0016097
0.0098846 -0.0231198 0.0138357 -0.0245796 0.0126446 -0.0304912 -0.0024458 0.0141665 0.0000525 -0.0001635 0.0000017 0.0003622 0.0001027 0.0002049 -0.0000489 -0.0005026 -0.0000460 -0.0004089 -0.0008029 -0.0016569
0.0018173 -0.0083133 0.0082494 -0.0100149 0.0100070 -0.0179388 0.0052292 -0.0067159 0.0000208 -0.0004903 -0.0000047 0.0000635 0.0000784 -0.0000089 -0.0000643 -0.0006930 -0.0000234 -0.0005106 -0.0008049 -0.0017575
0.0032317 -0.0119915 -0.0015156 0.0007268 -0.0014278 -0.0019199 0.0069818 -0.0210422 -0.0000054 -0.0005635 -0.0000135 0.0000151 0.0000505 -0.0000398 -0.0000807 -0.0007078 -0.0000249 -0.0005290 -0.0007439 -0.0016187
0.0114331 -0.0320861 0.0033238 -0.0179776 0.0030062 -0.0097405 0.0036477 -0.0010585 -0.0000375 -0.0004721 -0.0000308 0.0000776 0.0000511 -0.0000182 -0.0000376 -0.0004800 -0.0000528 -0.0005301 -0.0006583 -0.0014180
0.0102566 -0.0247373 -0.0005278 -0.0071225 -0.0013985 0.0063993 0.0065276 -0.0081221 -0.0000848 -0.0003768 -0.0000410 0.0002089 0.0000680 0.0000370 -0.0000075 -0.0002890 -0.0000870 -0.0005132 -0.0006852 -0.0012457
0.0060231 -0.0198229 -0.0020222 -0.0019477 -0.0023589 0.0098112 0.0007140 -0.0018039 -0.0001258 -0.0002620 -0.0000380 0.0004207 0.0000609 0.0001625 -0.0000416 -0.0003277 -0.0000908 -0.0004612 -0.0007452 -0.0011376
0.0081034 -0.0150947 0.0047615 0.0010391 -0.0038249 0.0072226 -0.0075089 0.0180455 -0.0001512 -0.0003862 -0.0000393 0.0003071 0.0000457 0.0000848 -0.0000491 -0.0004860 -0.0000672 -0.0004782 -0.0007401 -0.0011747
0.0003500 0.0078147 0.0035752 0.0074325 -0.0078020 0.0089430 -0.0080022 0.0175765 -0.0001585 -0.0006389 -0.0000372 0.0000371 0.0000404 -0.0000605 -0.0000568 -0.0006102 -0.0000532 -0.0005144 -0.0006805 -0.0012595
-0.0137126 0.0265820 -0.0072682 0.0182760 -0.0025962 0.0047813 -0.0003012 -0.0007903 -0.0001555 -0.0006498 -0.0000268 0.0000581 0.0000331 -0.0000424 -0.0000794 -0.0006058 -0.0000469 -0.0004556 -0.0006514 -0.0012675
-0.0101266 0.0162502 -0.0058226 0.0132745 0.0017206 0.0050021 0.0054597 -0.0084695 -0.0001598 -0.0005188 -0.0000129 0.0002268 0.0000409 0.0000601 -0.0001072 -0.0005488 -0.0000328 -0.0003443 -0.0006610 -0.0011924
-0.0006957 -0.0043865 -0.0003495 0.0014340 0.0031132 -0.0014265 0.0002953 0.0058184 -0.0001656 -0.0003699 0.0000021 0.0004243 0.0000523 0.0002031 -0.0001285 -0.0004425 -0.0000242 -0.0002260 -0.0007074 -0.0010539
0.0054415 -0.0110502 -0.0039710 -0.0020396 -0.0045545 0.0006411 -0.0029863 0.0080874 -0.0001715 -0.0002181 0.0000073 0.0005661 0.0000716 0.0002662 -0.0001140 -0.0004339 -0.0000035 -0.0002155 -0.0007488 -0.0010297
0.0114675 -0.0203829 -0.0083816 0.0050699 -0.0036594 0.0011005 0.0037600 -0.0100007 -0.0001776 -0.0003353 0.0000150 0.0004244 0.0000752 0.0001955 -0.0000854 -0.0005396 0.0000029 -0.0003195 -0.0007419 -0.0011120
0.0119518 -0.0238380 -0.0071269 0.0057945 -0.0007071 -0.0001452 0.0017847 -0.0064737 -0.0001801 -0.0005229 0.0000284 0.0002605 0.0000719 0.0001753 -0.0000815 -0.0005726 -0.0000174 -0.0003811 -0.0007218 -0.0011470
0.0024260 0.0022492 -0.0003255 -0.0128028 0.0011673 -0.0033710 -0.0051008 0.0040949 -0.0001791 -0.0004714 0.0000421 0.0003397 0.0000826 0.0002877 -0.0000908 -0.0005179 -0.0000341 -0.0003585 -0.0007044 -0.0011065
-0.0135937 0.0231898 0.0025605 -0.0137655 0.0039686 -0.0050764 0.0005112 -0.0046252 -0.0001825 -0.0003615 0.0000532 0.0004805 0.0001150 0.0004085 -0.0001014 -0.0004467 -0.0000459 -0.0003183 -0.0006947 -0.0010427
-0.0271027 0.0228024 -0.0027992 0.0060269 -0.0008704 0.0007584 0.0003137 -0.0102643 -0.0001940 -0.0002276 0.0000638 0.0006561 0.0001337 0.0005316 -0.0001040 -0.0003634 -0.0000493 -0.0002438 -0.0007104 -0.0009368
-0.0071399 -0.0157567 0.0049198 -0.0021307 0.0078395 -0.0192431 -0.0049144 0.0000349 -0.0002035 -0.0003022 0.0000650 0.0005862 0.0001226 0.0005022 -0.0000893 -0.0004239 -0.0000314 -0.0002197 -0.0007215 -0.0008652
-0.0020998 -0.0047806 0.0046422 -0.0040540 0.0092387 -0.0212743 0.0009629 -0.0064696 -0.0002034 -0.0005247 0.0000739 0.0003725 0.0001152 0.0004194 -0.0000762 -0.0005153 0.0000028 -0.0002474 -0.0006966 -0.0009157
0.0021268 -0.0041880 -0.0033788 0.0096806 0.0024470 -0.0083423 0.0005206 -0.0119731 -0.0002008 -0.0005316 0.0000915 0.0003568 0.0001115 0.0004600 -0.0000643 -0.0004841 0.0000187 -0.0002272 -0.0006686 -0.0009408
0.0075882 -0.0105890 -0.0092859 0.0183014 0.0048116 -0.0246031 0.0021709 0.0036044 -0.0001953 -0.0003891 0.0000893 0.0004467 0.0001219 0.0005130 -0.0000695 -0.0004084 0.0000203 -0.0001468 -0.0006426 -0.0009301
0.0113679 -0.0187749 -0.0099428 0.0158835 0.0006298 -0.0192340 0.0013628 0.0072393 -0.0001908 -0.0002418 0.0000716 0.0005321 0.0001361 0.0005886 -0.0000105 -0.0001470 0.0000273 -0.0000721 -0.0006383 -0.0008705
0.0140522 -0.0375853 -0.0065691 0.0128700 -0.0011168 -0.0070728 -0.0051895 0.0063518 -0.0002070 -0.0001824 0.0000603 0.0004996 0.0001477 0.0006115 0.0000653 -0.0000040 0.0000340 -0.0000994 -0.0006599 -0.0009314
0.0108175 -0.0252769 0.0008577 0.0055036 0.0045266 -0.0136908 -0.0060480 0.0067229 -0.0002167 -0.0004226 0.0000661 0.0002912 0.0001699 0.0005340 0.0000799 -0.0001805 0.0000455 -0.0002350 -0.0006716 -0.0011603
0.0057284 -0.0084021 0.0056576 -0.0014316 0.0017670 -0.0026312 -0.0063642 0.0094854 -0.0002138 -0.0006359 0.0000837 0.0001747 0.0001736 0.0005371 0.0000875 -0.0002745 0.0000633 -0.0003097 -0.0006197 -0.0012546
0.0094903 -0.0113820 0.0012611 -0.0009728 -0.0033938 0.0067339 -0.0031972 0.0050453 -0.0002175 -0.0005851 0.0000972 0.0002507 0.0001667 0.0006430 0.0000772 -0.0002401 0.0000492 -0.0002990 -0.0006036 -0.0012241
0.0123427 -0.0128545 0.0017234 -0.0004078 -0.0008768 0.0021372 0.0061905 -0.0114291 -0.0002214 -0.0004587 0.0001037 0.0003931 0.0001724 0.0007717 0.0000507 -0.0002004 0.0000154 -0.0002717 -0.0006487 -0.0011701
0.0022047 -0.0044341 0.0040969 0.0005357 -0.0008857 0.0037538 0.0044370 -0.0107976 -0.0002231 -0.0002907 0.0001118 0.0005737 0.0002024 0.0008936 0.0000239 -0.0001599 0.0000042 -0.0002061 -0.0006794 -0.0011072
0.0055858 -0.0137719 0.0083628 -0.0109787 -0.0008189 0.0042545 -0.0026677 0.0030843 -0.0002328 -0.0003635 0.0001123 0.0004826 0.0002337 0.0008179 0.0000275 -0.0002746 0.0000151 -0.0002714 -0.0006855 -0.0011542
0.0084593 -0.0094708 0.0092515 -0.0152918 0.0043312 -0.0081557 0.0057540 -0.0128122 -0.0002284 -0.0006475 0.0001185 0.0001996 0.0002236 0.0006388 0.0000378 -0.0004466 0.0000328 -0.0003926 -0.0006807 -0.0012341
0.0048968 0.0001801 0.0092496 -0.0140914 0.0000031 -0.0012193 0.0210410 -0.0561245 -0.0002089 -0.0007007 0.0001266 0.0001613 0.0002020 0.0006166 0.0000342 -0.0004569 0.0000441 -0.0003835 -0.0006584 -0.0012241
0.0022461 0.0089623 0.0007034 0.0017710 -0.0056767 0.0122843 0.0032840 -0.0090716 -0.0001957 -0.0005549 0.0001245 0.0002935 0.0001892 0.0006796 0.0000160 -0.0004060 0.0000583 -0.0002715 -0.0006272 -0.0011932
-0.0038828 0.0156922 0.0020003 -0.0055727 -0.0026639 0.0056727 0.0032430 -0.0026063 -0.0001915 -0.0003847 0.0001262 0.0004588 0.0002084 0.0007617 -0.0000127 -0.0003377 0.0000740 -0.0001250 -0.0006355 -0.0011906
-0.0034676 0.0045026 0.0015528 -0.0003198 0.0012392 -0.0023142 0.0004488 0.0007853 -0.0001895 -0.0002224 0.0001317 0.0005616 0.0002257 0.0007882 -0.0000168 -0.0003239 0.0000978 -0.0000701 -0.0006775 -0.0012612
0.0034985 -0.0211692 0.0009109 0.0000766 0.0010727 -0.0005806 -0.0029874 0.0091037 -0.0001795 -0.0003581 0.0001327 0.0004012 0.0002176 0.0006722 0.0000051 -0.0004144 0.0001267 -0.0001105 -0.0007130 -0.0013323
0.0056912 -0.0124880 0.0030255 -0.0108695 -0.0033282 0.0097724 -0.0050181 0.0118047 -0.0001634 -0.0005521 0.0001425 0.0002682 0.0001967 0.0005919 0.0000281 -0.0004581 0.0001632 -0.0000852 -0.0006910 -0.0013366
0.0061341 -0.0050008 -0.0022832 -0.0061974 -0.0084533 0.0105881 -0.0067035 0.0101595 -0.0001445 -0.0004831 0.0001525 0.0003471 0.0001793 0.0006031 0.0000256 -0.0004080 0.0001959 0.0000202 -0.0006180 -0.0013166
-0.0059486 0.0121694 -0.0031751 -0.0034780 -0.0005494 -0.0186022 0.0037837 -0.0041533 -0.0001303 -0.0003018 0.0001468 0.0004702 0.0001749 0.0006222 0.0000054 -0.0003305 0.0002055 0.0001268 -0.0005841 -0.0012778
-0.0135372 0.0227623 -0.0066720 0.0091138 0.0127515 -0.0403610 -0.0017170 0.0075611 -0.0001182 -0.0000565 0.0001422 0.0006429 0.0001769 0.0007073 -0.0000078 -0.0002298 0.0002285 0.0002611 -0.0005950 -0.0011331
-0.0009339 0.0058124 -0.0156630 0.0213184 -0.0035311 0.0023193 -0.0080516 0.0128551 -0.0001116 -0.0001016 0.0001379 0.0005754 0.0001817 0.0006597 -0.0000070 -0.0002618 0.0002701 0.0003017 -0.0005935 -0.0010779
0.0024999 -0.0043891 -0.0129189 0.0121836 -0.0062420 0.0078613 -0.0069946 0.0072615 -0.0000988 -0.0002874 0.0001367 0.0003938 0.0001832 0.0005281 0.0000006 -0.0003220 0.0002912 0.0002611 -0.0005944 -0.0011217
0.0069356 -0.0184210 0.0014120 -0.0096896 -0.0027538 -0.0015143 -0.0090765 0.0121989 -0.0000823 -0.0002481 0.0001531 0.0004406 0.0001738 0.0005687 0.0000196 -0.0002514 0.0003088 0.0002977 -0.0005274 -0.0010495
0.0077257 -0.0110259 -0.0024888 0.0039707 -0.0083915 0.0144942 -0.0039726 -0.0010524 -0.0000750 -0.0001244 0.0001732 0.0005892 0.0001597 0.0006699 0.0000280 -0.0001606 0.0003156 0.0003616 -0.0004588 -0.0009398
-0.0004513 0.0063310 -0.0034534 0.0103997 -0.0064766 0.0144391 -0.0004000 -0.0036352 -0.0000753 0.0000306 0.0001810 0.0007671 0.0001573 0.0007604 0.0000048 -0.0000619 0.0003042 0.0004591 -0.0004683 -0.0008474
-0.0001173 -0.0022775 0.0001797 0.0055632 0.0046194 -0.0056445 -0.0026960 0.0072423 -0.0000801 0.0000005 0.0001699 0.0007012 0.0001708 0.0006988 -0.0000014 -0.0000847 0.0003127 0.0004584 -0.0005085 -0.0008460
0.0009255 -0.0025923 -0.0038006 0.0131042 0.0000664 0.0050809 -0.0005301 0.0037680 -0.0000717 -0.0002012 0.0001614 0.0004947 0.0001903 0.0005569 0.0000141 -0.0001722 0.0003475 0.0003990 -0.0005153 -0.0008882
-0.0042530 0.0140445 -0.0042887 0.0120226 -0.0010291 0.0063464 0.0008220 0.0001606 -0.0000602 -0.0002279 0.0001722 0.0005152 0.0001760 0.0005516 0.0000211 -0.0001550 0.0003657 0.0004345 -0.0005136 -0.0008217
-0.0067308 0.0115847 0.0045180 -0.0146106 0.0019656 -0.0071959 0.0035306 -0.0078096 -0.0000560 -0.0000808 0.0001788 0.0006472 0.0001587 0.0006563 0.0000129 -0.0000669 0.0003425 0.0004744 -0.0004811 -0.0007799
-0.0024325 0.0047896 -0.0088708 0.0111313 -0.0037413 0.0062836 0.0030823 0.0009964 -0.0000529 0.0001040 0.0001854 0.0008217 0.0001562 0.0007857 -0.0000072 0.0000453 0.0003213 0.0005445 -0.0004406 -0.0007267
-0.0021176 0.0136871 -0.0148852 0.0204690 -0.0001091 0.0016835 -0.0006458 0.0113017 -0.0000593 0.0000531 0.0001907 0.0007657 0.0001758 0.0007313 -0.0000175 -0.0000110 0.0003475 0.0005619 -0.0004377 -0.0007194
-0.0072706 0.0181468 -0.0040797 0.0026986 -0.0102476 0.0093045 0.0023605 -0.0015778 -0.0000573 -0.0001749 0.0001838 0.0005168 0.0001998 0.0005664 0.0000103 -0.0001037 0.0003798 0.0005170 -0.0004354 -0.0007768
-0.0080064 0.0140903 0.0033646 0.0000956 -0.0015826 -0.0003078 0.0036935 -0.0127719 -0.0000108 -0.0002105 0.0001798 0.0004417 0.0001719 0.0004843 0.0001121 0.0001447 0.0003855 0.0005260 -0.0003797 -0.0005334
-0.0041849 0.0068186 0.0023177 0.0020725 0.0058870 -0.0061294 -0.0024868 0.0070082 0.0000708 -0.0000597 0.0001810 0.0004807 0.0001241 0.0005422 0.0001912 0.0004350 0.0003706 0.0005465 -0.0003041 -0.0003177
-0.0099322 0.0107853 -0.0066601 0.0128365 -0.0023875 0.0054786 -0.0045759 0.0148460 0.0001159 0.0001591 0.0001793 0.0006291 0.0001168 0.0006986 0.0001712 0.0004756 0.0003666 0.0005979 -0.0002877 -0.0004223
-0.0065547 0.0021321 -0.0016117 0.0062832 -0.0000856 -0.0041613 0.0011560 0.0065420 0.0001129 0.0001707 0.0001780 0.0006070 0.0001399 0.0006665 0.0001220 0.0002799 0.0003969 0.0006086 -0.0003081 -0.0006577
0.0022031 -0.0112315 0.0020321 0.0042538 0.0085040 -0.0178008 0.0047449 -0.0040630 0.0001012 -0.0000468 0.0001729 0.0003613 0.0001645 0.0004914 0.0000770 0.0000588 0.0004341 0.0005786 -0.0003537 -0.0007949
-0.0020475 -0.0133408 0.0021806 -0.0031378 0.0032525 -0.0043831 -0.0030184 0.0038379 0.0001059 -0.0000845 0.0001624 0.0003316 0.0001622 0.0004856 0.0000639 0.0000669 0.0004610 0.0006409 -0.0003830 -0.0007538
-0.0041430 -0.0105474 0.0134866 -0.0317486 -0.0002302 0.0001336 -0.0051123 0.0091614 0.0001179 0.0000644 0.0001576 0.0004712 0.0001630 0.0005722 0.0000854 0.0001787 0.0004750 0.0006994 -0.0003893 -0.0006575
-0.0055950 0.0090783 0.0082040 -0.0206680 0.0054981 -0.0112933 -0.0019444 0.0041315 0.0001170 0.0002248 0.0001536 0.0006168 0.0001675 0.0006527 0.0001045 0.0003049 0.0004748 0.0007344 -0.0003356 -0.0005841
-0.0026695 0.0112273 0.0016078 -0.0063155 0.0015105 -0.0056535 -0.0026703 0.0111927 0.0001130 0.0003036 0.0001425 0.0006086 0.0001502 0.0006723 0.0001147 0.0002858 0.0004613 0.0006773 -0.0002545 -0.0005352
0.0020704 0.0009434 0.0043664 -0.0041196 -0.0001309 -0.0030258 -0.0013716 0.0101845 0.0001002 0.0000923 0.0001383 0.0003626 0.0001442 0.0005057 0.0001100 0.0001186 0.0004400 0.0005165 -0.0001980 -0.0004134
0.0005345 -0.0006364 0.0047863 -0.0063872 0.0029338 -0.0052822 0.0081280 -0.0160121 0.0000930 -0.0000949 0.0001319 0.0002263 0.0001658 0.0003727 0.0001085 0.0000675 0.0004324 0.0004709 -0.0001768 -0.0002101
0.0041414 -0.0029823 0.0065356 -0.0067375 0.0008405 0.0053606 0.0109750 -0.0293820 0.0000943 -0.0000376 0.0001256 0.0003110 0.0001909 0.0004070 0.0001251 0.0001184 0.0004375 0.0005004 -0.0001778 -0.0000670
0.0085295 -0.0126022 0.0120773 -0.0246084 0.0002985 0.0106622 0.0139686 -0.0302645 0.0000923 0.0000743 0.0001274 0.0004357 0.0001808 0.0005318 0.0001637 0.0003028 0.0004128 0.0004946 -0.0001680 0.0000691
0.0119004 -0.0184512 0.0079945 -0.0222896 -0.0028938 0.0122148 0.0152061 -0.0327041 0.0000774 0.0002011 0.0001402 0.0005928 0.0001592 0.0007172 0.0001775 0.0004561 0.0003763 0.0004527 -0.0001255 0.0001780
0.0070160 -0.0081376 -0.0031184 0.0141915 -0.0011925 0.0030365 0.0049705 -0.0090376 0.0000461 0.0000553 0.0001604 0.0005015 0.0001608 0.0007012 0.0001237 0.0002349 0.0003562 0.0003274 -0.0000848 0.0000877
-0.0120864 0.0207190 -0.0048311 0.0185503 0.0029829 -0.0095305 0.0075799 -0.0106601 0.0000254 -0.0002407 0.0001651 0.0002562 0.0002104 0.0005612 0.0000634 -0.0000341 0.0003337 0.0001988 -0.0000417 0.0001176
-0.0143521 0.0251443 0.0045061 -0.0051517 0.0010240 -0.0057613 0.0054490 -0.0056550 0.0000130 -0.0002790 0.0001690 0.0002632 0.0002353 0.0005818 0.0000491 -0.0000944 0.0003202 0.0002195 0.0000079 0.0003624
-0.0027546 0.0084658 0.0199298 -0.0365088 0.0091964 -0.0156586 -0.0015198 0.0025229 -0.0000072 -0.0001654 0.0001696 0.0004099 0.0002073 0.0006696 0.0000398 -0.0000535 0.0003151 0.0002851 0.0000196 0.0005963
-0.0007425 0.0061968 0.0128072 -0.0173743 0.0071451 -0.0134276 0.0069633 -0.0166556 -0.0000194 -0.0000478 0.0001701 0.0005672 0.0001769 0.0007777 0.0000233 0.0000310 0.0003113 0.0003473 0.0000287 0.0007729
-0.0071973 0.0136188 0.0000869 0.0020204 0.0016563 -0.0048824 0.0012998 0.0050350 -0.0000335 0.0000271 0.0001722 0.0006059 0.0001609 0.0007962 0.0000237 0.0000038 0.0003135 0.0003549 0.0000447 0.0006888
0.0018301 -0.0026543 -0.0024370 0.0061331 0.0096280 -0.0216871 0.0058781 0.0016207 -0.0000490 -0.0001574 0.0001760 0.0003878 0.0001683 0.0006292 0.0000131 -0.0001511 0.0003096 0.0002468 0.0000194 0.0004287
0.0071320 -0.0132608 -0.0034629 0.0103848 0.0095600 -0.0237074 0.0104600 -0.0116916 -0.0000431 -0.0003409 0.0001784 0.0002471 0.0001985 0.0005088 0.0000054 -0.0002026 0.0003084 0.0001956 -0.0000387 0.0003104
-0.0050658 0.0129745 -0.0130731 0.0171871 0.0030696 -0.0084693 0.0049686 -0.0065468 -0.0000360 -0.0002623 0.0001695 0.0003404 0.0001985 0.0005655 -0.0000029 -0.0001225 0.0003002 0.0002408 -0.0000934 0.0003195
-0.0043107 0.0091377 -0.0168061 0.0189376 0.0075962 -0.0187576 0.0028896 -0.0062506 -0.0000322 -0.0001187 0.0001598 0.0004764 0.0001754 0.0006539 -0.0000063 -0.0000459 0.0002914 0.0002996 -0.0001309 0.0003754
-0.0013652 -0.0010250 -0.0147851 0.0179404 0.0045881 -0.0068598 -0.0000460 0.0025148 -0.0000320 0.0000514 0.0001560 0.0006366 0.0001529 0.0007527 -0.0000065 0.0000525 0.0002808 0.0003528 -0.0001117 0.0004037
0.0005677 0.0072523 -0.0034813 0.0000616 -0.0026450 0.0088096 -0.0012196 0.0090822 -0.0000434 0.0000244 0.0001517 0.0005418 0.0001366 0.0007042 -0.0000044 0.0000075 0.0002648 0.0002810 -0.0000826 0.0003094
0.0012141 0.0121664 0.0091633 -0.0181595 -0.0056632 0.0149174 0.0026978 -0.0045147 -0.0000454 -0.0001812 0.0001450 0.0002852 0.0001442 0.0005411 -0.0000053 -0.0001137 0.0002564 0.0001607 -0.0000774 0.0002154
-0.0025388 0.0101470 0.0051889 -0.0107585 -0.0040328 0.0180370 0.0104361 -0.0255440 -0.0000425 -0.0002086 0.0001412 0.0002615 0.0001552 0.0005132 -0.0000226 -0.0000996 0.0002493 0.0001526 -0.0001066 0.0002412
0.0062500 -0.0111240 0.0001325 0.0004397 0.0006064 0.0106023 -0.0050506 0.0057448 -0.0000440 -0.0000946 0.0001345 0.0003853 0.0001590 0.0005557 -0.0000276 -0.0000554 0.0002487 0.0001959 -0.0001607 0.0002966
0.0115434 -0.0234381 -0.0001675 0.0070541 0.0047168 -0.0041686 -0.0004155 0.0004122 -0.0000486 0.0000215 0.0001308 0.0005277 0.0001278 0.0006371 -0.0000207 0.0000355 0.0002624 0.0003229 -0.0001347 0.0004072
-0.0038212 0.0040924 -0.0030127 0.0099325 0.0061110 -0.0143488 0.0065293 -0.0087109 -0.0000622 0.0001234 0.0001280 0.0005436 0.0001000 0.0006716 0.0000045 0.0000989 0.0002747 0.0003589 -0.0000617 0.0004411
0.0031400 0.0007654 0.0037963 -0.0032403 0.0010902 -0.0016766 -0.0018123 0.0046653 -0.0000762 -0.0000136 0.0001205 0.0003419 0.0000935 0.0005624 0.0000201 0.0000034 0.0002595 0.0002531 -0.0000267 0.0003342
0.0037402 0.0069766 0.0058804 -0.0115386 -0.0010050 0.0104490 -0.0005380 0.0020667 -0.0000829 -0.0001580 0.0001139 0.0002536 0.0001148 0.0004802 -0.0000142 -0.0000715 0.0002591 0.0002702 -0.0000363 0.0002989
-0.0049645 0.0136224 -0.0029697 0.0015676 -0.0000466 0.0108219 0.0011983 0.0031126 -0.0000808 -0.0000859 0.0001110 0.0003544 0.0001267 0.0005100 -0.0000476 -0.0000276 0.0002775 0.0003554 -0.0000940 0.0003489
-0.0062702 -0.0014062 0.0067141 -0.0093612 0.0034203 0.0003656 -0.0003301 0.0102842 -0.0000763 0.0000630 0.0001021 0.0004871 0.0000983 0.0006006 -0.0000646 0.0000466 0.0002660 0.0004005 -0.0001474 0.0004114
-0.0092514 0.0099322 0.0045992 -0.0046592 0.0112059 -0.0261401 -0.0019487 0.0116989 -0.0000795 0.0002342 0.0000922 0.0006512 0.0000608 0.0006943 -0.0000764 0.0001131 0.0002588 0.0004401 -0.0001640 0.0004698
-0.0104016 0.0147081 0.0003791 -0.0057982 0.0121374 -0.0250953 -0.0045353 0.0173450 -0.0000927 0.0001281 0.0000868 0.0005060 0.0000449 0.0005627 -0.0000669 -0.0000051 0.0002609 0.0003581 -0.0001181 0.0003668
-0.0070944 0.0064016 0.0067376 -0.0167105 0.0058680 -0.0038557 0.0036953 0.0051026 -0.0001027 -0.0001095 0.0000814 0.0002078 0.0000586 0.0003560 -0.0000565 -0.0001533 0.0002548 0.0002467 -0.0000584 0.0002375
-0.0000664 -0.0050131 0.0026634 -0.0093734 -0.0002762 0.0030854 0.0051433 -0.0029804 -0.0000972 -0.0000981 0.0000754 0.0002128 0.0000730 0.0003268 -0.0000632 -0.0001264 0.0002628 0.0002746 -0.0000699 0.0002615
0.0016858 -0.0065943 0.0019263 -0.0091471 -0.0071881 0.0137184 -0.0055093 0.0123676 -0.0000877 0.0000490 0.0000683 0.0003523 0.0000635 0.0003871 -0.0000793 -0.0000464 0.0002681 0.0003588 -0.0001140 0.0003415
0.0041179 -0.0081234 0.0007603 -0.0126781 0.0019292 0.0001544 -0.0069613 0.0153938 -0.0000838 0.0001956 0.0000606 0.0004970 0.0000372 0.0004951 -0.0000888 0.0000382 0.0002605 0.0004366 -0.0001429 0.0004137
0.0076417 -0.0140656 -0.0025018 -0.0075379 0.0094557 -0.0213356 -0.0012989 0.0136994 -0.0000962 0.0002250 0.0000530 0.0004583 0.0000170 0.0004958 -0.0000780 -0.0000283 0.0002683 0.0003938 -0.0001161 0.0003350
0.0102123 -0.0154848 0.0032444 -0.0047858 -0.0012798 0.0024915 -0.0032547 0.0147080 -0.0001092 0.0000469 0.0000570 0.0002290 0.0000052 0.0003583 -0.0000716 -0.0001934 0.0002877 0.0003083 -0.0000835 0.0002000
0.0099145 -0.0125638 0.0008700 0.0025642 -0.0009042 0.0042151 -0.0027488 0.0057499 -0.0001039 -0.0000224 0.0000702 0.0001909 0.0000064 0.0003176 -0.0000875 -0.0002051 0.0002924 0.0003261 -0.0000679 0.0001712
-0.0015864 -0.0018603 -0.0032419 0.0108897 0.0005576 -0.0054391 -0.0028762 0.0016739 -0.0000948 0.0000793 0.0000742 0.0003340 0.0000240 0.0003719 -0.0001082 -0.0001136 0.0002879 0.0003875 -0.0001063 0.0002006
-0.0041856 0.0024119 -0.0016458 0.0138159 -0.0044531 0.0127222 -0.0069038 0.0065496 -0.0000899 0.0002181 0.0000677 0.0004870 0.0000442 0.0004412 -0.0001091 -0.0000300 0.0002760 0.0004498 -0.0001788 0.0002014
0.0026507 -0.0081792 0.0056525 0.0018672 -0.0028854 0.0129606 -0.0006342 -0.0067162 -0.0000898 0.0004246 0.0000610 0.0006285 0.0000353 0.0005377 -0.0000966 -0.0000004 0.0002620 0.0004532 -0.0002115 0.0001330
0.0086409 -0.0316587 0.0167317 -0.0360429 0.0013841 -0.0036073 0.0027144 -0.0126194 -0.0000910 0.0003630 0.0000531 0.0004794 0.0000206 0.0005084 -0.0000912 -0.0001027 0.0002460 0.0003392 -0.0002110 -0.0000210
0.0064356 -0.0122053 -0.0078248 0.0100052 0.0003786 0.0030982 0.0018379 -0.0065437 -0.0000950 0.0001731 0.0000518 0.0002814 0.0000226 0.0004490 -0.0000900 -0.0001562 0.0002225 0.0002154 -0.0001857 -0.0001300
0.0020850 0.0059754 -0.0063447 0.0132589 0.0004222 0.0031995 -0.0003121 0.0011873 -0.0001010 0.0002070 0.0000609 0.0003628 0.0000607 0.0004802 -0.0000802 -0.0000488 0.0002346 0.0002441 -0.0001356 0.0000182
-0.0056003 0.0103056 -0.0026042 0.0048976 0.0016122 -0.0044325 0.0055242 -0.0077636 -0.0001012 0.0003149 0.0000721 0.0005235 0.0000905 0.0005191 -0.0000588 0.0001128 0.0003182 0.0004445 -0.0000562 0.0003573
-0.0038091 0.0048799 0.0035596 -0.0018351 0.0083820 -0.0122638 0.0036038 -0.0029126 -0.0001018 0.0004381 0.0000856 0.0007137 0.0000756 0.0006008 -0.0000308 0.0002791 0.0004137 0.0006783 -0.0000079 0.0007133
0.0019119 -0.0095441 0.0063262 -0.0063745 0.0086165 -0.0129627 0.0025511 -0.0079164 -0.0001048 0.0004152 0.0000940 0.0006440 0.0000474 0.0005600 0.0000104 0.0002333 0.0004818 0.0007210 0.0000367 0.0007998
-0.0015544 -0.0087188 -0.0039058 0.0088930 0.0048604 -0.0072215 0.0040361 -0.0104010 -0.0001012 0.0002176 0.0000974 0.0003507 0.0000388 0.0003764 0.0000388 0.0000509 0.0005347 0.0006434 0.0001272 0.0006857
0.0038659 -0.0099531 -0.0025145 0.0043774 0.0031751 -0.0047438 0.0100924 -0.0119882 -0.0000990 0.0001643 0.0001072 0.0002968 0.0000535 0.0003370 0.0000391 0.0000352 0.0005560 0.0006687 0.0001722 0.0006830
0.0001718 -0.0040503 -0.0062625 0.0086108 0.0032325 -0.0073878 0.0205689 -0.0376365 -0.0001017 0.0002675 0.0001143 0.0004563 0.0000749 0.0004363 0.0000230 0.0001239 0.0005587 0.0007457 0.0001393 0.0007328
-0.0038054 -0.0017894 -0.0014720 0.0012554 0.0031931 -0.0091266 0.0009912 -0.0021294 -0.0001065 0.0003848 0.0001099 0.0006304 0.0000877 0.0005584 0.0000013 0.0002115 0.0005573 0.0008188 0.0000846 0.0007962
0.0111712 -0.0274028 0.0110852 -0.0236256 -0.0026390 -0.0012491 -0.0076451 0.0121183 -0.0001139 0.0004781 0.0001058 0.0006527 0.0000887 0.0005783 0.0000029 0.0001507 0.0005571 0.0008073 0.0000731 0.0007589
0.0028250 0.0001098 0.0111211 -0.0300845 -0.0079272 0.0097434 -0.0037325 0.0081995 -0.0001133 0.0003151 0.0001095 0.0004333 0.0000903 0.0004291 0.0000129 -0.0000583 0.0005703 0.0007051 0.0001232 0.0006217
-0.0031941 0.0153784 0.0036345 -0.0099669 -0.0069622 0.0021820 -0.0011017 0.0009097 -0.0001135 0.0001440 0.0001150 0.0003282 0.0000770 0.0003801 0.0000024 -0.0001185 0.0005857 0.0006731 0.0001340 0.0006090
0.0006172 0.0034888 0.0074406 -0.0081148 0.0078948 -0.0273505 -0.0070213 0.0091677 -0.0001241 0.0001938 0.0001179 0.0004324 0.0000666 0.0004652 -0.0000133 -0.0000391 0.0005807 0.0007329 0.0001280 0.0006609
-0.0013968 0.0088273 0.0073302 -0.0153211 0.0128606 -0.0272612 -0.0124113 0.0219258 -0.0001277 0.0002880 0.0001158 0.0005621 0.0000816 0.0005484 -0.0000319 0.0000610 0.0005633 0.0008230 0.0001054 0.0007538
-0.0009240 0.0140757 0.0074936 -0.0136192 -0.0008881 0.0113253 -0.0089037 0.0193075 -0.0001285 0.0004149 0.0001130 0.0007105 0.0000974 0.0006302 -0.0000381 0.0001109 0.0005595 0.0008708 0.0000839 0.0007993
0.0008439 0.0055702 0.0065451 -0.0038446 -0.0034527 0.0163858 -0.0027216 0.0025656 -0.0001307 0.0003162 0.0001084 0.0005460 0.0000795 0.0005258 -0.0000339 -0.0000369 0.0005668 0.0007877 0.0000627 0.0007277
-0.0054379 0.0074419 0.0002719 0.0066208 0.0053200 -0.0086435 0.0055993 -0.0146115 -0.0001277 0.0000968 0.0001066 0.0002835 0.0000555 0.0003872 -0.0000299 -0.0001977 0.0005723 0.0006942 0.0000646 0.0006516
-0.0159198 0.0116960 0.0008233 0.0091765 0.0055130 -0.0037172 0.0023298 0.0027025 -0.0001259 0.0000886 0.0001089 0.0003075 0.0000526 0.0004140 -0.0000305 -0.0001959 0.0005709 0.0007069 0.0001111 0.0006158
-0.0090121 0.0089899 -0.0012892 0.0109525 0.0017073 0.0050315 0.0040839 0.0012564 -0.0001271 0.0002054 0.0001063 0.0004416 0.0000761 0.0004820 -0.0000548 -0.0001137 0.0005606 0.0007745 0.0001225 0.0006504
-0.0081471 0.0169991 -0.0054143 0.0061192 -0.0043394 0.0098926 0.0015060 0.0014091 -0.0001307 0.0003497 0.0001022 0.0006011 0.0000903 0.0005779 -0.0000938 0.0000023 0.0005527 0.0008783 0.0000947 0.0007619
-0.0222787 0.0224239 -0.0016013 -0.0003599 -0.0032847 0.0074009 -0.0026323 0.0088169 -0.0001368 0.0004803 0.0000971 0.0006988 0.0000878 0.0006199 -0.0001119 0.0000085 0.0005657 0.0009277 0.0000688 0.0008354
-0.0146748 0.0045975 -0.0085236 0.0188531 -0.0002340 0.0044489 -0.0056707 0.0150179 -0.0001341 0.0003241 0.0000901 0.0004782 0.0000664 0.0004673 -0.0000879 -0.0001927 0.0006107 0.0008889 0.0000881 0.0007641
-0.0063276 -0.0013845 -0.0093592 0.0243886 0.0001350 0.0006123 -0.0029057 0.0030512 -0.0001190 0.0000691 0.0000750 0.0001995 0.0000344 0.0003078 -0.0000759 -0.0003216 0.0006722 0.0009613 0.0001381 0.0007120
-0.0064884 0.0012956 0.0001809 0.0090117 0.0057795 -0.0116787 0.0235965 -0.0554635 -0.0001087 0.0001012 0.0000535 0.0002061 0.0000263 0.0002994 -0.0000995 -0.0002317 0.0007095 0.0011268 0.0001772 0.0007230
0.0011368 -0.0024478 0.0075944 -0.0127947 0.0093896 -0.0192902 0.0083859 -0.0151467 -0.0001047 0.0002630 0.0000309 0.0003189 0.0000294 0.0003529 -0.0001380 -0.0000860 0.0007238 0.0012635 0.0001800 0.0008020
0.0027835 -0.0032974 0.0027151 -0.0060150 0.0077985 -0.0207809 -0.0057789 0.0029673 -0.0001064 0.0004388 0.0000070 0.0004676 0.0000352 0.0004303 -0.0001696 0.0000363 0.0007401 0.0014196 0.0001676 0.0009518
0.0021281 -0.0055155 -0.0045498 0.0092756 0.0031649 -0.0053532 -0.0025723 -0.0066594 -0.0001053 0.0006135 -0.0000078 0.0005936 0.0000485 0.0004754 -0.0001436 0.0001229 0.0007476 0.0014668 0.0001495 0.0009415
0.0000612 -0.0065387 -0.0091081 0.0204424 0.0036579 -0.0072112 -0.0007851 0.0034978 -0.0000942 0.0004772 -0.0000059 0.0004323 0.0000457 0.0003759 -0.0000850 0.0000651 0.0007510 0.0013458 0.0001744 0.0008177
0.0030432 -0.0007913 -0.0036098 0.0058397 -0.0023824 0.0026052 -0.0069110 0.0125699 -0.0000947 0.0001796 0.0000032 0.0001925 0.0000167 0.0002332 -0.0000672 -0.0000259 0.0007637 0.0012860 0.0002332 0.0008897
0.0052312 -0.0061285 0.0133865 -0.0287254 -0.0019967 0.0028802 -0.0003149 -0.0024179 -0.0001056 0.0001564 0.0000067 0.0002129 0.0000099 0.0002068 -0.0000719 0.0000320 0.0007819 0.0013494 0.0002520 0.0010135
0.0039978 -0.0226049 0.0058680 -0.0075390 0.0014846 -0.0078166 0.0049720 -0.0031569 -0.0001064 0.0002729 0.0000044 0.0003382 0.0000283 0.0002355 -0.0000718 0.0002073 0.0007715 0.0013890 0.0002419 0.0010743
-0.0016526 -0.0034578 0.0009609 -0.0005196 -0.0050632 0.0116958 -0.0004435 0.0059440 -0.0001108 0.0004096 0.0000056 0.0005037 0.0000388 0.0003131 -0.0000759 0.0003426 0.0007398 0.0014296 0.0002241 0.0011558
-0.0008809 0.0045906 -0.0016388 0.0068133 0.0024303 0.0046702 0.0047529 -0.0135627 -0.0001252 0.0004730 0.0000094 0.0005564 0.0000200 0.0003041 -0.0000729 0.0002503 0.0007721 0.0014795 0.0002079 0.0011647
0.0007152 0.0020861 -0.0043223 0.0044012 0.0091332 -0.0114257 0.0096810 -0.0221648 -0.0001300 0.0002924 0.0000150 0.0003740 -0.0000052 0.0001464 -0.0000676 0.0000244 0.0008175 0.0014119 0.0002216 0.0010694
-0.0016234 0.0000669 0.0069849 -0.0175640 0.0045922 0.0017679 0.0004575 0.0017918 -0.0001237 0.0001201 0.0000231 0.0002644 -0.0000051 0.0000474 -0.0000804 -0.0000989 0.0008268 0.0013531 0.0002473 0.0009990
-0.0036696 0.0099430 0.0127734 -0.0244346 0.0058173 -0.0042147 0.0043711 -0.0070358 -0.0001257 0.0001845 0.0000242 0.0003706 0.0000140 0.0000613 -0.0001191 -0.0000635 0.0008233 0.0014488 0.0002589 0.0010158
-0.0078759 0.0178339 -0.0002928 -0.0010927 0.0007678 -0.0038410 0.0069266 -0.0163060 -0.0001282 0.0003341 0.0000230 0.0005149 0.0000183 0.0001228 -0.0001566 0.0000307 0.0008044 0.0015584 0.0002201 0.0010544
-0.0003710 0.0038617 -0.0044033 0.0129158 -0.0048154 0.0128235 -0.0005063 -0.0011791 -0.0001201 0.0005184 0.0000200 0.0006987 0.0000084 0.0002128 -0.0001724 0.0001152 0.0008069 0.0016434 0.0001774 0.0010705
-0.0025216 0.0069390 0.0004565 0.0064038 -0.0026652 0.0120808 -0.0003073 0.0019606 -0.0001126 0.0004672 0.0000201 0.0006121 -0.0000151 0.0001473 -0.0001535 0.0000082 0.0008563 0.0016420 0.0001659 0.0009742
-0.0051068 0.0074387 -0.0025954 0.0103842 -0.0007075 0.0037911 -0.0006806 0.0064429 -0.0001044 0.0002669 0.0000263 0.0003763 -0.0000315 0.0000043 -0.0001283 -0.0001293 0.0009102 0.0016360 0.0001968 0.0008956
0.0070746 -0.0153419 -0.0035613 0.0120075 0.0088417 -0.0195174 0.0077448 -0.0041005 -0.0001040 0.0002800 0.0000350 0.0004062 -0.0000408 -0.0000093 -0.0001361 -0.0000680 0.0009404 0.0017440 0.0002475 0.0009279
0.0030742 -0.0029557 0.0025547 -0.0049815 0.0057963 -0.0094111 0.0067485 -0.0031128 -0.0001027 0.0004284 0.0000405 0.0005526 -0.0000348 0.0000509 -0.0001574 0.0000477 0.0009481 0.0018450 0.0002780 0.0010393
-0.0014110 0.0074821 0.0078130 -0.0201954 0.0019501 0.0006597 0.0019287 -0.0018020 -0.0000937 0.0005795 0.0000332 0.0006990 -0.0000278 0.0001381 -0.0001744 0.0001439 0.0009620 0.0019652 0.0003543 0.0013552
0.0028961 -0.0074820 0.0002263 -0.0017203 0.0058458 -0.0077350 0.0068091 -0.0214793 -0.0000965 0.0005834 0.0000175 0.0006292 -0.0000266 0.0000738 -0.0001696 0.0000907 0.0010371 0.0020389 0.0005109 0.0017486
-0.0001610 -0.0131337 -0.0045397 0.0076485 -0.0048886 0.0105608 -0.0000528 -0.0066260 -0.0000933 0.0004008 0.0000077 0.0003735 -0.0000358 -0.0000814 -0.0001283 -0.0000458 0.0011037 0.0020015 0.0005880 0.0018253
0.0016941 -0.0044602 -0.0045694 0.0078579 -0.0097349 0.0146451 -0.0010940 0.0062293 -0.0000836 0.0003209 0.0000073 0.0003254 -0.0000668 -0.0000602 -0.0001218 -0.0000240 0.0010984 0.0019478 0.0006046 0.0018608
0.0093722 -0.0145867 0.0033578 -0.0065897 -0.0042945 0.0119120 -0.0005432 0.0102843 -0.0000809 0.0004045 0.0000147 0.0004579 -0.0000675 0.0000009 -0.0001438 0.0000488 0.0010924 0.0019947 0.0006654 0.0020305
0.0068304 -0.0194421 0.0041529 -0.0108110 -0.0026110 0.0054966 -0.0030127 0.0125568 -0.0000794 0.0005233 0.0000211 0.0006104 -0.0000478 0.0000554 -0.0001632 0.0001141 0.0011014 0.0021591 0.0006557 0.0020297
0.0055711 -0.0190585 0.0001848 0.0049458 -0.0001695 -0.0004175 0.0042020 -0.0045864 -0.0000821 0.0005818 0.0000196 0.0006335 -0.0000223 0.0000872 -0.0001806 0.0001149 0.0011173 0.0022106 0.0005637 0.0018498
-0.0059214 0.0074107 0.0102414 -0.0140545 0.0012262 0.0004106 0.0239830 -0.0508441 -0.0000769 0.0004001 0.0000307 0.0004491 -0.0000171 -0.0000201 -0.0001644 -0.0000014 0.0011532 0.0021450 0.0004953 0.0016247
-0.0102910 0.0174474 0.0042305 -0.0082285 0.0035068 -0.0101320 0.0074561 -0.0111454 -0.0000662 0.0002584 0.0000459 0.0003736 -0.0000258 -0.0000037 -0.0001398 -0.0000158 0.0011670 0.0020886 0.0004819 0.0014993
-0.0070064 0.0039268 -0.0090476 0.0199307 0.0043822 -0.0032436 0.0013708 0.0050157 -0.0000640 0.0003230 0.0000509 0.0004892 -0.0000252 0.0000922 -0.0001270 0.0000637 0.0011538 0.0020701 0.0004818 0.0014696
-0.0014306 0.0053487 -0.0031979 0.0138751 0.0063019 -0.0094520 0.0009537 0.0051140 -0.0000707 0.0004224 0.0000559 0.0006361 -0.0000160 0.0001413 -0.0001463 0.0001412 0.0011381 0.0021237 0.0004843 0.0015561
-0.0009904 0.0043894 0.0039845 -0.0025836 0.0019115 -0.0098608 -0.0012049 0.0033914 -0.0000828 0.0004733 0.0000576 0.0006497 -0.0000087 0.0001271 -0.0001649 0.0001327 0.0011343 0.0021314 0.0005092 0.0015966
0.0014995 -0.0149480 -0.0045406 0.0108205 0.0001712 0.0020487 -0.0016433 -0.0022661 -0.0000832 0.0002932 0.0000566 0.0004456 0.0000050 -0.0000351 -0.0001590 -0.0000008 0.0011450 0.0020358 0.0005186 0.0015190
0.0093064 -0.0209757 -0.0019023 0.0055613 -0.0004686 0.0068401 -0.0019843 -0.0057030 -0.0000704 0.0001462 0.0000563 0.0003561 0.0000029 -0.0000935 -0.0001323 -0.0000523 0.0011590 0.0019897 0.0004919 0.0015084
0.0053032 -0.0111629 0.0088718 -0.0153792 -0.0001750 0.0011037 0.0002306 -0.0055311 -0.0000666 0.0002089 0.0000555 0.0004608 -0.0000137 -0.0000296 -0.0001124 0.0000088 0.0011586 0.0020128 0.0004842 0.0015588
0.0082105 -0.0169753 0.0000255 -0.0002631 -0.0001669 -0.0050004 0.0079142 -0.0136545 -0.0000725 0.0003232 0.0000540 0.0006018 -0.0000260 0.0000540 -0.0001288 0.0001092 0.0011413 0.0020675 0.0004910 0.0016344
0.0092624 -0.0185390 -0.0069198 0.0080664 -0.0000689 -0.0020893 0.0027955 0.0011490 -0.0000797 0.0004320 0.0000541 0.0006601 -0.0000225 0.0000825 -0.0001523 0.0001320 0.0011334 0.0020737 0.0005104 0.0016477
-0.0043206 0.0011959 -0.0097282 0.0111035 -0.0014748 0.0036592 -0.0042644 0.0141367 -0.0000824 0.0002713 0.0000544 0.0004571 0.0000034 -0.0000665 -0.0001510 -0.0000138 0.0011377 0.0019612 0.0005275 0.0015468
-0.0002747 -0.0021018 -0.0101367 0.0080780 -0.0004472 -0.0014678 0.0028124 0.0001362 -0.0000752 0.0000764 0.0000534 0.0003100 0.0000162 -0.0001675 -0.0001426 -0.0000686 0.0011400 0.0019135 0.0005219 0.0015208
0.0073957 -0.0157202 -0.0074618 -0.0020388 0.0052424 -0.0072340 0.0031584 0.0030201 -0.0000641 0.0001199 0.0000515 0.0003910 0.0000086 -0.0001124 -0.0001267 -0.0000034 0.0011439 0.0019595 0.0004894 0.0016036
0.0005694 -0.0055843 -0.0079035 0.0072979 0.0035495 0.0007859 0.0011050 0.0047695 -0.0000627 0.0002378 0.0000491 0.0005317 -0.0000171 0.0000001 -0.0001140 0.0000683 0.0011389 0.0020226 0.0004720 0.0016906
0.0014775 -0.0055448 -0.0054099 0.0119449 0.0104342 -0.0142129 0.0057395 -0.0035599 -0.0000677 0.0003873 0.0000524 0.0006899 -0.0000300 0.0000901 -0.0001125 0.0001135 0.0011317 0.0020591 0.0005138 0.0016998
-0.0021938 0.0050298 -0.0063316 0.0117647 0.0081018 -0.0146466 0.0087704 -0.0125229 -0.0000752 0.0002663 0.0000562 0.0005283 -0.0000081 -0.0000301 -0.0001146 -0.0000092 0.0011312 0.0019641 0.0005427 0.0016126
0.0014160 0.0081097 -0.0020391 0.0096482 -0.0037715 0.0102061 0.0015009 -0.0152070 -0.0000776 0.0000254 0.0000519 0.0002711 0.0000133 -0.0001685 -0.0001274 -0.0001029 0.0011239 0.0018858 0.0005261 0.0015723
0.0063519 -0.0022031 0.0047655 0.0041106 0.0041970 -0.0005510 -0.0038803 -0.0082914 -0.0000612 0.0000269 0.0000486 0.0003012 0.0000114 -0.0001342 -0.0001330 -0.0000460 0.0011162 0.0019168 0.0004892 0.0016095
0.0046370 -0.0101297 0.0011297 -0.0036931 0.0107227 -0.0216743 -0.0023762 0.0066418 -0.0000498 0.0001506 0.0000484 0.0004380 0.0000074 -0.0000528 -0.0001202 0.0000272 0.0011215 0.0019556 0.0004538 0.0016746
0.0118652 -0.0260135 0.0003544 -0.0078517 0.0081138 -0.0110135 -0.0028067 0.0194124 -0.0000532 0.0003020 0.0000483 0.0005980 -0.0000035 0.0000582 -0.0001104 0.0000985 0.0011156 0.0020184 0.0004396 0.0017545
0.0093854 -0.0236554 0.0083668 -0.0137063 0.0067664 -0.0085209 0.0010072 0.0053391 -0.0000571 0.0004441 0.0000500 0.0007122 -0.0000127 0.0001321 -0.0001256 0.0001176 0.0011010 0.0020274 0.0004555 0.0017623
0.0013236 -0.0166203 0.0061656 -0.0151538 0.0047407 -0.0136631 0.0071097 -0.0192342 -0.0000674 0.0002926 0.0000476 0.0005011 0.0000035 0.0000097 -0.0001343 -0.0000045 0.0010944 0.0019214 0.0004934 0.0016442
-0.0028075 -0.0054171 -0.0010435 -0.0068927 -0.0000131 -0.0057936 0.0028338 -0.0013139 -0.0000658 0.0000132 0.0000444 0.0002266 0.0000246 -0.0001467 -0.0001311 -0.0001080 0.0010892 0.0018445 0.0004882 0.0015796
0.0062634 -0.0085576 0.0019314 -0.0047008 -0.0071256 0.0129145 0.0037540 -0.0026143 -0.0000509 0.0000063 0.0000406 0.0002576 0.0000263 -0.0001375 -0.0001091 -0.0000827 0.0010910 0.0018531 0.0004355 0.0016279
0.0054889 -0.0115868 0.0054426 -0.0044301 -0.0081577 0.0165880 0.0040934 -0.0045629 -0.0000415 0.0001329 0.0000369 0.0003913 0.0000160 -0.0000605 -0.0000993 -0.0000042 0.0010877 0.0019035 0.0004147 0.0016950
-0.0087965 0.0018016 0.0073755 -0.0138903 -0.0044292 0.0010880 0.0002525 0.0064051 -0.0000436 0.0002882 0.0000350 0.0005600 -0.0000051 0.0000546 -0.0001125 0.0000976 0.0010707 0.0019740 0.0004231 0.0017817
0.0059893 -0.0123858 0.0033751 -0.0096809 0.0002962 -0.0070424 -0.0017255 0.0106772 -0.0000521 0.0004428 0.0000374 0.0007150 -0.0000133 0.0001708 -0.0001407 0.0001869 0.0010493 0.0020491 0.0004613 0.0018288
0.0099367 -0.0084668 0.0043925 -0.0155873 -0.0056132 0.0076203 0.0011497 0.0042919 -0.0000650 0.0003280 0.0000334 0.0005536 0.0000039 0.0000782 -0.0001465 0.0001156 0.0010608 0.0020276 0.0004892 0.0017069
-0.0015557 0.0120267 0.0105495 -0.0274027 0.0017293 0.0001261 -0.0002720 -0.0004338 -0.0000688 -0.0000226 0.0000222 0.0001872 0.0000178 -0.0000879 -0.0000622 0.0001195 0.0010737 0.0019413 0.0006192 0.0019540
-0.0041167 0.0090468 0.0060360 -0.0101791 0.0035212 0.0033387 -0.0037036 0.0023385 -0.0000692 -0.0001311 0.0000193 0.0001099 0.0000254 -0.0000570 -0.0000138 0.0002012 0.0010750 0.0019174 0.0006590 0.0021320
0.0048859 -0.0140712 -0.0001931 0.0056772 0.0037755 0.0038372 -0.0053077 0.0076400 -0.0000819 0.0000018 0.0000332 0.0002754 0.0000293 0.0000892 -0.0000423 0.0001625 0.0010926 0.0019592 0.0005136 0.0018506
0.0104532 -0.0235764 -0.0073491 0.0140826 0.0031266 -0.0009945 -0.0007295 -0.0056777 -0.0000854 0.0001797 0.0000541 0.0004812 0.0000306 0.0002371 -0.0000642 0.0001747 0.0010747 0.0020063 0.0004521 0.0017454
0.0001184 0.0034768 0.0008123 0.0024775 -0.0067021 0.0120531 0.0040807 -0.0180945 -0.0000772 0.0003583 0.0000613 0.0006674 0.0000351 0.0003441 -0.0001036 0.0002272 0.0010240 0.0020353 0.0004702 0.0018098
0.0014369 0.0054085 0.0069110 -0.0090675 -0.0027924 0.0064181 -0.0030667 0.0056474 -0.0000796 0.0003836 0.0000507 0.0006418 0.0000420 0.0003030 -0.0001341 0.0001896 0.0009939 0.0019848 0.0004971 0.0018611
0.0133536 -0.0170058 0.0032631 -0.0146516 0.0024366 -0.0022229 0.0005124 0.0022341 -0.0000749 0.0001570 0.0000383 0.0003755 0.0000605 0.0000916 -0.0001318 0.0000205 0.0009823 0.0018391 0.0005036 0.0017978
0.0112992 -0.0271649 0.0071743 -0.0276481 -0.0053240 0.0090212 0.0075061 -0.0082316 -0.0000586 0.0000104 0.0000342 0.0002638 0.0000640 -0.0000110 -0.0001142 -0.0000603 0.0009814 0.0017720 0.0005151 0.0018453
0.0014593 -0.0116514 0.0179109 -0.0418594 -0.0012414 -0.0003608 0.0002819 0.0100156 -0.0000616 0.0000615 0.0000316 0.0003518 0.0000343 0.0000515 -0.0001070 -0.0000205 0.0009725 0.0017838 0.0005414 0.0021006
-0.0003179 0.0067023 0.0063166 -0.0092011 0.0076884 -0.0113424 -0.0010903 0.0108486 -0.0000843 0.0001572 0.0000282 0.0004669 0.0000084 0.0001200 -0.0001211 0.0000569 0.0009400 0.0017937 0.0006002 0.0023347
-0.0018977 0.0067339 -0.0093927 0.0084182 -0.0000693 0.0075472 0.0019585 -0.0020799 -0.0001022 0.0002982 0.0000244 0.0006142 -0.0000022 0.0001989 -0.0001416 0.0001490 0.0009139 0.0018505 0.0006374 0.0024153
-0.0008927 -0.0022351 -0.0065941 0.0075829 -0.0041200 0.0099322 0.0072135 -0.0079054 -0.0001140 0.0003357 0.0000265 0.0006165 0.0000042 0.0002112 -0.0001534 0.0001082 0.0009170 0.0018540 0.0006240 0.0023034
-0.0028537 0.0066919 0.0070917 -0.0092914 0.0031536 -0.0095362 0.0042523 0.0031275 -0.0001191 0.0000996 0.0000340 0.0003968 0.0000333 0.0000812 -0.0001312 -0.0000705 0.0009212 0.0016761 0.0005369 0.0020362
-0.0000505 0.0056950 0.0145918 -0.0260120 0.0066175 -0.0169471 -0.0043142 0.0129885 -0.0001099 -0.0000894 0.0000438 0.0002953 0.0000515 0.0000352 -0.0001188 -0.0001302 0.0009134 0.0015707 0.0004019 0.0017664
0.0070672 -0.0148757 0.0064282 -0.0055670 0.0035382 -0.0078346 -0.0030694 0.0128748 -0.0001070 -0.0000511 0.0000529 0.0003956 0.0000436 0.0001295 -0.0001334 -0.0000700 0.0009178 0.0016113 0.0002983 0.0014950
-0.0021995 -0.0099009 0.0021294 -0.0078464 -0.0002591 0.0033341 -0.0002440 0.0068303 -0.0001131 0.0000604 0.0000576 0.0005338 0.0000303 0.0002569 -0.0001472 0.0000066 0.0009163 0.0016664 0.0003026 0.0013227
-0.0087115 0.0086452 -0.0010597 -0.0092510 -0.0015421 0.0022333 -0.0036328 0.0075203 -0.0001222 0.0002390 0.0000574 0.0007087 0.0000316 0.0003862 -0.0001556 0.0001028 0.0008912 0.0017271 0.0003220 0.0013219
0.0049354 -0.0063821 0.0077232 -0.0192799 0.0023052 -0.0127173 -0.0022906 0.0000039 -0.0001290 0.0001925 0.0000584 0.0006389 0.0000500 0.0003386 -0.0001556 0.0000452 0.0008763 0.0016798 0.0003060 0.0012733
0.0011827 -0.0075370 0.0059452 -0.0090133 0.0058486 -0.0147361 0.0025083 -0.0109155 -0.0001283 -0.0000823 0.0000588 0.0003693 0.0000721 0.0001568 -0.0001392 -0.0001178 0.0008849 0.0015627 0.0002871 0.0011666
0.0012978 -0.0058528 -0.0003572 0.0072573 0.0054149 -0.0065148 -0.0034354 0.0051373 -0.0001203 -0.0002018 0.0000641 0.0003197 0.0000862 0.0000976 -0.0001221 -0.0001601 0.0008946 0.0015104 0.0002441 0.0011252
0.0024444 0.0037503 0.0048600 -0.0037905 0.0058351 -0.0042236 -0.0056587 0.0080045 -0.0001244 -0.0001282 0.0000765 0.0004599 0.0000748 0.0002024 -0.0001174 -0.0000946 0.0008935 0.0015290 0.0002266 0.0011455
0.0035715 0.0019577 0.0018565 -0.0016799 0.0026741 -0.0030624 -0.0019886 0.0034346 -0.0001364 -0.0000247 0.0000857 0.0006347 0.0000545 0.0003469 -0.0001244 -0.0000012 0.0008847 0.0015899 0.0002529 0.0011986
0.0175248 -0.0377409 0.0005657 0.0081392 -0.0008131 0.0042642 0.0027553 -0.0061174 -0.0001450 0.0000432 0.0000931 0.0007183 0.0000459 0.0003698 -0.0001409 0.0000065 0.0008867 0.0016096 0.0002943 0.0011717
0.0033905 -0.0186503 0.0005301 0.0102611 0.0019732 0.0039870 0.0053760 -0.0179038 -0.0001503 -0.0001571 0.0000942 0.0005163 0.0000656 0.0002063 -0.0001377 -0.0001372 0.0008962 0.0015225 0.0003189 0.0010523
-0.0071276 -0.0018379 -0.0051775 0.0096318 -0.0019488 0.0106037 0.0029798 -0.0053352 -0.0001481 -0.0004098 0.0001020 0.0003336 0.0000911 0.0000640 -0.0001179 -0.0002215 0.0009106 0.0014689 0.0002919 0.0010064
0.0023731 -0.0088596 0.0098005 -0.0197432 0.0011059 0.0055670 -0.0058681 0.0162263 -0.0001420 -0.0003951 0.0001060 0.0003991 0.0000861 0.0000828 -0.0001131 -0.0001551 0.0009148 0.0015254 0.0002593 0.0010728
-0.0000420 0.0031682 0.0104567 -0.0203456 0.0005872 0.0005758 -0.0041789 0.0139661 -0.0001388 -0.0002724 0.0001005 0.0005294 0.0000578 0.0001803 -0.0001107 -0.0000699 0.0009059 0.0015899 0.0002517 0.0011414
0.0025450 -0.0066937 -0.0029106 -0.0063732 -0.0021122 -0.0064003 -0.0000543 0.0048561 -0.0001411 -0.0001151 0.0001054 0.0006758 0.0000304 0.0002885 -0.0001014 0.0000010 0.0009051 0.0016243 0.0002763 0.0011714
0.0146090 -0.0352981 0.0126216 -0.0460240 0.0174407 -0.0506752 0.0061607 -0.0061914 -0.0001427 -0.0001946 0.0001105 0.0005524 0.0000313 0.0001888 -0.0000955 -0.0000923 0.0009050 0.0015483 0.0003155 0.0010737
0.0111614 -0.0210330 0.0070502 -0.0120716 0.0055295 -0.0133547 0.0045807 -0.0025991 -0.0001367 -0.0004470 0.0001056 0.0002892 0.0000670 -0.0000266 -0.0000921 -0.0002248 0.0009076 0.0014594 0.0003097 0.0010295
0.0030012 0.0012476 0.0023111 0.0011234 0.0010460 0.0061333 -0.0049537 0.0116491 -0.0001336 -0.0004897 0.0001006 0.0002938 0.0000879 -0.0000725 -0.0000961 -0.0002129 0.0009160 0.0014636 0.0002963 0.0010835
0.0017904 0.0040478 0.0005883 0.0016656 0.0025931 0.0025626 -0.0013152 0.0038939 -0.0001281 -0.0003633 0.0000998 0.0004237 0.0000809 -0.0000001 -0.0001005 -0.0001522 0.0009138 0.0015085 0.0002772 0.0011289
0.0007248 0.0024239 -0.0072961 0.0135360 -0.0058054 0.0110154 0.0020307 -0.0039852 -0.0001234 -0.0002144 0.0001025 0.0005615 0.0000561 0.0001196 -0.0000862 -0.0000792 0.0009064 0.0015914 0.0002823 0.0012226
-0.0064122 0.0104751 -0.0076267 0.0040190 -0.0052877 0.0081242 0.0006254 -0.0020485 -0.0001327 -0.0001473 0.0001009 0.0005653 0.0000282 0.0001376 -0.0000720 -0.0001024 0.0008980 0.0015822 0.0002989 0.0012337
-0.0028635 0.0005292 -0.0043221 -0.0005190 0.0096120 -0.0229832 0.0032138 -0.0071567 -0.0001400 -0.0003285 0.0000991 0.0003398 0.0000290 -0.0000019 -0.0000699 -0.0002368 0.0008979 0.0014637 0.0003008 0.0011358
-0.0033380 0.0023201 -0.0062864 0.0069953 -0.0002815 -0.0014835 -0.0004032 -0.0024252 -0.0001378 -0.0004796 0.0001054 0.0002338 0.0000589 -0.0000854 -0.0000770 -0.0002783 0.0008973 0.0014160 0.0002922 0.0011073
0.0093138 -0.0131506 -0.0012521 0.0104688 -0.0082022 0.0178659 -0.0021712 -0.0009014 -0.0001330 -0.0003998 0.0001043 0.0003334 0.0000764 -0.0000406 -0.0000874 -0.0002047 0.0008789 0.0014598 0.0002699 0.0011657
0.0206787 -0.0424536 -0.0003162 0.0127759 -0.0006717 0.0082333 0.0034528 -0.0130130 -0.0001269 -0.0002831 0.0001024 0.0004668 0.0000509 0.0000599 -0.0000901 -0.0001272 0.0008688 0.0015253 0.0002685 0.0012422
0.0126945 -0.0309883 -0.0022315 0.0043213 0.0032033 -0.0023931 0.0040672 -0.0038007 -0.0001260 -0.0001486 0.0001036 0.0005619 0.0000352 0.0001040 -0.0000708 -0.0001302 0.0008782 0.0015272 0.0002584 0.0012810
0.0005785 -0.0039366 0.0063039 -0.0047295 0.0049917 -0.0034947 0.0002377 0.0149522 -0.0001290 -0.0002779 0.0001050 0.0003633 0.0000418 -0.0000368 -0.0000477 -0.0002770 0.0008853 0.0014221 0.0002557 0.0011942
-0.0024924 0.0081013 0.0071460 -0.0037027 0.0053972 -0.0046010 0.0016817 0.0025211 -0.0001245 -0.0004956 0.0001130 0.0001561 0.0000559 -0.0001440 -0.0000532 -0.0003485 0.0008783 0.0013632 0.0002772 0.0011490
-0.0024921 0.0062437 0.0015629 -0.0017122 0.0041373 -0.0116557 0.0176988 -0.0498886 -0.0001215 -0.0004729 0.0001178 0.0002155 0.0000627 -0.0000948 -0.0000682 -0.0002766 0.0008663 0.0014039 0.0002959 0.0012027
0.0054493 -0.0099022 -0.0007680 0.0070029 -0.0037403 0.0022954 0.0142732 -0.0386449 -0.0001207 -0.0003589 0.0001191 0.0003328 0.0000563 -0.0000321 -0.0000714 -0.0002102 0.0008562 0.0014535 0.0002938 0.0012627
0.0106881 -0.0186667 -0.0099134 0.0150847 -0.0072796 0.0089885 0.0150362 -0.0322386 -0.0001160 -0.0002142 0.0001169 0.0004650 0.0000634 0.0000105 -0.0000512 -0.0002051 0.0008619 0.0014562 0.0002569 0.0013024
0.0092673 -0.0205991 -0.0102038 0.0103052 -0.0064395 0.0112180 0.0049325 -0.0012929 -0.0001190 -0.0003229 0.0001083 0.0002978 0.0000692 -0.0001099 -0.0000229 -0.0003449 0.0008689 0.0013662 0.0002430 0.0012506
0.0135465 -0.0289694 -0.0029222 0.0053333 0.0003954 0.0015611 0.0022825 -0.0012197 -0.0001187 -0.0005494 0.0001089 0.0000593 0.0000592 -0.0002405 -0.0000080 -0.0004556 0.0008700 0.0012938 0.0002504 0.0012105
0.0058790 -0.0044430 -0.0032599 0.0101192 -0.0008889 -0.0006383 0.0003488 -0.0046855 -0.0001097 -0.0005562 0.0001214 0.0000847 0.0000503 -0.0002121 -0.0000193 -0.0004099 0.0008639 0.0013137 0.0002930 0.0012246
-0.0028689 0.0232239 -0.0040066 0.0075841 -0.0147435 0.0156682 -0.0051153 0.0076408 -0.0001097 -0.0004465 0.0001327 0.0001912 0.0000474 -0.0001460 -0.0000347 -0.0003366 0.0008512 0.0013675 0.0003220 0.0012738
-0.0074533 0.0218738 0.0015949 -0.0037164 0.0015106 -0.0029355 -0.0024329 0.0011042 -0.0001093 -0.0002980 0.0001302 0.0003457 0.0000477 -0.0000456 -0.0000537 -0.0002386 0.0008413 0.0014369 0.0003065 0.0013669
-0.0097978 0.0053771 0.0011287 0.0069651 0.0048588 -0.0056835 -0.0001973 0.0032120 -0.0001126 -0.0003479 0.0001249 0.0002394 0.0000640 -0.0001244 -0.0000448 -0.0003333 0.0008391 0.0013826 0.0002736 0.0013528
-0.0042921 0.0072616 0.0043948 0.0023725 -0.0035176 0.0072855 -0.0029922 0.0072805 -0.0001097 -0.0006030 0.0001250 -0.0000841 0.0000851 -0.0003595 -0.0000054 -0.0005550 0.0008511 0.0012507 0.0002615 0.0012511
0.0011187 -0.0035360 0.0058567 -0.0055272 0.0021223 -0.0033416 -0.0064441 0.0075538 -0.0001025 -0.0006957 0.0001339 -0.0001615 0.0000686 -0.0004020 -0.0000004 -0.0005666 0.0008601 0.0012238 0.0002606 0.0012668
-0.0096597 0.0100540 -0.0003613 -0.0025891 -0.0034930 0.0038857 0.0008951 -0.0032724 -0.0000999 -0.0006038 0.0001452 -0.0000317 0.0000426 -0.0002926 -0.0000068 -0.0004801 0.0008599 0.0012715 0.0002841 0.0013299
-0.0045873 0.0044747 -0.0026154 -0.0015098 -0.0094406 0.0240886 0.0068148 -0.0141926 -0.0000988 -0.0004692 0.0001511 0.0001145 0.0000459 -0.0001949 -0.0000151 -0.0003959 0.0008469 0.0013421 0.0003166 0.0013797
0.0139337 -0.0316557 0.0000522 -0.0051631 -0.0045872 0.0175998 0.0047124 -0.0101896 -0.0001047 -0.0003146 0.0001457 0.0002726 0.0000703 -0.0001173 -0.0000250 -0.0003286 0.0008261 0.0013999 0.0003084 0.0014201
0.0088559 -0.0261671 -0.0068421 0.0093333 0.0009351 0.0054230 -0.0066969 0.0116535 -0.0001097 -0.0003999 0.0001336 0.0001273 0.0000933 -0.0002476 -0.0000072 -0.0004647 0.0008316 0.0013126 0.0002890 0.0013522
0.0020872 -0.0164239 -0.0096305 0.0139387 0.0046763 -0.0012273 -0.0093715 0.0222357 -0.0001029 -0.0006894 0.0001332 -0.0002318 0.0000986 -0.0004903 0.0000163 -0.0006549 0.0008468 0.0011811 0.0002532 0.0012952
0.0059962 -0.0074749 -0.0017491 0.0012562 0.0079313 -0.0121392 -0.0039508 0.0153461 -0.0000890 -0.0007867 0.0001388 -0.0002953 0.0000751 -0.0005181 0.0000353 -0.0006679 0.0008528 0.0011684 0.0002449 0.0013072
0.0107615 -0.0111845 0.0005836 0.0028236 0.0064321 -0.0106383 -0.0024171 0.0035142 -0.0000858 -0.0006966 0.0001420 -0.0001540 0.0000616 -0.0004395 0.0000404 -0.0005933 0.0008534 0.0012082 0.0002709 0.0013394
-0.0037004 0.0074786 0.0088020 -0.0108514 0.0051328 -0.0089141 0.0040545 -0.0046114 -0.0000878 -0.0005649 0.0001472 -0.0000010 0.0000581 -0.0003434 0.0000185 -0.0004834 0.0008390 0.0012752 0.0002963 0.0014166
-0.0137503 0.0224350 -0.0057956 0.0094624 0.0038006 -0.0126829 0.0060864 -0.0055371 -0.0000901 -0.0004187 0.0001488 0.0001558 0.0000705 -0.0002408 -0.0000091 -0.0003718 0.0008197 0.0013584 0.0003040 0.0015081
-0.0049103 0.0096727 -0.0144941 0.0213815 0.0013218 -0.0010136 0.0000294 0.0036095 -0.0000890 -0.0003262 0.0001403 0.0001803 0.0000864 -0.0002384 -0.0000148 -0.0003962 0.0008114 0.0013519 0.0003098 0.0014924
0.0013934 -0.0035597 -0.0014837 0.0021426 0.0047413 -0.0032554 -0.0029467 0.0086378 -0.0000854 -0.0005186 0.0001336 -0.0000997 0.0000850 -0.0004224 0.0000050 -0.0005981 0.0008164 0.0012138 0.0003115 0.0013683
0.0015631 -0.0036924 0.0037877 -0.0134727 0.0070164 -0.0147666 0.0011283 0.0041755 -0.0000797 -0.0007687 0.0001364 -0.0003171 0.0000851 -0.0005699 0.0000263 -0.0007029 0.0008267 0.0011334 0.0002924 0.0013473
0.0063076 -0.0201581 0.0127023 -0.0329134 0.0023380 -0.0063466 0.0017249 0.0078951 -0.0000763 -0.0007764 0.0001426 -0.0002597 0.0000679 -0.0005327 0.0000345 -0.0006413 0.0008225 0.0011673 0.0002739 0.0014182
0.0064065 -0.0095521 0.0089065 -0.0274212 -0.0020439 0.0025507 0.0046154 -0.0042721 -0.0000835 -0.0006681 0.0001493 -0.0001317 0.0000551 -0.0004583 0.0000323 -0.0005591 0.0008165 0.0012105 0.0002830 0.0014771
-0.0035175 0.0026469 0.0007215 -0.0023051 -0.0078120 0.0099003 0.0007259 -0.0036811 -0.0000900 -0.0005199 0.0001527 0.0000256 0.0000621 -0.0003624 0.0000107 -0.0004591 0.0008013 0.0012713 0.0003148 0.0015418
-0.0085353 0.0075137 -0.0038732 0.0111204 -0.0064121 0.0113217 -0.0030388 -0.0042375 -0.0000916 -0.0003738 0.0001487 0.0001822 0.0000686 -0.0002503 -0.0000201 -0.0003378 0.0007744 0.0013451 0.0003340 0.0016516
0.0012981 -0.0013974 -0.0024027 0.0133637 -0.0022210 0.0055254 0.0013106 -0.0086125 -0.0000939 -0.0003250 0.0001369 0.0001498 0.0000836 -0.0002590 -0.0000087 -0.0003581 0.0007702 0.0012932 0.0003356 0.0016808
0.0062066 -0.0152725 -0.0023701 0.0126395 -0.0013369 0.0039656 0.0025143 -0.0038176 -0.0000945 -0.0005416 0.0001281 -0.0001695 0.0001007 -0.0004678 0.0000433 -0.0005645 0.0007817 0.0011216 0.0003238 0.0015977
-0.0013971 0.0068174 0.0018863 0.0028074 0.0067066 -0.0064676 0.0023951 0.0000943 -0.0000823 -0.0007516 0.0001334 -0.0003544 0.0000921 -0.0005847 0.0000720 -0.0006567 0.0007885 0.0010398 0.0003118 0.0015977
0.0012525 0.0006467 0.0057358 -0.0015605 0.0068979 -0.0081736 0.0016502 0.0013512 -0.0000753 -0.0007322 0.0001421 -0.0002773 0.0000811 -0.0005211 0.0000684 -0.0005636 0.0007771 0.0010745 0.0003208 0.0016625
0.0029646 -0.0069304 0.0012925 -0.0063063 0.0015919 -0.0030700 0.0013042 -0.0064165 -0.0000858 -0.0006200 0.0001452 -0.0001486 0.0000717 -0.0004342 0.0000782 -0.0004097 0.0007563 0.0011152 0.0003957 0.0017729
0.0017384 -0.0081676 0.0067665 -0.0300174 0.0042703 -0.0079719 0.0009861 0.0028114 -0.0000929 -0.0004708 0.0001472 -0.0000352 0.0000658 -0.0003542 0.0001480 -0.0001065 0.0007179 0.0011103 0.0005111 0.0020295
0.0003774 -0.0047582 0.0062351 -0.0177825 -0.0032237 0.0103385 0.0013576 0.0039428 -0.0000782 -0.0003063 0.0001562 0.0000881 0.0000823 -0.0002907 0.0002453 0.0002413 0.0006592 0.0010759 0.0005707 0.0024404
-0.0051286 0.0084949 0.0086894 -0.0209714 -0.0009617 0.0072245 0.0041368 -0.0100844 -0.0000095 -0.0002934 0.0002458 0.0000900 0.0000800 -0.0004559 0.0005707 0.0008382 0.0003586 0.0005059 0.0003479 0.0022007
-0.0032447 -0.0006250 0.0075857 -0.0218788 0.0084717 -0.0113353 -0.0021704 0.0035537 0.0009039 0.0007659 0.0011260 0.0009505 0.0004801 -0.0000883 0.0013313 0.0020323 -0.0004145 -0.0010348 -0.0002888 0.0006963
0.0120944 -0.0360517 0.0142350 -0.0332174 0.0061993 -0.0074150 -0.0000608 0.0039304 0.0018090 0.0020964 0.0019790 0.0021344 0.0009589 0.0007482 0.0017510 0.0026025 -0.0010110 -0.0022560 -0.0007355 -0.0005354
0.0152540 -0.0261726 0.0092008 -0.0259319 0.0044360 -0.0042967 0.0035374 0.0015742 0.0018441 0.0022334 0.0020412 0.0023851 0.0010189 0.0010137 0.0016265 0.0022681 -0.0010981 -0.0024482 -0.0008164 -0.0008294
0.0077311 -0.0024595 -0.0034394 0.0100987 -0.0005047 0.0019936 -0.0006637 0.0042119 0.0017149 0.0021509 0.0019367 0.0023822 0.0009702 0.0009636 0.0015132 0.0020655 -0.0011312 -0.0024144 -0.0008404 -0.0009218
0.0050440 -0.0109619 -0.0000979 0.0085162 0.0011177 -0.0125974 0.0095904 -0.0290237 0.0016455 0.0021933 0.0018578 0.0024260 0.0009415 0.0009304 0.0014517 0.0020092 -0.0011413 -0.0023500 -0.0008508 -0.0008647
0.0090666 -0.0242263 0.0026850 0.0050691 0.0024865 -0.0086366 0.0009099 -0.0070132 0.0015330 0.0021748 0.0018004 0.0025075 0.0009394 0.0009436 0.0013947 0.0018833 -0.0011465 -0.0023348 -0.0009516 -0.0010473
0.0109069 -0.0194254 -0.0000497 0.0163296 0.0032769 -0.0007283 0.0030866 -0.0083358 0.0013619 0.0017409 0.0017465 0.0021629 0.0009191 0.0008018 0.0013649 0.0016397 -0.0011481 -0.0024660 -0.0010429 -0.0013573
0.0015649 0.0088113 -0.0041953 0.0158791 0.0054329 -0.0081486 0.0082243 -0.0225417 0.0012241 0.0011962 0.0016729 0.0016261 0.0008732 0.0006033 0.0013318 0.0013989 -0.0011241 -0.0025471 -0.0010705 -0.0015037
-0.0054463 0.0220478 -0.0030001 0.0097379 0.0012595 0.0024997 -0.0024387 0.0060217 0.0011538 0.0010653 0.0016097 0.0014825 0.0008334 0.0005425 0.0012946 0.0013137 -0.0011085 -0.0024962 -0.0010664 -0.0015396
0.0026418 -0.0032223 -0.0043615 0.0170772 0.0048857 -0.0052320 0.0054107 -0.0058839 0.0010891 0.0011264 0.0015626 0.0015116 0.0008281 0.0005644 0.0012537 0.0013414 -0.0011159 -0.0024032 -0.0010547 -0.0014906
0.0086547 -0.0249303 -0.0032422 0.0120259 -0.0002961 -0.0015300 0.0119859 -0.0304674 0.0010090 0.0012125 0.0015016 0.0015991 0.0007970 0.0006022 0.0011803 0.0014270 -0.0010834 -0.0021820 -0.0011083 -0.0015422
-0.0033161 0.0023910 -0.0011564 -0.0007414 -0.0094695 0.0168357 -0.0034613 0.0027191 0.0009327 0.0013207 0.0014237 0.0016527 0.0007603 0.0006678 0.0011173 0.0014984 -0.0010420 -0.0020001 -0.0011345 -0.0015367
-0.0097170 0.0118614 0.0045281 -0.0151466 -0.0024559 0.0070822 -0.0045951 0.0131869 0.0008914 0.0012154 0.0013035 0.0013094 0.0007226 0.0005201 0.0010685 0.0012529 -0.0010025 -0.0020148 -0.0010637 -0.0013183
-0.0108959 0.0098323 0.0055547 -0.0147658 0.0016698 -0.0036508 -0.0017823 0.0004030 0.0008562 0.0009723 0.0011093 0.0007724 0.0006376 0.0002515 0.0009782 0.0009192 -0.0009582 -0.0020011 -0.0010425 -0.0011937
-0.0014560 -0.0038720 -0.0059191 0.0077763 0.0018151 -0.0068320 0.0006615 -0.0126364 0.0008097 0.0009277 0.0009111 0.0004978 0.0005618 0.0001816 0.0008896 0.0008133 -0.0009414 -0.0019137 -0.0009790 -0.0010002
0.0002568 -0.0050575 -0.0108106 0.0101514 0.0076348 -0.0170659 -0.0029811 0.0066369 0.0007728 0.0009850 0.0007718 0.0003987 0.0005013 0.0001690 0.0008417 0.0008633 -0.0009376 -0.0017985 -0.0008334 -0.0006006
-0.0000353 0.0093358 -0.0083643 0.0079718 0.0012401 -0.0021388 -0.0049924 0.0072249 0.0007938 0.0011582 0.0007722 0.0005626 0.0004780 0.0001732 0.0009585 0.0013003 -0.0009601 -0.0017699 -0.0007935 -0.0004524
0.0009958 0.0076313 0.0005194 -0.0003831 -0.0022664 0.0039777 0.0025401 -0.0110368 0.0012283 0.0018953 0.0010581 0.0009991 0.0005537 0.0002029 0.0012708 0.0019483 -0.0010235 -0.0020152 -0.0008202 -0.0005221
0.0038731 -0.0031859 0.0037807 -0.0099111 -0.0038748 0.0032801 -0.0002799 0.0032464 0.0017415 0.0025234 0.0013006 0.0010486 0.0006699 0.0001850 0.0014263 0.0020474 -0.0010876 -0.0023768 -0.0008898 -0.0006853
0.0013256 0.0068073 0.0003556 0.0007908 -0.0072750 0.0100926 -0.0059360 0.0134202 0.0018045 0.0024423 0.0012321 0.0007479 0.0006582 0.0001324 0.0012369 0.0014551 -0.0011109 -0.0024767 -0.0010753 -0.0011876
0.0007401 0.0011895 0.0040741 -0.0041563 0.0049467 -0.0097396 -0.0014934 0.0022169 0.0016075 0.0021441 0.0010130 0.0004864 0.0005222 0.0000928 0.0010314 0.0010854 -0.0011686 -0.0023930 -0.0012817 -0.0017362
0.0151558 -0.0338163 0.0014606 -0.0063905 0.0059137 -0.0114870 -0.0026285 -0.0075249 0.0014326 0.0019536 0.0008873 0.0004179 0.0004353 0.0001240 0.0010086 0.0012197 -0.0012539 -0.0024156 -0.0013879 -0.0020302
0.0055584 -0.0095757 -0.0011480 0.0068751 0.0033090 0.0002232 -0.0063019 -0.0015382 0.0013290 0.0019344 0.0008974 0.0006355 0.0004446 0.0002680 0.0010167 0.0013674 -0.0013030 -0.0024913 -0.0014093 -0.0021644
-0.0064633 -0.0006741 0.0057539 -0.0080285 0.0053162 -0.0023074 0.0092787 -0.0189857 0.0012272 0.0016709 0.0009000 0.0004696 0.0004948 0.0001846 0.0010286 0.0012451 -0.0013242 -0.0026644 -0.0013844 -0.0022800
-0.0027759 -0.0002642 0.0083529 -0.0158395 0.0042147 -0.0054484 0.0119034 -0.0241976 0.0011392 0.0011878 0.0009024 0.0000064 0.0005435 -0.0001163 0.0010628 0.0010091 -0.0013186 -0.0028441 -0.0013677 -0.0023320
0.0036430 -0.0012871 0.0016353 -0.0008338 0.0051604 -0.0117452 -0.0062754 0.0105807 0.0010856 0.0009317 0.0009307 -0.0000825 0.0005429 -0.0002395 0.0011353 0.0011195 -0.0013071 -0.0028880 -0.0013805 -0.0022541
0.0006719 0.0046454 0.0029219 -0.0065627 -0.0060397 0.0042900 -0.0062745 0.0159393 0.0010839 0.0009815 0.0009673 0.0001141 0.0005248 -0.0001767 0.0011940 0.0013270 -0.0013094 -0.0028813 -0.0013930 -0.0022130
-0.0001947 0.0083133 0.0072304 -0.0113917 -0.0049026 0.0014304 -0.0036676 0.0086201 0.0010744 0.0010937 0.0009477 0.0002576 0.0004935 -0.0001209 0.0011209 0.0012139 -0.0012885 -0.0027075 -0.0013899 -0.0022698
0.0034019 -0.0064400 0.0067274 -0.0034042 0.0088369 -0.0204756 -0.0011585 0.0005807 0.0010098 0.0011326 0.0008652 0.0002371 0.0004408 -0.0000844 0.0009889 0.0009036 -0.0012336 -0.0025329 -0.0013805 -0.0023208
0.0023136 -0.0114345 0.0005841 0.0049054 0.0035629 -0.0126003 0.0006878 -0.0006920 0.0009252 0.0008324 0.0007174 -0.0001950 0.0004069 -0.0001962 0.0008660 0.0005562 -0.0012136 -0.0025529 -0.0014128 -0.0025590
0.0042093 -0.0036924 -0.0047307 0.0025502 -0.0026458 0.0006712 -0.0032018 0.0075023 0.0008447 0.0004035 0.0005844 -0.0006098 0.0003909 -0.0003489 0.0007929 0.0003705 -0.0012195 -0.0025952 -0.0014520 -0.0028089
0.0022795 0.0009262 -0.0021193 0.0038633 0.0062228 -0.0131529 -0.0012576 0.0031263 0.0007845 0.0002881 0.0005272 -0.0006208 0.0004141 -0.0002883 0.0007945 0.0003924 -0.0012341 -0.0026734 -0.0014917 -0.0027663
0.0013594 -0.0094713 0.0050944 -0.0082905 0.0048027 -0.0071059 0.0005940 -0.0020225 0.0006841 0.0002517 0.0004669 -0.0005152 0.0004065 -0.0001690 0.0007699 0.0003866 -0.0012294 -0.0026552 -0.0015252 -0.0026227
0.0093765 -0.0193137 0.0083441 -0.0209616 -0.0003268 0.0022677 -0.0023338 0.0023011 0.0005345 0.0001836 0.0004070 -0.0003356 0.0003856 -0.0000167 0.0007371 0.0003970 -0.0012397 -0.0025927 -0.0015559 -0.0025407
0.0096666 -0.0151135 -0.0058511 0.0079690 0.0052558 -0.0191776 -0.0050408 0.0042111 0.0004257 0.0000608 0.0003809 -0.0003768 0.0003929 -0.0000287 0.0007651 0.0003658 -0.0012545 -0.0026728 -0.0015469 -0.0025989
0.0013189 -0.0028148 -0.0154010 0.0181474 0.0045503 -0.0248276 -0.0017093 0.0046387 0.0004072 -0.0002120 0.0004059 -0.0006923 0.0003890 -0.0003013 0.0008123 0.0002305 -0.0012223 -0.0027527 -0.0014755 -0.0027161
-0.0073200 0.0093013 -0.0144834 0.0117226 -0.0034059 -0.0039021 -0.0011971 0.0057514 0.0004305 -0.0003855 0.0004569 -0.0007900 0.0003906 -0.0004439 0.0008479 0.0003166 -0.0012087 -0.0027553 -0.0014286 -0.0027187
-0.0035303 0.0082014 -0.0102527 0.0127736 -0.0016257 -0.0010843 -0.0039009 0.0060610 0.0005397 -0.0002100 0.0006334 -0.0004371 0.0003771 -0.0006073 0.0010123 0.0008351 -0.0012337 -0.0027149 -0.0014156 -0.0025957
0.0056627 -0.0055107 -0.0082404 0.0141512 0.0005282 -0.0068579 -0.0070214 0.0110031 0.0007065 0.0002075 0.0007824 -0.0000955 0.0003343 -0.0007789 0.0010620 0.0010407 -0.0012935 -0.0026809 -0.0015026 -0.0026412
0.0031714 -0.0053420 0.0115344 -0.0182401 0.0080070 -0.0222255 -0.0028674 0.0107369 0.0007815 0.0005989 0.0007380 0.0000087 0.0003077 -0.0006850 0.0009499 0.0009067 -0.0013456 -0.0026343 -0.0016522 -0.0028503
-0.0100381 0.0063402 0.0090593 -0.0130767 -0.0028339 0.0005158 -0.0017400 0.0133840 0.0007923 0.0005950 0.0006995 -0.0001973 0.0003015 -0.0007476 0.0009428 0.0007604 -0.0013341 -0.0026807 -0.0017227 -0.0030686
-0.0149354 0.0149560 0.0019399 -0.0070102 -0.0118159 0.0194923 -0.0081510 0.0194568 0.0007888 0.0002814 0.0006640 -0.0006617 0.0003002 -0.0010004 0.0009456 0.0004587 -0.0013066 -0.0028460 -0.0015393 -0.0026648
-0.0042714 0.0147964 0.0106633 -0.0265747 0.0002293 0.0035655 0.0026182 -0.0031392 0.0007766 0.0001492 0.0006122 -0.0008543 0.0003057 -0.0011093 0.0009137 0.0003389 -0.0012939 -0.0028620 -0.0013459 -0.0021323
-0.0027148 0.0100373 0.0041511 -0.0112901 0.0003689 0.0039941 0.0125757 -0.0204502 0.0007711 0.0002702 0.0006079 -0.0007288 0.0003261 -0.0010999 0.0009494 0.0005586 -0.0012844 -0.0027407 -0.0013643 -0.0020476
0.0008700 -0.0037710 0.0023949 -0.0075348 -0.0070262 0.0141937 0.0049036 -0.0074530 0.0009577 0.0007001 0.0006948 -0.0004477 0.0003393 -0.0010466 0.0010056 0.0008088 -0.0013258 -0.0027023 -0.0013948 -0.0019808
0.0049623 -0.0059165 -0.0004772 -0.0016329 -0.0030973 0.0030711 0.0001981 -0.0099605 0.0010975 0.0010688 0.0007300 -0.0002341 0.0003076 -0.0009946 0.0009314 0.0007153 -0.0013566 -0.0026866 -0.0014411 -0.0021026
-0.0026557 0.0032400 0.0031426 -0.0152980 -0.0028063 0.0073550 -0.0033238 0.0022451 0.0010460 0.0008976 0.0006675 -0.0005162 0.0002776 -0.0011756 0.0008623 0.0003443 -0.0013423 -0.0027754 -0.0014912 -0.0023939
-0.0079285 0.0010909 0.0006271 -0.0087238 -0.0006161 0.0076779 -0.0052292 0.0063548 0.0010164 0.0005606 0.0006432 -0.0009529 0.0002827 -0.0014279 0.0008777 0.0001194 -0.0013402 -0.0029335 -0.0014994 -0.0025164
-0.0075997 0.0060372 0.0012261 -0.0082784 0.0061999 -0.0065498 -0.0005602 -0.0096618 0.0010337 0.0005180 0.0006778 -0.0009937 0.0002875 -0.0015271 0.0009426 0.0002405 -0.0013518 -0.0029858 -0.0014743 -0.0024817
0.0008759 0.0035266 0.0057572 -0.0086719 -0.0002136 0.0048630 0.0104160 -0.0236985 0.0011280 0.0007709 0.0007595 -0.0007979 0.0002645 -0.0016188 0.0009544 0.0003719 -0.0013902 -0.0029621 -0.0014725 -0.0025843
0.0116245 -0.0159498 0.0053394 0.0026344 -0.0035724 0.0098954 0.0021781 -0.0003945 0.0011605 0.0009783 0.0007683 -0.0006058 0.0002384 -0.0016103 0.0008637 0.0003672 -0.0014425 -0.0028676 -0.0015215 -0.0026372
-0.0007724 -0.0016419 -0.0029794 0.0121813 -0.0000432 0.0040922 0.0005522 0.0002571 0.0011186 0.0010706 0.0007198 -0.0004623 0.0002263 -0.0015244 0.0008005 0.0003107 -0.0014583 -0.0028108 -0.0015517 -0.0026439
-0.0074528 0.0093962 -0.0109910 0.0182944 0.0035146 -0.0048695 0.0097437 -0.0210632 0.0010858 0.0008714 0.0006898 -0.0007602 0.0002271 -0.0017149 0.0008022 0.0000466 -0.0014452 -0.0029553 -0.0015863 -0.0027582
0.0037746 -0.0068352 0.0046460 -0.0039071 0.0157871 -0.0308985 0.0046020 -0.0052113 0.0010689 0.0005251 0.0006681 -0.0012245 0.0002271 -0.0019846 0.0008266 -0.0001793 -0.0014290 -0.0031294 -0.0016124 -0.0028169
0.0099140 -0.0164814 0.0076241 -0.0022139 0.0082726 -0.0147861 -0.0012380 0.0050186 0.0009945 0.0003459 0.0006115 -0.0011988 0.0002614 -0.0017368 0.0008158 -0.0001486 -0.0014060 -0.0031310 -0.0015952 -0.0027715
0.0041972 -0.0098276 -0.0033426 0.0145239 0.0013737 -0.0037069 -0.0079626 0.0144805 0.0007668 0.0001602 0.0003954 -0.0011176 0.0002893 -0.0013107 0.0006985 -0.0002606 -0.0013475 -0.0029370 -0.0015545 -0.0027470
-0.0023306 0.0051689 -0.0018538 0.0010551 0.0021493 -0.0086103 -0.0015315 0.0117110 0.0005424 0.0000458 0.0001629 -0.0011310 0.0002687 -0.0010768 0.0005036 -0.0004993 -0.0012587 -0.0025826 -0.0015393 -0.0026982
0.0003883 0.0074004 -0.0017937 0.0040962 -0.0108274 0.0135224 0.0018382 0.0047621 0.0003986 0.0000410 0.0000608 -0.0010567 0.0002729 -0.0009669 0.0003603 -0.0007292 -0.0011671 -0.0023188 -0.0015632 -0.0026483
0.0017245 0.0006265 -0.0120091 0.0209062 -0.0103163 0.0218050 0.0013727 -0.0015022 0.0002693 -0.0002928 0.0000186 -0.0012722 0.0002842 -0.0011350 0.0002792 -0.0010476 -0.0010915 -0.0022682 -0.0015626 -0.0026853
0.0059272 -0.0146265 -0.0127102 0.0216777 0.0022879 0.0014696 0.0032845 -0.0077096 0.0001595 -0.0007677 0.0000105 -0.0015881 0.0002768 -0.0013536 0.0002462 -0.0013105 -0.0010307 -0.0022779 -0.0015590 -0.0027355
0.0040825 -0.0122528 0.0006990 0.0013584 0.0061001 -0.0124596 -0.0079796 0.0165473 0.0000888 -0.0008889 0.0000119 -0.0015780 0.0002596 -0.0013840 0.0002456 -0.0013718 -0.0009533 -0.0021833 -0.0015175 -0.0026525
0.0061812 -0.0148513 0.0146856 -0.0347146 -0.0026745 0.0067449 -0.0048596 0.0187567 0.0000672 -0.0008053 0.0000201 -0.0014284 0.0002355 -0.0013208 0.0002310 -0.0013132 -0.0008983 -0.0020492 -0.0014722 -0.0025116
0.0017384 -0.0055345 0.0041859 -0.0199441 0.0007046 0.0031063 0.0027554 0.0043167 0.0000558 -0.0006449 0.0000315 -0.0012388 0.0002233 -0.0012200 0.0002121 -0.0012369 -0.0008868 -0.0019567 -0.0014603 -0.0024570
-0.0056272 0.0102197 -0.0002400 -0.0082731 0.0048041 -0.0060024 -0.0030006 0.0031439 0.0000520 -0.0005210 0.0000401 -0.0011858 0.0002483 -0.0012240 0.0001994 -0.0012922 -0.0008927 -0.0019549 -0.0014383 -0.0025124
0.0018843 0.0047764 -0.0013744 0.0048299 0.0021343 0.0037991 -0.0101490 0.0118616 0.0000528 -0.0007250 0.0000415 -0.0014167 0.0002867 -0.0014008 0.0001923 -0.0014766 -0.0008977 -0.0020754 -0.0014538 -0.0026003
0.0095217 -0.0043042 0.0005107 0.0021010 0.0042257 -0.0005990 -0.0010999 0.0076160 0.0000630 -0.0009722 0.0000526 -0.0015729 0.0002975 -0.0014962 0.0001984 -0.0015678 -0.0008923 -0.0021556 -0.0014864 -0.0026143
0.0020201 -0.0038625 0.0083981 -0.0133612 0.0032095 -0.0006130 0.0015475 0.0046676 0.0000781 -0.0009480 0.0000735 -0.0014773 0.0003067 -0.0014360 0.0002235 -0.0015297 -0.0008803 -0.0021500 -0.0015220 -0.0025606
-0.0009841 -0.0064619 0.0149561 -0.0284277 0.0004964 0.0089054 -0.0024149 0.0148940 0.0000814 -0.0008374 0.0001022 -0.0013110 0.0003175 -0.0013359 0.0002540 -0.0014653 -0.0008738 -0.0021203 -0.0015583 -0.0024705
0.0092963 -0.0175520 0.0051490 -0.0010714 0.0012803 0.0011906 0.0028530 0.0008231 0.0000769 -0.0006709 0.0001321 -0.0010998 0.0003153 -0.0011854 0.0002409 -0.0013444 -0.0008876 -0.0020642 -0.0015331 -0.0024227
0.0090320 -0.0252571 -0.0026058 0.0133414 -0.0009006 -0.0114527 0.0063943 -0.0199642 0.0000677 -0.0007566 0.0001468 -0.0011884 0.0003171 -0.0012411 0.0002269 -0.0014209 -0.0008905 -0.0021285 -0.0014511 -0.0024892
-0.0014760 -0.0068704 -0.0091127 0.0146106 -0.0039139 0.0016746 -0.0047657 0.0111486 0.0000664 -0.0010623 0.0001596 -0.0014677 0.0003334 -0.0014426 0.0002456 -0.0016054 -0.0008772 -0.0022601 -0.0014091 -0.0025726
0.0040152 -0.0124626 -0.0080500 0.0169292 0.0012611 0.0022580 -0.0048790 0.0136800 0.0000685 -0.0011461 0.0001782 -0.0014908 0.0003615 -0.0014854 0.0002637 -0.0016207 -0.0008696 -0.0022777 -0.0014514 -0.0025607
0.0072455 -0.0184267 -0.0019912 -0.0002481 0.0042360 -0.0052473 -0.0077092 0.0089025 0.0000692 -0.0010360 0.0001932 -0.0013370 0.0003778 -0.0014086 0.0002647 -0.0015406 -0.0008676 -0.0022170 -0.0015147 -0.0024649
0.0094777 -0.0178687 0.0048855 -0.0212922 -0.0021662 0.0110628 -0.0100650 0.0137916 0.0000757 -0.0008980 0.0002085 -0.0011558 0.0003844 -0.0012991 0.0002637 -0.0014350 -0.0008713 -0.0021375 -0.0015421 -0.0023602
0.0076361 -0.0154425 -0.0019599 0.0008723 -0.0092859 0.0180517 -0.0007809 0.0035798 0.0000795 -0.0007556 0.0002244 -0.0010002 0.0003806 -0.0012192 0.0002835 -0.0014327 -0.0008613 -0.0021249 -0.0014929 -0.0023938
-0.0088921 0.0164561 -0.0058638 0.0071868 -0.0110609 0.0165683 0.0026099 -0.0038225 0.0000718 -0.0009562 0.0002284 -0.0012053 0.0003698 -0.0013541 0.0003086 -0.0016433 -0.0008332 -0.0022418 -0.0014468 -0.0025221
-0.0081493 0.0156063 0.0009985 -0.0055683 0.0007807 0.0055318 -0.0047191 0.0074503 0.0000644 -0.0013223 0.0002387 -0.0015135 0.0003737 -0.0015354 0.0003240 -0.0018223 -0.0008219 -0.0023433 -0.0014407 -0.0026053
0.0030467 -0.0149805 0.0027284 -0.0063787 0.0068306 -0.0126422 -0.0076751 0.0073724 0.0000632 -0.0013853 0.0002544 -0.0015073 0.0004129 -0.0015408 0.0003191 -0.0017827 -0.0008358 -0.0023414 -0.0014437 -0.0025705
0.0128881 -0.0247702 0.0007440 0.0012546 -0.0023978 0.0088117 -0.0059899 0.0011236 0.0000625 -0.0012860 0.0002636 -0.0013733 0.0004387 -0.0014488 0.0003073 -0.0016550 -0.0008450 -0.0022911 -0.0014364 -0.0024573
0.0114966 -0.0159846 -0.0007726 0.0086863 -0.0067703 0.0219970 -0.0022460 0.0045304 0.0000609 -0.0011487 0.0002686 -0.0011844 0.0004317 -0.0013105 0.0003094 -0.0015312 -0.0008447 -0.0022177 -0.0014394 -0.0023555
0.0049168 -0.0092103 -0.0063876 0.0070951 -0.0036505 0.0156387 0.0034538 -0.0072935 0.0000589 -0.0011374 0.0002675 -0.0011969 0.0004290 -0.0013343 0.0003407 -0.0016148 -0.0008282 -0.0022605 -0.0014837 -0.0023628
-0.0017570 0.0006353 0.0104753 -0.0226150 0.0071774 -0.0025122 -0.0002992 0.0055127 0.0000558 -0.0014235 0.0002727 -0.0014703 0.0004280 -0.0015401 0.0003793 -0.0018569 -0.0008012 -0.0024238 -0.0014901 -0.0024950
-0.0041070 0.0069506 0.0123162 -0.0110459 0.0081165 -0.0060057 -0.0038224 0.0166307 0.0000575 -0.0016692 0.0002877 -0.0016023 0.0004283 -0.0016453 0.0003836 -0.0019326 -0.0007886 -0.0024897 -0.0014563 -0.0025696
-0.0080300 0.0146495 0.0040200 0.0018596 -0.0013822 0.0090046 -0.0032107 0.0105998 0.0000627 -0.0016455 0.0003009 -0.0015025 0.0004207 -0.0015874 0.0003635 -0.0018382 -0.0007910 -0.0024299 -0.0014191 -0.0025593
-0.0036233 0.0089589 -0.0033792 0.0052035 -0.0031959 0.0092326 0.0061553 -0.0010979 0.0000624 -0.0015240 0.0003069 -0.0013478 0.0004276 -0.0015091 0.0003584 -0.0017488 -0.0007910 -0.0023551 -0.0014013 -0.0025328
-0.0020161 0.0093246 -0.0050390 0.0102767 0.0067459 -0.0118171 0.0153471 -0.0194543 0.0000664 -0.0013638 0.0003066 -0.0011598 0.0004576 -0.0014089 0.0003557 -0.0016299 -0.0007874 -0.0022712 -0.0014529 -0.0024307
0.0017220 0.0016029 -0.0012442 0.0026039 0.0043087 -0.0099627 0.0062275 -0.0059783 0.0000646 -0.0013885 0.0003014 -0.0011929 0.0004694 -0.0014327 0.0003536 -0.0016733 -0.0007863 -0.0023148 -0.0014955 -0.0024360
0.0123984 -0.0231954 -0.0063914 0.0018444 -0.0024582 0.0092970 -0.0088565 0.0134206 0.0000665 -0.0016823 0.0003017 -0.0014726 0.0004735 -0.0016437 0.0003847 -0.0019319 -0.0007657 -0.0024920 -0.0014912 -0.0025846
0.0021675 -0.0131653 -0.0099119 0.0053844 -0.0014548 0.0031581 -0.0018395 0.0065107 0.0000817 -0.0018640 0.0003083 -0.0015681 0.0004646 -0.0017342 0.0004138 -0.0020298 -0.0007421 -0.0025603 -0.0014693 -0.0026447
-0.0028858 -0.0040719 -0.0023988 -0.0074437 -0.0046480 0.0057922 0.0112259 -0.0192859 0.0000902 -0.0018041 0.0003175 -0.0014419 0.0004388 -0.0016487 0.0004147 -0.0019321 -0.0007336 -0.0024996 -0.0014472 -0.0025911
0.0040915 -0.0101444 -0.0000106 -0.0051874 0.0051830 -0.0083150 0.0088482 -0.0198857 0.0000845 -0.0016705 0.0003215 -0.0012812 0.0004305 -0.0015434 0.0004012 -0.0018159 -0.0007235 -0.0023962 -0.0014271 -0.0024922
0.0098471 -0.0260311 -0.0002089 -0.0027838 0.0056348 -0.0157916 0.0073255 -0.0136515 0.0000705 -0.0015191 0.0003164 -0.0011067 0.0004377 -0.0014070 0.0003809 -0.0016850 -0.0007067 -0.0022686 -0.0014116 -0.0024187
0.0107899 -0.0250254 0.0000486 -0.0018453 -0.0052371 0.0107702 0.0067744 -0.0145161 0.0000694 -0.0014343 0.0003076 -0.0010471 0.0004501 -0.0013331 0.0003856 -0.0016468 -0.0006879 -0.0022053 -0.0014022 -0.0024394
0.0062945 -0.0035908 -0.0066877 0.0175680 -0.0037375 0.0107776 0.0007430 -0.0017285 0.0000755 -0.0016631 0.0003049 -0.0012607 0.0004556 -0.0014510 0.0003998 -0.0018149 -0.0006442 -0.0022349 -0.0013948 -0.0025269
0.0029375 -0.0005622 -0.0055290 0.0179339 -0.0050595 0.0138303 -0.0056083 0.0156751 0.0000889 -0.0019422 0.0003174 -0.0014350 0.0004504 -0.0015439 0.0004264 -0.0018984 -0.0005987 -0.0022673 -0.0013945 -0.0025098
-0.0036689 -0.0052864 0.0094592 -0.0120056 -0.0018276 0.0092141 -0.0017182 0.0174134 0.0001071 -0.0019157 0.0003374 -0.0013550 0.0004431 -0.0014562 0.0004687 -0.0017912 -0.0005787 -0.0022436 -0.0013666 -0.0023914
-0.0013764 -0.0210162 0.0114272 -0.0190586 0.0028379 -0.0068526 0.0038727 0.0029370 0.0001187 -0.0017686 0.0003583 -0.0011811 0.0004294 -0.0013555 0.0004883 -0.0015618 -0.0005767 -0.0021353 -0.0013614 -0.0022881
0.0030276 -0.0397141 0.0017570 0.0057930 -0.0006485 0.0034680 0.0023504 -0.0033039 0.0001983 -0.0014700 0.0004104 -0.0009922 0.0004104 -0.0013023 0.0006040 -0.0010798 -0.0006085 -0.0021130 -0.0012556 -0.0020628
-0.0102921 0.0127570 -0.0034730 0.0147291 -0.0021481 0.0085359 0.0037795 -0.0014772 0.0003079 -0.0010857 0.0004716 -0.0008079 0.0004326 -0.0012699 0.0007396 -0.0007367 -0.0006571 -0.0022240 -0.0011264 -0.0019367
-0.0039852 0.0129513 -0.0021262 0.0074232 -0.0013973 -0.0010869 0.0032685 0.0026240 0.0003651 -0.0010965 0.0004934 -0.0009416 0.0004740 -0.0014050 0.0007553 -0.0008580 -0.0006599 -0.0023437 -0.0011722 -0.0020764
-0.0003022 -0.0040135 0.0061946 -0.0134083 -0.0053480 0.0077484 -0.0067945 0.0115004 0.0003935 -0.0013362 0.0004828 -0.0012215 0.0005001 -0.0015109 0.0007374 -0.0010373 -0.0006277 -0.0023459 -0.0012437 -0.0022150
-0.0046933 -0.0013308 0.0031745 -0.0119236 -0.0055590 0.0067277 -0.0056475 0.0025183 0.0004113 -0.0012979 0.0004589 -0.0012122 0.0005407 -0.0013896 0.0007329 -0.0010171 -0.0006282 -0.0023288 -0.0012609 -0.0022572
-0.0062615 0.0081602 0.0066712 -0.0166105 -0.0000674 -0.0127204 0.0088451 -0.0166829 0.0004247 -0.0011030 0.0004444 -0.0010548 0.0005435 -0.0012060 0.0007307 -0.0009172 -0.0006397 -0.0023378 -0.0012386 -0.0021401
-0.0007096 0.0066158 0.0127417 -0.0232832 -0.0004144 -0.0098311 0.0013291 0.0002042 0.0004303 -0.0008851 0.0004433 -0.0008389 0.0005086 -0.0010052 0.0007234 -0.0007825 -0.0006534 -0.0022632 -0.0012038 -0.0019088
0.0075024 -0.0056237 0.0130945 -0.0142405 0.0019779 -0.0022443 -0.0075741 0.0120774 0.0004299 -0.0006614 0.0004357 -0.0006573 0.0005068 -0.0008167 0.0007177 -0.0007196 -0.0006692 -0.0022312 -0.0011977 -0.0017765
0.0022054 0.0019351 0.0074834 -0.0124671 -0.0014033 0.0048082 -0.0004269 -0.0012034 0.0004050 -0.0007788 0.0004191 -0.0008212 0.0005208 -0.0008970 0.0006877 -0.0009156 -0.0006756 -0.0023338 -0.0011777 -0.0019258
0.0008769 -0.0056152 -0.0051012 0.0050771 -0.0066696 0.0122058 -0.0025202 0.0015307 0.0003677 -0.0011119 0.0004023 -0.0011017 0.0005273 -0.0011193 0.0006070 -0.0012057 -0.0006489 -0.0023785 -0.0011450 -0.0020831
-0.0020356 0.0027569 -0.0007038 0.0085778 -0.0073148 0.0201961 -0.0050883 0.0079138 0.0003387 -0.0011806 0.0003873 -0.0010697 0.0005138 -0.0011319 0.0005173 -0.0013797 -0.0005755 -0.0022208 -0.0011363 -0.0020328
-0.0066266 0.0077213 -0.0027167 0.0080849 -0.0063514 0.0144542 -0.0004823 0.0074644 0.0003239 -0.0010765 0.0003778 -0.0009014 0.0004985 -0.0010598 0.0004667 -0.0014370 -0.0005155 -0.0020264 -0.0011624 -0.0019065
0.0051916 -0.0234396 0.0003822 0.0014336 0.0089116 -0.0154727 0.0002487 0.0057109 0.0003133 -0.0009123 0.0003715 -0.0007025 0.0004817 -0.0009468 0.0004372 -0.0013777 -0.0004966 -0.0018774 -0.0012092 -0.0017718
0.0057733 -0.0152552 0.0081216 -0.0089764 0.0081704 -0.0064689 -0.0088617 0.0108576 0.0003018 -0.0007238 0.0003727 -0.0004990 0.0004434 -0.0007874 0.0004277 -0.0012966 -0.0004929 -0.0017861 -0.0012192 -0.0017295
0.0027905 -0.0086654 0.0015538 -0.0042606 -0.0025232 0.0065731 -0.0098295 0.0072653 0.0002924 -0.0007884 0.0003765 -0.0006083 0.0004358 -0.0008570 0.0004300 -0.0014015 -0.0004875 -0.0018544 -0.0011721 -0.0018416
0.0091567 -0.0216201 -0.0092401 0.0064043 0.0051651 -0.0140060 0.0039725 -0.0060470 0.0002823 -0.0010405 0.0003761 -0.0008877 0.0004513 -0.0010406 0.0004237 -0.0015424 -0.0004960 -0.0019678 -0.0011321 -0.0019261
0.0030182 -0.0021835 -0.0013011 -0.0012567 0.0150842 -0.0317439 0.0017981 0.0074507 0.0002771 -0.0010744 0.0003770 -0.0008922 0.0004630 -0.0010463 0.0004125 -0.0014938 -0.0005086 -0.0019728 -0.0011208 -0.0018910
-0.0012204 0.0001545 0.0028287 -0.0060591 0.0038660 -0.0084477 0.0002401 0.0073186 0.0002772 -0.0009447 0.0003793 -0.0007466 0.0004794 -0.0009744 0.0004067 -0.0013888 -0.0005187 -0.0019247 -0.0011050 -0.0018518
0.0016330 0.0012584 -0.0020422 0.0021824 0.0064022 -0.0121633 0.0049488 -0.0084737 0.0002806 -0.0007880 0.0003750 -0.0005682 0.0004724 -0.0008519 0.0004068 -0.0012846 -0.0005253 -0.0018457 -0.0011238 -0.0017692
-0.0011374 0.0166726 0.0037256 -0.0051487 0.0028753 -0.0011597 0.0022262 -0.0034535 0.0002766 -0.0006135 0.0003682 -0.0003707 0.0004480 -0.0006929 0.0004143 -0.0011825 -0.0005239 -0.0017691 -0.0011669 -0.0016729
-0.0013625 0.0168256 0.0063361 -0.0108030 0.0028796 -0.0018110 -0.0014638 -0.0038522 0.0002668 -0.0006702 0.0003644 -0.0004750 0.0004374 -0.0007362 0.0004256 -0.0012719 -0.0005201 -0.0018286 -0.0011835 -0.0017200
-0.0059213 0.0194604 -0.0018665 0.0028444 0.0141299 -0.0323827 0.0052397 -0.0158167 0.0002640 -0.0009319 0.0003668 -0.0007733 0.0004381 -0.0009318 0.0004333 -0.0014420 -0.0005124 -0.0019515 -0.0011679 -0.0018221
-0.0056620 0.0110189 -0.0056013 0.0100506 0.0084393 -0.0206964 0.0072024 -0.0129604 0.0002651 -0.0009932 0.0003721 -0.0008065 0.0004309 -0.0009456 0.0004342 -0.0014227 -0.0005192 -0.0019660 -0.0011233 -0.0018344
0.0033532 -0.0045179 -0.0028833 0.0074246 0.0038938 -0.0084017 0.0069504 -0.0178049 0.0002612 -0.0008714 0.0003721 -0.0006658 0.0004224 -0.0008401 0.0004154 -0.0013051 -0.0005364 -0.0019051 -0.0010896 -0.0017689
-0.0037835 0.0050272 -0.0028583 0.0091752 -0.0009992 0.0042889 0.0050713 -0.0119012 0.0002551 -0.0007210 0.0003660 -0.0004905 0.0004417 -0.0007376 0.0003928 -0.0011834 -0.0005429 -0.0018135 -0.0010878 -0.0016891
-0.0089960 0.0089508 -0.0043178 0.0080331 -0.0040223 0.0087155 0.0000528 -0.0045922 0.0002499 -0.0005551 0.0003630 -0.0003057 0.0004589 -0.0006210 0.0003800 -0.0010684 -0.0005442 -0.0017174 -0.0011059 -0.0016093
-0.0030977 -0.0018233 0.0003491 0.0019098 -0.0027654 0.0066990 -0.0033852 0.0088867 0.0002412 -0.0005538 0.0003592 -0.0003547 0.0004459 -0.0006291 0.0003805 -0.0011132 -0.0005434 -0.0017391 -0.0011398 -0.0016215
0.0042193 -0.0051046 -0.0025694 0.0042327 0.0039834 -0.0051771 -0.0005042 0.0102428 0.0002433 -0.0008144 0.0003487 -0.0006403 0.0004365 -0.0008088 0.0004081 -0.0013161 -0.0005200 -0.0018932 -0.0011617 -0.0017403
0.0090729 -0.0131621 -0.0014034 -0.0011965 0.0107322 -0.0219600 0.0006747 0.0028169 0.0002531 -0.0009750 0.0003506 -0.0007452 0.0004274 -0.0008874 0.0004269 -0.0013744 -0.0005011 -0.0019501 -0.0011509 -0.0017814
0.0077109 -0.0234654 0.0019693 -0.0044445 0.0082491 -0.0176679 0.0026141 -0.0022988 0.0002524 -0.0009031 0.0003581 -0.0006364 0.0004202 -0.0008177 0.0004126 -0.0012766 -0.0005031 -0.0018870 -0.0011432 -0.0017462
-0.0012702 0.0046108 0.0034925 -0.0170612 0.0031956 -0.0087663 0.0013569 -0.0024153 0.0002437 -0.0007642 0.0003617 -0.0004802 0.0004109 -0.0007075 0.0003811 -0.0011434 -0.0005095 -0.0018012 -0.0011161 -0.0017271
-0.0011534 0.0176827 0.0023432 -0.0146066 -0.0006288 -0.0025204 -0.0020795 0.0062776 0.0002373 -0.0006023 0.0003580 -0.0003022 0.0004006 -0.0005837 0.0003656 -0.0010430 -0.0005275 -0.0017068 -0.0011070 -0.0016987
-0.0042054 0.0177802 0.0013272 -0.0098085 -0.0060486 0.0090600 -0.0026283 0.0082737 0.0002375 -0.0004474 0.0003467 -0.0001417 0.0004039 -0.0005040 0.0003616 -0.0010082 -0.0005353 -0.0016600 -0.0011081 -0.0017109
-0.0067044 0.0081548 -0.0008038 -0.0076348 -0.0031524 0.0056272 0.0020633 -0.0017872 0.0002326 -0.0005924 0.0003374 -0.0003272 0.0004237 -0.0006344 0.0003608 -0.0011337 -0.0005182 -0.0017507 -0.0011345 -0.0018201
0.0035049 -0.0021390 -0.0034518 0.0089223 -0.0048711 0.0151604 0.0059761 -0.0078087 0.0002333 -0.0009091 0.0003337 -0.0006403 0.0004417 -0.0008375 0.0003633 -0.0012697 -0.0004937 -0.0018429 -0.0011827 -0.0018985
0.0062518 -0.0066755 0.0022026 0.0018868 -0.0040109 0.0139189 -0.0016834 0.0004660 0.0002413 -0.0009494 0.0003289 -0.0006465 0.0004229 -0.0008586 0.0003588 -0.0012359 -0.0004809 -0.0018238 -0.0011824 -0.0018787
0.0149658 -0.0350215 -0.0064859 0.0109368 0.0070902 -0.0162095 -0.0060113 0.0080361 0.0002463 -0.0008314 0.0003216 -0.0005177 0.0003999 -0.0007830 0.0003719 -0.0011695 -0.0004760 -0.0017583 -0.0011838 -0.0017945
0.0100816 -0.0247833 -0.0070958 0.0145174 0.0058329 -0.0064690 -0.0037239 0.0157347 0.0002465 -0.0006754 0.0003168 -0.0003501 0.0003875 -0.0006610 0.0003746 -0.0010919 -0.0004765 -0.0016665 -0.0011917 -0.0017131
-0.0070399 0.0093135 -0.0011007 0.0049240 0.0052412 -0.0016040 -0.0003496 0.0089899 0.0002361 -0.0005039 0.0003130 -0.0001934 0.0003797 -0.0005052 0.0003435 -0.0009729 -0.0004910 -0.0015782 -0.0011997 -0.0016282
-0.0129769 0.0153112 -0.0067412 0.0103250 0.0058250 -0.0091952 0.0049520 -0.0126001 0.0002250 -0.0004902 0.0003038 -0.0002681 0.0003801 -0.0004822 0.0003229 -0.0009905 -0.0005033 -0.0016133 -0.0011608 -0.0016701
-0.0007862 -0.0051139 -0.0144042 0.0207966 0.0058468 -0.0148718 0.0104596 -0.0171804 0.0002182 -0.0007736 0.0002933 -0.0005700 0.0003905 -0.0006868 0.0003341 -0.0011849 -0.0004955 -0.0017700 -0.0011211 -0.0018311
0.0106516 -0.0253879 -0.0135046 0.0164260 -0.0062952 0.0074832 0.0040452 0.0027419 0.0002193 -0.0009840 0.0002867 -0.0006952 0.0004172 -0.0008164 0.0003411 -0.0012460 -0.0004863 -0.0018402 -0.0011390 -0.0018621
-0.0026634 -0.0005538 -0.0082630 0.0021274 -0.0105115 0.0188810 -0.0062738 0.0112072 0.0002175 -0.0009388 0.0002809 -0.0005911 0.0004127 -0.0007536 0.0003325 -0.0011574 -0.0004931 -0.0017875 -0.0011810 -0.0017818
-0.0081090 0.0104203 -0.0104054 0.0086396 0.0025116 -0.0033478 0.0004873 -0.0118238 0.0002156 -0.0008193 0.0002792 -0.0004312 0.0003939 -0.0006590 0.0003225 -0.0010668 -0.0005020 -0.0017125 -0.0011819 -0.0017259
-0.0060799 0.0078658 -0.0023889 -0.0015055 0.0053926 -0.0086163 0.0036874 -0.0096116 0.0002175 -0.0006641 0.0002758 -0.0002520 0.0003785 -0.0005351 0.0003275 -0.0009683 -0.0005025 -0.0016400 -0.0011769 -0.0016489
0.0018688 0.0024356 0.0088010 -0.0264519 0.0001882 0.0039873 0.0000964 0.0008168 0.0002071 -0.0005436 0.0002675 -0.0001769 0.0003508 -0.0004552 0.0003406 -0.0009507 -0.0005001 -0.0016546 -0.0011704 -0.0016302
-0.0022196 0.0090775 0.0084290 -0.0285841 0.0037090 -0.0071513 0.0071354 -0.0128403 0.0001956 -0.0007297 0.0002623 -0.0004121 0.0003494 -0.0005990 0.0003457 -0.0010861 -0.0004979 -0.0017935 -0.0011447 -0.0017565
-0.0175330 0.0216318 -0.0016071 -0.0057126 -0.0065485 0.0107950 0.0077349 -0.0086186 0.0001948 -0.0010103 0.0002621 -0.0006246 0.0003721 -0.0007387 0.0003380 -0.0011654 -0.0005014 -0.0018691 -0.0011008 -0.0018491
-0.0118302 0.0134746 -0.0006164 0.0013379 -0.0081573 0.0207493 -0.0003659 0.0064474 0.0001960 -0.0010150 0.0002615 -0.0005708 0.0003722 -0.0006885 0.0003260 -0.0010812 -0.0005136 -0.0018401 -0.0010877 -0.0017928
-0.0097332 0.0100632 -0.0015108 0.0045911 -0.0027136 0.0162705 -0.0007409 -0.0017386 0.0001924 -0.0009006 0.0002533 -0.0004393 0.0003743 -0.0006017 0.0003225 -0.0009718 -0.0005277 -0.0017840 -0.0011120 -0.0017062
-0.0090218 0.0183744 -0.0049987 0.0117650 -0.0049925 0.0131197 0.0040276 -0.0150715 0.0001897 -0.0007585 0.0002455 -0.0002770 0.0003797 -0.0005100 0.0003143 -0.0008709 -0.0005369 -0.0016989 -0.0011492 -0.0016132
-0.0014886 0.0104737 -0.0026456 0.0080977 0.0005846 -0.0054676 0.0012183 0.0024353 0.0001853 -0.0006164 0.0002434 -0.0001532 0.0003701 -0.0004388 0.0003126 -0.0008257 -0.0005375 -0.0016713 -0.0011933 -0.0015667
-0.0001227 -0.0002289 -0.0037572 0.0066299 -0.0030887 0.0033482 -0.0014959 0.0068454 0.0001822 -0.0007644 0.0002376 -0.0003371 0.0003527 -0.0005363 0.0003361 -0.0009453 -0.0005214 -0.0017741 -0.0011999 -0.0016826
0.0004921 0.0041136 -0.0070870 0.0087645 -0.0088516 0.0125103 -0.0019610 0.0015975 0.0001877 -0.0010488 0.0002389 -0.0005783 0.0003443 -0.0006833 0.0003508 -0.0010611 -0.0005099 -0.0018496 -0.0011951 -0.0017792
0.0045895 -0.0059102 -0.0138438 0.0098527 0.0007164 -0.0039624 0.0045768 -0.0115097 0.0001892 -0.0010632 0.0002437 -0.0005428 0.0003443 -0.0006794 0.0003373 -0.0010374 -0.0005110 -0.0018068 -0.0011953 -0.0017626
0.0015384 -0.0093265 -0.0271679 0.0129711 0.0035243 -0.0099591 -0.0060584 0.0002240 0.0001849 -0.0009390 0.0002460 -0.0004217 0.0003319 -0.0006073 0.0003134 -0.0009643 -0.0005152 -0.0017311 -0.0011704 -0.0017187
-0.0001024 0.0076246 -0.0013741 -0.0206748 0.0016326 -0.0039647 -0.0211104 0.0259775 0.0001840 -0.0007842 0.0002436 -0.0002587 0.0003203 -0.0005106 0.0002932 -0.0008803 -0.0005241 -0.0016563 -0.0011316 -0.0016824
-0.0029994 0.0048461 0.0073772 -0.0149717 0.0013338 0.0007804 -0.0015312 0.0070040 0.0001845 -0.0006331 0.0002367 -0.0001168 0.0003162 -0.0004298 0.0002767 -0.0008392 -0.0005278 -0.0016204 -0.0011346 -0.0016688
-0.0118328 0.0051560 0.0043835 -0.0087618 0.0037350 -0.0026794 0.0122113 -0.0227470 0.0001768 -0.0007757 0.0002306 -0.0003015 0.0003371 -0.0005586 0.0002740 -0.0009489 -0.0005261 -0.0016935 -0.0011761 -0.0017206
0.0012441 -0.0007140 0.0036066 -0.0098913 -0.0011633 0.0110106 0.0009766 -0.0039691 0.0001744 -0.0010745 0.0002271 -0.0005771 0.0003540 -0.0007369 0.0002898 -0.0010681 -0.0005222 -0.0017713 -0.0011870 -0.0017876
0.0036729 -0.0042289 0.0027554 -0.0030393 -0.0010700 0.0091290 -0.0011642 0.0001091 0.0001831 -0.0011161 0.0002276 -0.0005640 0.0003423 -0.0007284 0.0002931 -0.0010428 -0.0005204 -0.0017438 -0.0011868 -0.0017499
-0.0007307 -0.0027219 0.0042478 -0.0060810 0.0042936 -0.0085362 0.0021241 -0.0033229 0.0001895 -0.0010040 0.0002293 -0.0004436 0.0003209 -0.0006425 0.0002914 -0.0009575 -0.0005148 -0.0016856 -0.0012082 -0.0016494
0.0066398 -0.0199572 0.0038699 0.0048990 0.0002459 0.0014637 0.0028683 0.0047833 0.0001880 -0.0008503 0.0002257 -0.0002811 0.0003082 -0.0005408 0.0002850 -0.0008667 -0.0005112 -0.0016154 -0.0012026 -0.0015933
0.0037004 -0.0087024 0.0026519 0.0082790 0.0035418 0.0033612 0.0012320 0.0040888 0.0001829 -0.0006911 0.0002285 -0.0001171 0.0003077 -0.0004322 0.0002648 -0.0007875 -0.0005213 -0.0015319 -0.0011979 -0.0015501
0.0003871 -0.0049716 0.0018049 -0.0022576 -0.0031439 0.0125040 0.0000172 0.0016636 0.0001767 -0.0007913 0.0002296 -0.0002642 0.0003046 -0.0005107 0.0002612 -0.0008886 -0.0005264 -0.0015826 -0.0011613 -0.0016204
-0.0049981 -0.0048733 0.0025327 -0.0118023 -0.0072116 0.0149047 0.0054206 0.0019273 0.0001737 -0.0011211 0.0002260 -0.0006242 0.0003073 -0.0007590 0.0002716 -0.0010962 -0.0005186 -0.0016911 -0.0011464 -0.0017232
0.0085292 -0.0262275 0.0005618 -0.0080511 -0.0001931 0.0047353 0.0055236 -0.0004536 0.0001765 -0.0012306 0.0002286 -0.0006967 0.0003257 -0.0008399 0.0002602 -0.0011054 -0.0005127 -0.0016840 -0.0011705 -0.0017095
0.0136292 -0.0325863 -0.0008652 0.0035742 -0.0057128 0.0130606 -0.0008628 0.0071651 0.0001737 -0.0011216 0.0002262 -0.0005605 0.0003389 -0.0007658 0.0002413 -0.0010088 -0.0005166 -0.0016182 -0.0011659 -0.0016606
-0.0000567 -0.0016999 -0.0012082 0.0148394 0.0017653 0.0033666 -0.0030571 0.0121115 0.0001805 -0.0009801 0.0002202 -0.0003952 0.0003450 -0.0006726 0.0002307 -0.0009170 -0.0005232 -0.0015279 -0.0011844 -0.0015586
0.0037996 -0.0127682 0.0002554 0.0131921 0.0095694 -0.0110017 -0.0088226 0.0172301 0.0001842 -0.0008261 0.0002173 -0.0002255 0.0003230 -0.0005451 0.0002290 -0.0008198 -0.0005245 -0.0014306 -0.0012189 -0.0014283
-0.0046114 0.0035332 0.0012955 0.0032939 0.0011591 0.0048152 -0.0079686 0.0149786 0.0001754 -0.0007453 0.0002156 -0.0002343 0.0002954 -0.0005205 0.0002468 -0.0008673 -0.0005137 -0.0014350 -0.0012185 -0.0014394
-0.0019676 0.0068617 0.0020619 -0.0070780 -0.0056945 0.0139454 0.0066330 -0.0160832 0.0001696 -0.0009823 0.0002171 -0.0005316 0.0002902 -0.0007430 0.0002633 -0.0010947 -0.0004917 -0.0015465 -0.0012059 -0.0015749
0.0124186 -0.0304052 0.0045476 -0.0182185 -0.0034107 0.0072600 0.0054139 -0.0165657 0.0001764 -0.0012510 0.0002188 -0.0007350 0.0002740 -0.0008906 0.0002553 -0.0011786 -0.0004811 -0.0015656 -0.0011800 -0.0016483
0.0010977 -0.0111034 0.0085898 -0.0244526 0.0008339 0.0043288 -0.0037411 0.0059927 0.0001868 -0.0012300 0.0002160 -0.0006892 0.0002708 -0.0008463 0.0002375 -0.0010750 -0.0004817 -0.0014797 -0.0011638 -0.0016175
0.0039755 -0.0079236 0.0052083 -0.0131239 0.0009345 0.0019542 -0.0001784 0.0057690 0.0001872 -0.0010850 0.0002108 -0.0005604 0.0002988 -0.0007524 0.0002165 -0.0009521 -0.0004843 -0.0013734 -0.0011806 -0.0015320
0.0066897 -0.0139525 -0.0011375 0.0046950 -0.0019965 0.0043117 0.0017845 -0.0002273 0.0001862 -0.0008845 0.0001980 -0.0003778 0.0003102 -0.0006004 0.0001906 -0.0008015 -0.0004878 -0.0012435 -0.0011956 -0.0014513
0.0002304 0.0038939 -0.0014687 0.0138306 -0.0026424 0.0029384 -0.0065021 0.0131420 0.0001880 -0.0006738 0.0001852 -0.0001988 0.0003067 -0.0004283 0.0001838 -0.0006717 -0.0004832 -0.0011106 -0.0012237 -0.0013735
0.0004098 0.0068001 -0.0015621 0.0060317 0.0041265 -0.0143780 -0.0040064 0.0061241 0.0001927 -0.0006868 0.0001744 -0.0002787 0.0003017 -0.0004975 0.0002268 -0.0007307 -0.0004530 -0.0011103 -0.0012661 -0.0014383
0.0021464 -0.0056408 0.0024021 -0.0114979 0.0027616 -0.0124263 0.0168752 -0.0401498 0.0002168 -0.0009208 0.0001525 -0.0006932 0.0002907 -0.0007854 0.0003684 -0.0006375 -0.0004603 -0.0012979 -0.0012311 -0.0014312
-0.0015552 -0.0027466 0.0056402 -0.0057478 -0.0016225 -0.0065948 0.0066164 -0.0147736 0.0002510 -0.0009511 0.0001361 -0.0009039 0.0003062 -0.0008919 0.0004539 -0.0004529 -0.0004852 -0.0013901 -0.0011669 -0.0013348
-0.0111030 0.0157018 0.0068943 -0.0050609 -0.0031818 0.0011630 -0.0057699 0.0079578 0.0002694 -0.0008048 0.0001404 -0.0007771 0.0003026 -0.0007984 0.0004104 -0.0004626 -0.0004706 -0.0012889 -0.0011142 -0.0012510
-0.0100880 0.0147133 0.0041072 -0.0048023 -0.0057072 0.0084916 -0.0041512 0.0065597 0.0002756 -0.0006370 0.0001475 -0.0005829 0.0002736 -0.0006706 0.0003590 -0.0004108 -0.0004615 -0.0011358 -0.0010797 -0.0010269
-0.0018763 0.0051572 -0.0066277 0.0057255 -0.0012343 -0.0027019 -0.0039411 0.0084640 0.0002761 -0.0004261 0.0001980 -0.0003373 0.0002439 -0.0006216 0.0005821 0.0002696 -0.0005003 -0.0011513 -0.0009955 -0.0007311
0.0061155 -0.0112534 -0.0094396 0.0143574 0.0039248 -0.0145827 -0.0024041 0.0044675 0.0010464 0.0008632 0.0009103 0.0007446 0.0005580 -0.0001015 0.0011873 0.0015511 -0.0006990 -0.0017022 -0.0009935 -0.0008551
0.0199806 -0.0378876 -0.0065790 0.0132493 -0.0025176 0.0058923 -0.0011357 -0.0030343 0.0017419 0.0017034 0.0014313 0.0012793 0.0008193 0.0001863 0.0012692 0.0013546 -0.0008119 -0.0021512 -0.0011066 -0.0013087
0.0045035 -0.0000458 -0.0036473 0.0073115 -0.0046560 0.0121014 -0.0029033 0.0042548 0.0016404 0.0012149 0.0011271 0.0005617 0.0006647 -0.0002357 0.0007878 -0.0000381 -0.0007030 -0.0019867 -0.0011877 -0.0016788
-0.0043385 0.0068040 0.0018633 -0.0109761 -0.0062492 0.0134028 -0.0014277 0.0028947 0.0012931 0.0006603 0.0006818 -0.0000311 0.0005073 -0.0004462 0.0004723 -0.0006874 -0.0006000 -0.0016746 -0.0013486 -0.0019434
0.0096510 -0.0326843 0.0009193 -0.0050866 0.0035430 -0.0062040 -0.0005242 -0.0014981 0.0009525 0.0002493 0.0004035 -0.0002429 0.0004296 -0.0004043 0.0003463 -0.0006969 -0.0005355 -0.0014088 -0.0014205 -0.0018873
0.0096547 -0.0199060 0.0012467 0.0026493 -0.0020748 0.0049995 -0.0020232 0.0045079 0.0008065 0.0002037 0.0003396 -0.0001396 0.0003776 -0.0002864 0.0003210 -0.0005311 -0.0004950 -0.0012213 -0.0013863 -0.0017174
0.0084648 -0.0104080 -0.0020037 0.0073246 -0.0070386 0.0152710 0.0002154 0.0004038 0.0007111 0.0002204 0.0003096 -0.0000012 0.0003401 -0.0002012 0.0003130 -0.0004643 -0.0004661 -0.0011123 -0.0013301 -0.0016585
0.0113307 -0.0211457 -0.0005335 0.0059775 0.0093639 -0.0183921 0.0117747 -0.0263133 0.0006292 -0.0000641 0.0002889 -0.0001944 0.0003277 -0.0003148 0.0003167 -0.0005667 -0.0004508 -0.0011501 -0.0012924 -0.0016974
0.0098561 -0.0259797 0.0020209 -0.0052144 0.0071541 -0.0120326 0.0050493 -0.0089046 0.0005524 -0.0005136 0.0002788 -0.0005274 0.0003173 -0.0005163 0.0002973 -0.0006725 -0.0004535 -0.0012257 -0.0012552 -0.0017547
-0.0000302 -0.0039540 -0.0005870 -0.0024458 0.0013003 0.0000144 -0.0050964 0.0014999 0.0005071 -0.0006334 0.0002669 -0.0005399 0.0003142 -0.0005710 0.0002823 -0.0006592 -0.0004762 -0.0012715 -0.0012404 -0.0018400
0.0039413 -0.0017932 -0.0004827 -0.0017550 0.0028693 -0.0073197 -0.0020569 -0.0060235 0.0004715 -0.0005709 0.0002475 -0.0004127 0.0003100 -0.0005337 0.0002661 -0.0005989 -0.0005094 -0.0012826 -0.0012838 -0.0018017
-0.0027622 0.0111470 0.0081672 -0.0198830 0.0058508 -0.0095132 0.0113408 -0.0254268 0.0004311 -0.0004797 0.0002355 -0.0002393 0.0003208 -0.0004595 0.0002310 -0.0005059 -0.0005299 -0.0012201 -0.0013145 -0.0015931
-0.0074570 0.0231874 0.0050314 0.0005540 0.0009819 0.0093984 0.0125346 -0.0227865 0.0003778 -0.0004004 0.0002234 -0.0001073 0.0003185 -0.0004248 0.0002195 -0.0005504 -0.0005323 -0.0012139 -0.0013280 -0.0015150
-0.0060480 0.0180589 0.0019993 0.0069700 0.0016255 0.0055677 0.0005675 0.0037848 0.0003261 -0.0006549 0.0002129 -0.0003005 0.0002973 -0.0005508 0.0002077 -0.0007394 -0.0005205 -0.0013051 -0.0013110 -0.0015828
-0.0115735 0.0169325 0.0036135 -0.0018052 0.0029098 -0.0057207 0.0032618 -0.0046613 0.0002945 -0.0009777 0.0002098 -0.0005248 0.0002737 -0.0006760 0.0001963 -0.0008420 -0.0004977 -0.0013086 -0.0013068 -0.0016166
-0.0024668 0.0023765 0.0025646 -0.0024694 0.0035464 -0.0054712 0.0007450 0.0064059 0.0002788 -0.0009866 0.0002040 -0.0004724 0.0002530 -0.0006805 0.0001857 -0.0008313 -0.0004828 -0.0012228 -0.0013396 -0.0016110
0.0009941 -0.0006489 0.0033366 -0.0033547 0.0069747 -0.0123225 -0.0059918 0.0152938 0.0002696 -0.0008827 0.0002006 -0.0003559 0.0002418 -0.0006416 0.0001494 -0.0007812 -0.0004856 -0.0011225 -0.0013719 -0.0015765
-0.0071764 0.0062258 -0.0026474 0.0097339 -0.0026422 0.0034586 -0.0101317 0.0119062 0.0002538 -0.0007319 0.0001946 -0.0001857 0.0002213 -0.0005286 0.0001164 -0.0006594 -0.0004963 -0.0010279 -0.0013162 -0.0015405
-0.0028473 -0.0190939 -0.0093492 0.0200901 -0.0053275 0.0108591 0.0030060 -0.0027608 0.0002345 -0.0007976 0.0001795 -0.0002820 0.0002143 -0.0005874 0.0001249 -0.0007223 -0.0004978 -0.0010800 -0.0012447 -0.0015751
0.0129959 -0.0356325 -0.0057234 0.0156125 -0.0041649 0.0100350 0.0057382 -0.0047373 0.0002226 -0.0010228 0.0001660 -0.0005044 0.0002348 -0.0007516 0.0001354 -0.0008588 -0.0004880 -0.0011366 -0.0012463 -0.0015552
0.0142394 -0.0330261 -0.0030005 0.0074545 0.0006215 -0.0022635 -0.0072128 0.0104927 0.0002130 -0.0010686 0.0001613 -0.0005005 0.0002409 -0.0007828 0.0001244 -0.0008484 -0.0004737 -0.0010932 -0.0012402 -0.0014825
0.0153603 -0.0344194 -0.0117077 0.0193546 -0.0008264 0.0021976 -0.0054023 0.0114063 0.0002092 -0.0009755 0.0001644 -0.0003845 0.0002273 -0.0007501 0.0001060 -0.0007871 -0.0004583 -0.0010285 -0.0012344 -0.0014159
0.0080423 -0.0132268 -0.0079151 0.0134933 -0.0005712 0.0016006 0.0004133 0.0054125 0.0002151 -0.0008349 0.0001604 -0.0002147 0.0002002 -0.0006388 0.0000968 -0.0007067 -0.0004585 -0.0009478 -0.0012778 -0.0013532
0.0003544 0.0046098 0.0058621 -0.0159733 0.0076401 -0.0176525 0.0021294 -0.0022089 0.0002057 -0.0008844 0.0001491 -0.0003351 0.0001899 -0.0006955 0.0001059 -0.0008691 -0.0004549 -0.0009991 -0.0013047 -0.0014347
0.0011086 0.0066293 0.0041362 -0.0216135 0.0095662 -0.0230945 0.0010942 -0.0039738 0.0002003 -0.0011663 0.0001504 -0.0006696 0.0001908 -0.0009405 0.0000975 -0.0011229 -0.0004373 -0.0011098 -0.0013087 -0.0015204
0.0047336 -0.0049999 -0.0057724 0.0066044 0.0011073 -0.0131195 0.0104252 -0.0264279 0.0002043 -0.0012743 0.0001562 -0.0007369 0.0001744 -0.0010033 0.0000737 -0.0011592 -0.0004323 -0.0011018 -0.0012790 -0.0015066
-0.0040496 0.0102294 -0.0009516 0.0086316 0.0054437 -0.0092402 0.0150740 -0.0324463 0.0001945 -0.0011801 0.0001527 -0.0006208 0.0001713 -0.0009361 0.0000645 -0.0011089 -0.0004298 -0.0010450 -0.0012476 -0.0014547
-0.0076913 0.0166439 0.0055913 0.0007696 0.0112436 -0.0168276 0.0066090 -0.0098621 0.0001796 -0.0010496 0.0001450 -0.0004776 0.0001830 -0.0008725 0.0000468 -0.0010310 -0.0004406 -0.0009620 -0.0012501 -0.0013532
-0.0026822 0.0044291 -0.0025746 0.0134135 0.0024530 -0.0061641 0.0028796 -0.0028248 0.0001615 -0.0010608 0.0001362 -0.0005277 0.0001857 -0.0009324 0.0000324 -0.0010874 -0.0004413 -0.0009958 -0.0012281 -0.0013595
-0.0018131 -0.0029761 -0.0060091 0.0155317 -0.0067412 0.0106876 0.0036927 0.0025295 0.0001543 -0.0013327 0.0001301 -0.0008290 0.0001857 -0.0011675 0.0000421 -0.0013041 -0.0004276 -0.0011454 -0.0012063 -0.0015099
0.0072433 -0.0141191 -0.0037449 0.0093435 -0.0110505 0.0156972 0.0065636 -0.0002093 0.0001640 -0.0014962 0.0001276 -0.0009521 0.0002076 -0.0012871 0.0000614 -0.0013723 -0.0004201 -0.0011885 -0.0012447 -0.0015035
0.0014523 0.0020684 -0.0016982 0.0078204 -0.0024947 0.0049652 0.0045236 -0.0039851 0.0001726 -0.0014168 0.0001324 -0.0008359 0.0002086 -0.0012187 0.0000726 -0.0012864 -0.0004197 -0.0011486 -0.0012694 -0.0012980
-0.0056897 0.0127570 -0.0021675 0.0123009 0.0015328 0.0020285 0.0000303 -0.0041258 0.0001774 -0.0012765 0.0001372 -0.0006773 0.0001972 -0.0011317 0.0000686 -0.0011886 -0.0004361 -0.0010994 -0.0012025 -0.0010212
-0.0059375 0.0094710 -0.0125225 0.0237757 -0.0012441 0.0071858 0.0002284 0.0004395 0.0001768 -0.0010954 0.0001353 -0.0005447 0.0001750 -0.0010781 0.0000811 -0.0011774 -0.0004469 -0.0010670 -0.0010882 -0.0008057
-0.0043288 0.0017801 -0.0061302 0.0122744 0.0042428 -0.0044696 0.0000500 -0.0001659 0.0001706 -0.0012258 0.0001272 -0.0007763 0.0001421 -0.0012098 0.0001006 -0.0013383 -0.0004496 -0.0011401 -0.0010076 -0.0007430
-0.0032499 0.0012629 0.0060616 -0.0030463 0.0134795 -0.0291366 -0.0040885 -0.0013272 0.0001683 -0.0015218 0.0001274 -0.0010905 0.0001488 -0.0013928 0.0001123 -0.0014608 -0.0004465 -0.0012254 -0.0009770 -0.0007321
-0.0027984 0.0027631 -0.0001546 0.0043182 0.0068475 -0.0192762 -0.0055931 0.0071592 0.0001732 -0.0015246 0.0001430 -0.0010462 0.0001726 -0.0013799 0.0001000 -0.0014064 -0.0004507 -0.0011823 -0.0009161 -0.0006951
-0.0039202 0.0072019 0.0025901 -0.0086891 0.0050547 -0.0083903 -0.0008016 0.0036033 0.0001813 -0.0013630 0.0001548 -0.0008559 0.0001857 -0.0012521 0.0000750 -0.0012862 -0.0004566 -0.0010673 -0.0009022 -0.0006025
-0.0031403 0.0109628 0.0172498 -0.0444330 0.0093788 -0.0163325 0.0041592 -0.0082045 0.0001864 -0.0011676 0.0001610 -0.0006225 0.0002014 -0.0010889 0.0000545 -0.0011673 -0.0004460 -0.0009399 -0.0009242 -0.0005273
-0.0025051 -0.0024948 -0.0091988 0.0113161 -0.0021487 0.0078613 0.0024498 -0.0068406 0.0001863 -0.0011536 0.0001637 -0.0006463 0.0002310 -0.0011132 0.0001401 -0.0010248 -0.0004487 -0.0010077 -0.0009277 -0.0005907
0.0069158 -0.0228246 -0.0103794 0.0194450 -0.0055929 0.0124733 0.0048916 -0.0079311 0.0001966 -0.0013862 0.0001785 -0.0009471 0.0002601 -0.0012997 0.0002749 -0.0009706 -0.0004551 -0.0012104 -0.0009609 -0.0008180
0.0023845 0.0034322 -0.0018660 -0.0018732 -0.0055952 0.0049221 0.0168841 -0.0334948 0.0002147 -0.0014910 0.0001993 -0.0010060 0.0002730 -0.0012855 0.0003103 -0.0009586 -0.0004079 -0.0012176 -0.0010049 -0.0010977
-0.0009079 0.0088156 -0.0063203 0.0021136 0.0012790 -0.0054486 0.0058563 -0.0138903 0.0002289 -0.0013765 0.0002200 -0.0008346 0.0002882 -0.0011242 0.0003348 -0.0007655 -0.0003755 -0.0011236 -0.0010337 -0.0013198
-0.0011836 0.0050975 0.0017005 0.0051857 0.0117319 -0.0210868 -0.0019299 0.0041455 0.0002339 -0.0012187 0.0002426 -0.0006418 0.0003109 -0.0009586 0.0003389 -0.0006141 -0.0003556 -0.0009954 -0.0010517 -0.0013891
-0.0028977 -0.0030649 0.0041027 -0.0015605 0.0012088 -0.0024101 0.0006416 0.0036741 0.0002385 -0.0010291 0.0002554 -0.0004443 0.0003143 -0.0007769 0.0003016 -0.0006537 -0.0003337 -0.0008952 -0.0010358 -0.0014060
0.0048575 -0.0064464 -0.0034897 -0.0019674 -0.0078012 0.0042607 -0.0023426 0.0110625 0.0002492 -0.0011491 0.0002593 -0.0006082 0.0003209 -0.0008313 0.0002806 -0.0008577 -0.0003435 -0.0009810 -0.0010060 -0.0015235
0.0034468 0.0040405 -0.0002898 -0.0048661 -0.0075806 0.0056448 -0.0022755 0.0080536 0.0002569 -0.0014304 0.0002597 -0.0008868 0.0003360 -0.0009613 0.0002769 -0.0009920 -0.0003432 -0.0010768 -0.0010023 -0.0015847
0.0011015 -0.0109423 -0.0006310 -0.0042827 -0.0027926 0.0076340 0.0013784 -0.0035605 0.0002541 -0.0014272 0.0002556 -0.0008632 0.0003616 -0.0009280 0.0002678 -0.0009122 -0.0003646 -0.0010422 -0.0009517 -0.0012270
0.0102290 -0.0355287 -0.0103378 0.0173245 -0.0011154 0.0126662 -0.0028069 0.0080477 0.0002411 -0.0012957 0.0002564 -0.0006989 0.0003790 -0.0008237 0.0002541 -0.0007739 -0.0003808 -0.0009393 -0.0008886 -0.0008333
0.0057060 -0.0096148 -0.0187011 0.0257047 0.0026193 0.0012094 -0.0016981 0.0071701 0.0002390 -0.0011388 0.0002592 -0.0005095 0.0003715 -0.0006548 0.0002528 -0.0006271 -0.0003766 -0.0008502 -0.0009021 -0.0007368
0.0045224 -0.0043327 -0.0220377 0.0240120 0.0087076 -0.0182221 0.0011336 -0.0006527 0.0002404 -0.0011236 0.0002526 -0.0005597 0.0003856 -0.0006703 0.0002754 -0.0006901 -0.0003715 -0.0009020 -0.0009251 -0.0006595
0.0080490 -0.0179744 0.0023044 -0.0050402 0.0159510 -0.0303961 -0.0037666 0.0143651 0.0002375 -0.0013647 0.0002517 -0.0008286 0.0004024 -0.0008454 0.0002977 -0.0008798 -0.0003646 -0.0010310 -0.0009560 -0.0007889
-0.0017250 0.0013084 0.0169038 -0.0344761 0.0068310 -0.0102000 -0.0013825 0.0114582 0.0002356 -0.0015014 0.0002663 -0.0009033 0.0003936 -0.0008570 0.0002969 -0.0009094 -0.0003580 -0.0010888 -0.0010221 -0.0011370
-0.0084950 0.0186384 0.0021462 -0.0158000 -0.0046395 0.0062020 0.0026886 -0.0024160 0.0002496 -0.0014011 0.0002831 -0.0007620 0.0003906 -0.0007601 0.0002990 -0.0008333 -0.0003663 -0.0011081 -0.0010440 -0.0013388
-0.0036845 0.0085677 -0.0011734 -0.0082790 -0.0006925 0.0005206 0.0072083 -0.0144598 0.0002598 -0.0012249 0.0002831 -0.0005774 0.0003903 -0.0006452 0.0002926 -0.0007295 -0.0003920 -0.0010786 -0.0010395 -0.0013257
0.0064321 -0.0184217 -0.0055650 0.0039931 -0.0020912 0.0008049 0.0102237 -0.0224169 0.0002590 -0.0010297 0.0002873 -0.0003724 0.0003954 -0.0005270 0.0002613 -0.0006534 -0.0004120 -0.0010113 -0.0010292 -0.0013188
0.0046054 -0.0097428 -0.0037514 0.0021013 -0.0039611 0.0034241 -0.0026118 0.0057733 0.0002626 -0.0011520 0.0002925 -0.0005054 0.0004178 -0.0006555 0.0002471 -0.0008057 -0.0004082 -0.0010792 -0.0010163 -0.0014515
0.0006880 0.0040957 0.0076674 -0.0172793 -0.0039367 0.0057913 -0.0010458 0.0001557 0.0002733 -0.0014442 0.0002973 -0.0007905 0.0004185 -0.0008387 0.0002482 -0.0009762 -0.0003879 -0.0011505 -0.0010234 -0.0015854
-0.0023009 0.0126132 0.0023770 -0.0064856 -0.0001327 -0.0039515 -0.0004266 -0.0066037 0.0002906 -0.0014602 0.0003072 -0.0007569 0.0004226 -0.0008407 0.0002485 -0.0009749 -0.0003793 -0.0010794 -0.0010832 -0.0015813
0.0048551 0.0030875 -0.0040570 0.0105406 -0.0073555 0.0165426 -0.0022414 -0.0000731 0.0002994 -0.0013217 0.0003154 -0.0005781 0.0004204 -0.0007845 0.0002292 -0.0009401 -0.0003690 -0.0009727 -0.0011404 -0.0015020
0.0127386 -0.0179049 0.0027896 0.0038037 -0.0084787 0.0168182 0.0009607 -0.0022510 0.0003038 -0.0011617 0.0003202 -0.0003763 0.0003893 -0.0006717 0.0001902 -0.0008543 -0.0003770 -0.0008666 -0.0011512 -0.0013559
0.0131633 -0.0278214 0.0024758 -0.0070374 -0.0030869 0.0077672 -0.0044020 0.0091865 0.0003054 -0.0010173 0.0003203 -0.0002540 0.0003708 -0.0006120 0.0001906 -0.0008691 -0.0003760 -0.0008727 -0.0011297 -0.0013107
0.0151937 -0.0349975 -0.0022559 0.0047078 -0.0002205 0.0086286 -0.0052372 0.0202792 0.0003072 -0.0012180 0.0003231 -0.0004545 0.0003769 -0.0007718 0.0002114 -0.0010756 -0.0003512 -0.0009865 -0.0011040 -0.0014436
-0.0031650 0.0032775 -0.0012944 0.0020366 0.0033915 -0.0028427 0.0000785 0.0101907 0.0003139 -0.0014946 0.0003310 -0.0006679 0.0003861 -0.0009082 0.0001962 -0.0011604 -0.0003577 -0.0010243 -0.0011090 -0.0015227
-0.0141681 0.0143850 0.0045566 -0.0205391 0.0056922 -0.0105056 0.0086030 -0.0235824 0.0003206 -0.0014569 0.0003409 -0.0006048 0.0003734 -0.0008467 0.0001755 -0.0010745 -0.0003634 -0.0009667 -0.0010778 -0.0015459
0.0007601 -0.0056152 0.0095638 -0.0162339 0.0103710 -0.0209993 0.0090805 -0.0159465 0.0003264 -0.0013145 0.0003461 -0.0004510 0.0003627 -0.0007691 0.0001618 -0.0009662 -0.0003559 -0.0008520 -0.0010636 -0.0015142
0.0015564 -0.0002869 0.0078870 -0.0131765 0.0075242 -0.0127382 0.0057608 -0.0009293 0.0003497 -0.0011064 0.0003452 -0.0002907 0.0003654 -0.0007695 0.0002655 -0.0004987 -0.0003774 -0.0007738 -0.0010368 -0.0012106
0.0021923 -0.0104468 0.0023162 -0.0038796 0.0001054 0.0074499 0.0028474 -0.0018564 0.0003886 -0.0010243 0.0003414 -0.0004002 0.0003716 -0.0008953 0.0003824 -0.0002637 -0.0003885 -0.0008233 -0.0009802 -0.0010456
0.0083700 -0.0231920 0.0043340 -0.0099769 -0.0012984 0.0081065 0.0020025 0.0001315 0.0004180 -0.0012049 0.0003255 -0.0007151 0.0003799 -0.0010847 0.0003655 -0.0005378 -0.0003697 -0.0008815 -0.0009708 -0.0010819
-0.0040274 0.0079999 0.0147291 -0.0457294 -0.0002610 0.0054121 -0.0000620 0.0008235 0.0004425 -0.0012986 0.0003062 -0.0007959 0.0003647 -0.0011363 0.0003327 -0.0006825 -0.0003433 -0.0008391 -0.0009829 -0.0010008
-0.0014902 0.0111550 -0.0128546 0.0120002 0.0006917 0.0054324 -0.0073864 0.0085041 0.0004594 -0.0011865 0.0002896 -0.0006815 0.0003396 -0.0010553 0.0003068 -0.0006970 -0.0003210 -0.0007304 -0.0010153 -0.0009362
0.0050590 -0.0011800 -0.0083183 0.0207360 0.0037560 -0.0043880 -0.0067980 0.0169410 0.0004593 -0.0010385 0.0002666 -0.0005608 0.0003137 -0.0009863 0.0002845 -0.0006596 -0.0003142 -0.0006208 -0.0010416 -0.0008618
0.0025967 -0.0047493 0.0044948 0.0011421 -0.0017986 -0.0031379 0.0005127 0.0045336 0.0004498 -0.0008672 0.0002233 -0.0004751 0.0002670 -0.0009336 0.0002428 -0.0006417 -0.0002369 -0.0004392 -0.0009200 -0.0006730
0.0032059 -0.0022971 0.0035075 -0.0023188 -0.0045453 0.0095221 0.0018780 -0.0011291 0.0004357 -0.0009853 0.0001618 -0.0007633 0.0002332 -0.0011160 0.0002051 -0.0008500 -0.0000979 -0.0003027 -0.0007404 -0.0005090
0.0046634 -0.0055591 -0.0057552 0.0071493 0.0009911 0.0058126 0.0023382 0.0026968 0.0004288 -0.0012740 0.0001128 -0.0012068 0.0002304 -0.0013944 0.0001867 -0.0010870 0.0000197 -0.0002122 -0.0006303 -0.0003648
-0.0048594 0.0037059 -0.0020994 0.0025913 0.0049718 -0.0125908 0.0034035 0.0011276 0.0004303 -0.0013055 0.0000797 -0.0013089 0.0002254 -0.0014385 0.0001673 -0.0010872 0.0000874 -0.0000766 -0.0005211 -0.0001259
0.0000142 0.0064328 -0.0011922 -0.0009167 0.0087268 -0.0230909 0.0047911 0.0002818 0.0004219 -0.0011826 0.0000581 -0.0012162 0.0002179 -0.0013360 0.0001670 -0.0009650 0.0001047 0.0000170 -0.0004621 0.0000671
0.0051108 -0.0028075 -0.0025022 0.0063835 0.0063357 -0.0053914 -0.0019936 0.0148434 0.0004134 -0.0010301 0.0000514 -0.0010477 0.0002393 -0.0011968 0.0001805 -0.0008331 0.0001098 0.0001097 -0.0004849 0.0002416
0.0050560 -0.0132249 -0.0039864 0.0131463 0.0033794 -0.0019730 -0.0108588 0.0266509 0.0004126 -0.0008584 0.0000550 -0.0008249 0.0002450 -0.0010257 0.0001666 -0.0007778 0.0001022 0.0001785 -0.0005236 0.0003417
0.0090051 -0.0211022 -0.0048672 0.0123662 -0.0007867 -0.0031694 -0.0115324 0.0243430 0.0004077 -0.0009702 0.0000548 -0.0009425 0.0002397 -0.0010865 0.0001508 -0.0009495 0.0001018 0.0000769 -0.0005344 0.0001990
-0.0013772 -0.0035798 0.0045528 -0.0053939 -0.0030589 -0.0006559 -0.0074419 0.0193725 0.0004048 -0.0012814 0.0000600 -0.0012553 0.0002395 -0.0012866 0.0001624 -0.0011616 0.0001155 -0.0000585 -0.0005405 0.0000459
-0.0001745 -0.0060041 0.0056918 -0.0114143 0.0011328 -0.0032829 -0.0037896 0.0129776 0.0004041 -0.0013388 0.0000699 -0.0012417 0.0002249 -0.0012842 0.0001635 -0.0011541 0.0001200 -0.0000612 -0.0005344 0.0000331
