-0.0000000 -0.0000000 -0.0000000 -0.0000000 -0.0000000 -0.0000000 -0.0000000 -0.0000000 -0.0000000 -0.0000000 -0.0000000 -0.0000000 -0.0000000 -0.0000000 -0.0000000 -0.0000000 -0.0000000 -0.0000000 -0.0000000 -0.0000000
-0.0000000 -0.0000000 -0.0000000 -0.0000000 -0.0000000 -0.0000000 -0.0000000 -0.0000000 -0.0000000 -0.0000000 -0.0000000 -0.0000000 -0.0000000 -0.0000000 -0.0000000 -0.0000000 -0.0000000 -0.0000000 -0.0000000 -0.0000000
0.0041269 -0.0024941 -0.0000008 -0.0000167 0.0000035 0.0000187 -0.0000013 -0.0000084 -0.0000055 -0.0000070 -0.0000054 -0.0000067 -0.0000037 -0.0000045 0.0000033 -0.0000127 0.0000074 0.0000149 -0.0000004 0.0000155
-0.0036779 0.0017442 0.0000045 -0.0000218 0.0000062 0.0000659 -0.0000012 0.0000201 0.0000085 0.0000035 -0.0000248 -0.0000250 -0.0000195 0.0000045 0.0000054 -0.0000076 0.0000066 0.0000295 0.0000006 0.0000690
0.0062623 -0.0027478 -0.0000195 -0.0000640 0.0000070 0.0001205 -0.0000036 0.0000458 0.0000084 0.0000282 -0.0000394 -0.0000384 -0.0000265 0.0000059 0.0000124 -0.0000022 0.0000050 0.0000253 0.0000134 0.0000486
0.0059524 0.0040384 -0.0000475 -0.0001343 0.0000090 0.0000156 -0.0000066 -0.0000533 -0.0000103 -0.0000197 -0.0000347 -0.0001405 -0.0000181 -0.0001021 0.0000141 -0.0000580 0.0000077 -0.0000609 0.0000217 -0.0000523
-0.0068085 0.0157570 -0.0000172 -0.0002412 0.0000045 -0.0002709 -0.0000035 -0.0002696 -0.0000433 -0.0001860 -0.0000391 -0.0003545 -0.0000101 -0.0002727 0.0000233 -0.0001545 0.0000091 -0.0001676 0.0000344 -0.0001159
-0.0009411 0.0024149 0.0000181 -0.0003105 -0.0000019 -0.0003663 0.0000026 -0.0003278 -0.0000284 -0.0002544 -0.0000381 -0.0003720 0.0000032 -0.0002666 0.0000293 -0.0001469 0.0000135 -0.0001592 0.0000465 -0.0001467
-0.0013134 0.0065011 0.0000188 -0.0002669 -0.0000008 -0.0003010 0.0000043 -0.0002851 -0.0000062 -0.0002339 -0.0000313 -0.0003042 0.0000141 -0.0002095 0.0000230 -0.0001076 0.0000137 -0.0001007 0.0000381 -0.0001222
-0.0156181 0.0163841 0.0000153 -0.0001863 -0.0000013 -0.0002112 0.0000068 -0.0002168 -0.0000009 -0.0001736 -0.0000383 -0.0002329 0.0000166 -0.0001387 0.0000211 -0.0000546 0.0000050 -0.0000455 0.0000258 -0.0000476
-0.0005587 -0.0086186 0.0000216 -0.0000932 -0.0000016 -0.0000844 0.0000063 -0.0001134 0.0000136 -0.0000839 -0.0000323 -0.0001317 0.0000170 -0.0000406 0.0000347 0.0000403 -0.0000028 -0.0000202 0.0000043 0.0000289
0.0191605 -0.0443503 0.0000182 0.0000127 -0.0000017 0.0000516 0.0000072 -0.0000035 0.0000281 -0.0000145 -0.0000166 -0.0000397 0.0000122 0.0000057 0.0000432 0.0001104 -0.0000211 -0.0000567 -0.0000058 0.0000730
0.0026987 -0.0186182 0.0000043 -0.0000317 -0.0000038 -0.0000613 0.0000026 -0.0001102 0.0000077 -0.0001249 -0.0000220 -0.0001834 -0.0000127 -0.0001571 0.0000415 0.0000477 -0.0000439 -0.0001834 0.0000101 0.0000104
-0.0046216 0.0048123 -0.0000111 -0.0001649 -0.0000114 -0.0003367 -0.0000078 -0.0003355 -0.0000061 -0.0003038 -0.0000239 -0.0003478 -0.0000174 -0.0003003 0.0000412 -0.0000309 -0.0000434 -0.0002601 0.0000201 -0.0000849
-0.0006200 0.0078618 -0.0000056 -0.0001613 -0.0000143 -0.0003683 -0.0000116 -0.0003852 0.0000148 -0.0003585 0.0000069 -0.0002420 0.0000093 -0.0002213 0.0000412 0.0000018 -0.0000222 -0.0001847 0.0000107 -0.0001407
0.0075545 -0.0049728 0.0000063 -0.0001025 -0.0000046 -0.0002411 -0.0000147 -0.0003472 0.0000082 -0.0003189 0.0000338 -0.0000972 0.0000259 -0.0001155 0.0000275 0.0000652 -0.0000184 -0.0001117 -0.0000099 -0.0001449
0.0162619 -0.0303095 -0.0000036 -0.0000040 0.0000034 -0.0000876 -0.0000171 -0.0002566 0.0000051 -0.0002193 0.0000431 0.0000258 0.0000323 -0.0000058 0.0000139 0.0001390 -0.0000344 -0.0000900 -0.0000440 -0.0001083
0.0043064 -0.0125761 0.0000032 0.0000799 0.0000126 0.0000761 -0.0000165 -0.0001368 0.0000326 -0.0000962 0.0000458 0.0001268 0.0000316 0.0000790 0.0000167 0.0002012 -0.0000468 -0.0000689 -0.0000457 -0.0000595
0.0049198 -0.0006364 0.0000078 0.0001727 0.0000273 0.0002561 -0.0000093 0.0000174 0.0000521 0.0000650 0.0000346 0.0001633 0.0000072 0.0000750 0.0000163 0.0002231 -0.0000886 -0.0001554 -0.0000273 0.0000014
0.0070012 -0.0062210 0.0000120 0.0001470 0.0000528 0.0002390 0.0000096 0.0000477 0.0000678 0.0001063 0.0000345 0.0000305 -0.0000183 -0.0000782 0.0000041 0.0001655 -0.0001188 -0.0002910 -0.0000414 -0.0000138
0.0129618 -0.0238308 0.0000400 0.0000154 0.0000637 0.0000945 0.0000282 0.0000076 0.0000801 0.0001248 0.0000662 -0.0000465 -0.0000179 -0.0001805 0.0000048 0.0001080 -0.0001063 -0.0003072 -0.0000202 -0.0000665
0.0246113 -0.0516853 0.0000414 -0.0000090 0.0000556 0.0001152 0.0000343 0.0000777 0.0000927 0.0002602 0.0000861 -0.0000031 -0.0000344 -0.0001940 0.0000081 0.0001264 -0.0001305 -0.0003282 0.0000195 0.0000534
0.0064254 -0.0276360 0.0000229 0.0000147 0.0000458 0.0001949 0.0000377 0.0002107 0.0001899 0.0006264 0.0002773 0.0002873 -0.0001273 -0.0006065 -0.0000049 -0.0000073 -0.0004975 -0.0006988 -0.0002610 -0.0000848
-0.0172925 0.0071476 0.0000318 0.0000519 -0.0000682 0.0000735 -0.0000275 0.0001965 0.0003342 0.0012708 0.0005828 0.0008933 -0.0003165 -0.0012678 -0.0002214 -0.0006535 -0.0009459 -0.0009267 -0.0006467 -0.0004809
-0.0036510 0.0147640 0.0000435 0.0000491 -0.0002001 -0.0000915 -0.0001091 0.0000927 0.0003994 0.0016121 0.0005833 0.0010049 -0.0004546 -0.0014806 -0.0004521 -0.0011165 -0.0009578 -0.0006131 -0.0007367 -0.0005307
0.0052429 0.0078860 0.0000383 0.0000614 -0.0002097 -0.0000172 -0.0001195 0.0001386 0.0003691 0.0015825 0.0003610 0.0006020 -0.0004319 -0.0013058 -0.0004057 -0.0009396 -0.0008103 -0.0003382 -0.0007055 -0.0004754
0.0098407 -0.0190519 0.0000156 -0.0000425 -0.0001874 -0.0001372 -0.0001208 0.0000231 0.0003089 0.0013131 0.0001898 0.0001530 -0.0003592 -0.0011460 -0.0002968 -0.0007498 -0.0007088 -0.0002703 -0.0006928 -0.0006170
-0.0024495 -0.0037313 0.0000320 -0.0001940 -0.0001726 -0.0003651 -0.0001109 -0.0001182 0.0002914 0.0010493 0.0001505 -0.0000183 -0.0002934 -0.0010077 -0.0002135 -0.0005974 -0.0006796 -0.0002940 -0.0006840 -0.0007136
-0.0049132 0.0027727 0.0000614 -0.0001779 -0.0001608 -0.0003468 -0.0000939 -0.0000755 0.0002974 0.0010264 0.0002111 0.0001431 -0.0002610 -0.0009178 -0.0002065 -0.0005232 -0.0006631 -0.0002628 -0.0006694 -0.0007131
-0.0002264 0.0038935 0.0000628 -0.0001005 -0.0001552 -0.0002701 -0.0000829 -0.0000179 0.0002687 0.0010425 0.0002638 0.0003197 -0.0002322 -0.0008073 -0.0002228 -0.0005120 -0.0006140 -0.0001119 -0.0006637 -0.0007141
0.0008343 0.0082548 0.0000594 -0.0000315 -0.0001565 -0.0001899 -0.0000833 0.0000329 0.0002410 0.0010300 0.0002289 0.0003546 -0.0002127 -0.0006498 -0.0002162 -0.0004579 -0.0005810 -0.0000073 -0.0006375 -0.0005272
0.0013135 0.0031791 0.0000327 0.0000293 -0.0001523 -0.0000941 -0.0000908 0.0000863 0.0002264 0.0009941 0.0001571 0.0002964 -0.0001958 -0.0005156 -0.0001737 -0.0003212 -0.0005653 0.0000038 -0.0006070 -0.0003547
0.0005189 -0.0013293 0.0000336 0.0001405 -0.0001464 0.0000338 -0.0000796 0.0002138 0.0002213 0.0010015 0.0001440 0.0003408 -0.0001204 -0.0002735 -0.0000630 -0.0000567 -0.0005420 -0.0000254 -0.0005791 -0.0003447
-0.0084458 0.0117114 0.0000444 0.0000821 -0.0001336 -0.0000381 -0.0000730 0.0001729 0.0002170 0.0009491 0.0001416 0.0002257 -0.0000672 -0.0002158 0.0000245 0.0000881 -0.0005390 -0.0001663 -0.0005615 -0.0003728
-0.0056879 0.0138242 0.0000313 -0.0000572 -0.0001309 -0.0002349 -0.0000818 0.0000216 0.0001867 0.0008196 0.0001170 0.0000743 -0.0000484 -0.0002244 0.0000546 0.0000909 -0.0005250 -0.0002444 -0.0005250 -0.0004358
0.0037322 -0.0105042 0.0000306 -0.0000472 -0.0001372 -0.0002394 -0.0000887 0.0000058 0.0001559 0.0007224 0.0000983 0.0001262 0.0000118 -0.0000143 0.0001013 0.0002505 -0.0005231 -0.0002901 -0.0004845 -0.0004543
-0.0046274 0.0015112 0.0000497 0.0000335 -0.0001320 -0.0001367 -0.0000834 0.0000822 0.0001318 0.0006936 0.0001267 0.0002995 0.0000992 0.0003093 0.0001640 0.0005031 -0.0005392 -0.0003393 -0.0005265 -0.0005158
-0.0032990 -0.0006306 0.0000761 0.0002057 -0.0000990 0.0000984 -0.0000441 0.0003206 0.0001221 0.0007173 0.0001842 0.0005746 0.0001975 0.0007196 0.0002012 0.0007213 -0.0005238 -0.0002914 -0.0005844 -0.0006986
0.0125241 -0.0316066 0.0001105 0.0003903 -0.0000491 0.0004110 -0.0000036 0.0005959 0.0001079 0.0007923 0.0002192 0.0008133 0.0002620 0.0010505 0.0001979 0.0008853 -0.0004945 -0.0002214 -0.0006075 -0.0007652
0.0063123 -0.0052447 0.0001132 0.0005103 -0.0000110 0.0006514 0.0000068 0.0007236 0.0000926 0.0008034 0.0002027 0.0008000 0.0002716 0.0010898 0.0001868 0.0009048 -0.0004670 -0.0002340 -0.0006523 -0.0007798
-0.0008249 0.0089521 0.0000947 0.0004334 -0.0000027 0.0005315 0.0000019 0.0006154 0.0000691 0.0006642 0.0001718 0.0006179 0.0002705 0.0009917 0.0001971 0.0008395 -0.0004324 -0.0003004 -0.0006605 -0.0008386
-0.0109772 0.0134759 0.0000935 0.0003270 -0.0000031 0.0003679 0.0000103 0.0005440 0.0000423 0.0005792 0.0001387 0.0005091 0.0002565 0.0009429 0.0001883 0.0007739 -0.0004158 -0.0003380 -0.0006421 -0.0008478
-0.0169940 0.0155313 0.0001011 0.0003281 0.0000092 0.0004457 0.0000222 0.0006214 0.0000401 0.0005559 0.0001070 0.0004758 0.0002351 0.0009128 0.0001630 0.0007172 -0.0004121 -0.0003354 -0.0006076 -0.0007988
-0.0041337 0.0222922 0.0000939 0.0003178 0.0000035 0.0004847 0.0000203 0.0006608 0.0000328 0.0005445 0.0000525 0.0003957 0.0001999 0.0008665 0.0001284 0.0006719 -0.0004173 -0.0003285 -0.0005516 -0.0007139
-0.0023200 0.0246128 0.0000750 0.0003696 0.0000055 0.0005909 0.0000307 0.0007570 0.0000272 0.0006003 -0.0000181 0.0003246 0.0001639 0.0008658 0.0000902 0.0006293 -0.0004575 -0.0003966 -0.0005443 -0.0006226
-0.0057658 0.0114124 0.0000802 0.0004118 0.0000260 0.0007666 0.0000502 0.0009021 0.0000084 0.0006658 -0.0000718 0.0002496 0.0001395 0.0008369 0.0000607 0.0005494 -0.0004926 -0.0005282 -0.0005491 -0.0006222
-0.0026872 0.0020086 0.0000647 0.0002696 0.0000304 0.0006261 0.0000508 0.0007887 -0.0000106 0.0005107 -0.0001263 -0.0000159 0.0001201 0.0006547 0.0000420 0.0003953 -0.0004884 -0.0006602 -0.0005353 -0.0006479
0.0029532 -0.0006565 0.0000326 0.0000510 0.0000198 0.0003081 0.0000454 0.0005637 -0.0000101 0.0002864 -0.0001748 -0.0002762 0.0000981 0.0004809 0.0000273 0.0002488 -0.0004918 -0.0007732 -0.0005347 -0.0006073
-0.0066821 0.0018540 0.0000127 -0.0000355 0.0000067 0.0002100 0.0000445 0.0005082 -0.0000146 0.0002164 -0.0002072 -0.0003659 0.0000782 0.0004117 0.0000235 0.0001920 -0.0005046 -0.0008486 -0.0005378 -0.0006025
-0.0124611 -0.0063905 -0.0000015 -0.0000625 -0.0000092 0.0001909 0.0000396 0.0004900 -0.0000311 0.0001750 -0.0002218 -0.0003601 0.0000665 0.0004298 0.0000209 0.0002096 -0.0005068 -0.0008579 -0.0005199 -0.0006229
-0.0129119 0.0175584 0.0000050 -0.0000420 -0.0000231 0.0002113 0.0000353 0.0004974 -0.0000579 0.0001809 -0.0002128 -0.0002572 0.0000677 0.0005365 0.0000135 0.0002887 -0.0004942 -0.0007605 -0.0005144 -0.0006073
-0.0062376 0.0156869 0.0000069 0.0000205 -0.0000395 0.0002506 0.0000221 0.0005086 -0.0000837 0.0001680 -0.0001676 -0.0000785 0.0000671 0.0005612 0.0000283 0.0003841 -0.0004783 -0.0006606 -0.0004925 -0.0006149
0.0129516 -0.0103848 -0.0000139 -0.0000551 -0.0000575 0.0000603 -0.0000029 0.0003122 -0.0001024 -0.0000650 -0.0001277 -0.0001101 0.0000298 0.0002744 0.0000393 0.0003297 -0.0004725 -0.0007316 -0.0004823 -0.0007243
0.0049890 0.0070903 -0.0000304 -0.0002437 -0.0000764 -0.0002799 -0.0000243 -0.0000053 -0.0001101 -0.0003977 -0.0000542 -0.0001452 0.0000417 0.0000674 0.0000408 0.0002319 -0.0004506 -0.0007992 -0.0005303 -0.0009012
-0.0086928 0.0110301 -0.0000344 -0.0003183 -0.0000855 -0.0003985 -0.0000342 -0.0001321 -0.0001257 -0.0005390 0.0000109 -0.0000355 0.0000712 0.0000778 0.0000466 0.0001802 -0.0004345 -0.0008028 -0.0005649 -0.0009294
0.0011056 -0.0056903 -0.0000485 -0.0002981 -0.0000811 -0.0003674 -0.0000391 -0.0001467 -0.0001445 -0.0005664 -0.0000424 -0.0001300 0.0000444 0.0000430 0.0000428 0.0001243 -0.0004399 -0.0008393 -0.0005140 -0.0007526
0.0089881 -0.0187163 -0.0000549 -0.0002430 -0.0000838 -0.0003072 -0.0000494 -0.0001233 -0.0001626 -0.0005351 -0.0001053 -0.0002252 0.0000279 0.0000568 0.0000439 0.0001087 -0.0004353 -0.0008225 -0.0004578 -0.0005998
0.0065032 -0.0053797 -0.0000452 -0.0001711 -0.0000850 -0.0002064 -0.0000572 -0.0000490 -0.0001735 -0.0004652 -0.0001196 -0.0001976 0.0000263 0.0001356 0.0000479 0.0001226 -0.0004153 -0.0007509 -0.0004219 -0.0005675
-0.0020214 0.0136364 -0.0000365 -0.0001963 -0.0000744 -0.0002170 -0.0000538 -0.0000968 -0.0001575 -0.0005361 -0.0001119 -0.0002798 0.0000311 0.0000666 0.0000506 0.0000565 -0.0003948 -0.0007619 -0.0004008 -0.0006328
-0.0127433 0.0215084 -0.0000351 -0.0003562 -0.0000776 -0.0004675 -0.0000476 -0.0002910 -0.0001569 -0.0007126 -0.0001080 -0.0004906 0.0000411 -0.0001639 0.0000530 -0.0001014 -0.0003838 -0.0008692 -0.0003729 -0.0007390
-0.0111950 0.0145429 -0.0000406 -0.0004714 -0.0000936 -0.0006741 -0.0000412 -0.0004016 -0.0001710 -0.0008064 -0.0001182 -0.0005830 0.0000453 -0.0002336 0.0000617 -0.0001765 -0.0003700 -0.0009035 -0.0003536 -0.0007428
-0.0034125 0.0006370 -0.0000272 -0.0004996 -0.0000981 -0.0007004 -0.0000385 -0.0004150 -0.0001587 -0.0008535 -0.0001256 -0.0005818 0.0000493 -0.0002250 0.0001022 -0.0001242 -0.0004055 -0.0009989 -0.0003436 -0.0005468
-0.0051089 -0.0061465 -0.0000117 -0.0004722 -0.0001054 -0.0006833 -0.0000413 -0.0003938 -0.0001455 -0.0008520 -0.0001343 -0.0005842 0.0000193 -0.0003025 0.0001327 -0.0000768 -0.0004785 -0.0011561 -0.0003036 -0.0004006
-0.0033388 -0.0114047 -0.0000075 -0.0003872 -0.0001104 -0.0006167 -0.0000531 -0.0003655 -0.0001441 -0.0007961 -0.0001443 -0.0005446 -0.0000105 -0.0003029 0.0001211 -0.0000710 -0.0004655 -0.0010757 -0.0003123 -0.0004221
-0.0027687 -0.0021395 -0.0000023 -0.0003012 -0.0000969 -0.0004757 -0.0000604 -0.0003112 -0.0001472 -0.0007440 -0.0001421 -0.0005271 -0.0000119 -0.0002869 0.0001022 -0.0000957 -0.0004111 -0.0009408 -0.0003584 -0.0005533
0.0040599 -0.0068251 0.0000041 -0.0003706 -0.0000762 -0.0005535 -0.0000512 -0.0003997 -0.0001374 -0.0008693 -0.0001250 -0.0006288 0.0000059 -0.0003954 0.0000945 -0.0002066 -0.0003652 -0.0009095 -0.0003644 -0.0007573
0.0153262 -0.0234176 0.0000102 -0.0005006 -0.0000725 -0.0007940 -0.0000428 -0.0005734 -0.0001175 -0.0010460 -0.0001234 -0.0007072 0.0000274 -0.0004382 0.0001000 -0.0002784 -0.0003269 -0.0008681 -0.0003526 -0.0008453
0.0107175 -0.0141190 0.0000115 -0.0005070 -0.0000739 -0.0008279 -0.0000303 -0.0005817 -0.0001200 -0.0010357 -0.0001228 -0.0006777 0.0000439 -0.0003888 0.0001066 -0.0002688 -0.0003300 -0.0008548 -0.0003793 -0.0008463
0.0040660 -0.0098476 0.0000235 -0.0004732 -0.0000708 -0.0007492 -0.0000174 -0.0005109 -0.0001196 -0.0009369 -0.0001167 -0.0006000 0.0000594 -0.0003082 0.0001142 -0.0002276 -0.0003427 -0.0008488 -0.0004009 -0.0007901
0.0139783 -0.0384693 0.0000303 -0.0004042 -0.0000664 -0.0006252 -0.0000082 -0.0004080 -0.0001124 -0.0008131 -0.0001179 -0.0005034 0.0000599 -0.0002117 0.0001187 -0.0001740 -0.0003546 -0.0008274 -0.0003963 -0.0006877
0.0014240 -0.0007936 0.0000370 -0.0003325 -0.0000628 -0.0005050 -0.0000045 -0.0003069 -0.0001033 -0.0007358 -0.0001327 -0.0004484 0.0000521 -0.0001321 0.0001219 -0.0001186 -0.0003557 -0.0007649 -0.0004132 -0.0006491
-0.0024424 0.0147989 0.0000364 -0.0003080 -0.0000507 -0.0004858 0.0000007 -0.0003069 -0.0001125 -0.0007379 -0.0000768 -0.0003959 0.0000591 -0.0001728 0.0001337 -0.0001534 -0.0003409 -0.0007493 -0.0004271 -0.0007530
0.0055803 -0.0038586 0.0000165 -0.0004249 -0.0000495 -0.0006961 0.0000061 -0.0004637 -0.0001046 -0.0009027 -0.0000753 -0.0005800 0.0000556 -0.0003394 0.0001314 -0.0003029 -0.0003521 -0.0008934 -0.0003653 -0.0007598
-0.0034798 0.0102608 0.0000125 -0.0005466 -0.0000610 -0.0008848 0.0000072 -0.0005726 -0.0001037 -0.0010233 -0.0001320 -0.0007478 0.0000708 -0.0003383 0.0001056 -0.0004183 -0.0003512 -0.0009416 -0.0003035 -0.0007257
-0.0048685 0.0099970 0.0000398 -0.0005242 -0.0000607 -0.0009041 0.0000162 -0.0005741 -0.0001296 -0.0010001 -0.0001516 -0.0007269 0.0000971 -0.0002376 0.0000661 -0.0004816 -0.0003260 -0.0008520 -0.0003228 -0.0007657
0.0082777 -0.0306074 0.0000569 -0.0004300 -0.0000570 -0.0008554 0.0000218 -0.0005258 -0.0001347 -0.0009633 -0.0001918 -0.0007306 0.0000866 -0.0001627 0.0000440 -0.0004756 -0.0003211 -0.0007848 -0.0003411 -0.0006755
-0.0072274 -0.0054833 0.0000647 -0.0003398 -0.0000513 -0.0007340 0.0000238 -0.0004323 -0.0001235 -0.0008941 -0.0002010 -0.0006539 0.0000801 -0.0000912 0.0000350 -0.0004404 -0.0003206 -0.0007101 -0.0003598 -0.0005361
0.0053505 -0.0196908 0.0000899 -0.0002557 -0.0000436 -0.0006027 0.0000264 -0.0003420 -0.0001201 -0.0008611 -0.0002362 -0.0006673 0.0000500 -0.0001483 -0.0000088 -0.0005519 -0.0003056 -0.0007151 -0.0003758 -0.0005179
0.0026592 -0.0062553 0.0000935 -0.0002863 -0.0000247 -0.0006942 0.0000301 -0.0004504 -0.0001221 -0.0010231 -0.0002845 -0.0008935 0.0000108 -0.0003333 -0.0000521 -0.0007401 -0.0002982 -0.0008304 -0.0003623 -0.0005987
0.0011095 0.0052283 0.0001045 -0.0004261 -0.0000150 -0.0009160 0.0000356 -0.0006333 -0.0001253 -0.0011749 -0.0003020 -0.0010689 0.0000023 -0.0004424 -0.0000622 -0.0008256 -0.0002954 -0.0008815 -0.0003321 -0.0006471
0.0026028 0.0011853 0.0001009 -0.0004243 -0.0000153 -0.0009447 0.0000446 -0.0006334 -0.0001150 -0.0011871 -0.0002976 -0.0010309 0.0000074 -0.0004083 -0.0000827 -0.0008518 -0.0002703 -0.0008100 -0.0003171 -0.0006937
-0.0025606 0.0015896 0.0000981 -0.0003201 -0.0000117 -0.0008611 0.0000599 -0.0005437 -0.0001101 -0.0011425 -0.0002642 -0.0008518 0.0000077 -0.0003291 -0.0001366 -0.0008997 -0.0002355 -0.0006341 -0.0003498 -0.0007025
0.0079995 -0.0078104 0.0001242 -0.0002118 -0.0000084 -0.0007366 0.0000648 -0.0004452 -0.0001314 -0.0010609 -0.0003412 -0.0008879 -0.0000497 -0.0003573 -0.0002264 -0.0010099 -0.0002558 -0.0006506 -0.0003276 -0.0005216
-0.0030091 0.0050135 0.0001208 -0.0001470 -0.0000026 -0.0006037 0.0000598 -0.0003751 -0.0001202 -0.0009940 -0.0004451 -0.0010079 -0.0001058 -0.0003713 -0.0002747 -0.0010113 -0.0002786 -0.0007259 -0.0003192 -0.0003755
-0.0098854 0.0057677 0.0001050 -0.0001132 0.0000157 -0.0004849 0.0000595 -0.0003488 -0.0001226 -0.0009810 -0.0004103 -0.0009615 -0.0000930 -0.0003514 -0.0002428 -0.0009475 -0.0002388 -0.0006693 -0.0003479 -0.0004095
0.0091597 -0.0223518 0.0000967 -0.0001789 0.0000235 -0.0006261 0.0000531 -0.0004879 -0.0001415 -0.0011100 -0.0003954 -0.0010902 -0.0000759 -0.0004378 -0.0001829 -0.0009152 -0.0002317 -0.0007766 -0.0002964 -0.0004179
-0.0019862 0.0000367 0.0000950 -0.0002847 0.0000118 -0.0008249 0.0000472 -0.0006112 -0.0001354 -0.0011810 -0.0004120 -0.0011941 -0.0000602 -0.0004263 -0.0001354 -0.0008025 -0.0002620 -0.0008977 -0.0002505 -0.0003741
-0.0051375 0.0125051 0.0000990 -0.0002752 0.0000132 -0.0007923 0.0000506 -0.0005851 -0.0001217 -0.0011540 -0.0003975 -0.0011347 -0.0000351 -0.0003240 -0.0000981 -0.0006533 -0.0002868 -0.0009387 -0.0002019 -0.0003531
-0.0008505 0.0001035 0.0001040 -0.0002034 0.0000152 -0.0006866 0.0000565 -0.0005138 -0.0001341 -0.0010619 -0.0003715 -0.0010272 -0.0000118 -0.0002327 -0.0000091 -0.0003545 -0.0003306 -0.0010299 -0.0001208 -0.0001834
0.0011357 -0.0068732 0.0001092 -0.0001152 0.0000088 -0.0005814 0.0000489 -0.0004673 -0.0001455 -0.0010203 -0.0002853 -0.0008426 -0.0000184 -0.0002555 0.0000886 -0.0000576 -0.0003677 -0.0010764 -0.0000895 0.0000518
0.0032811 -0.0104846 0.0001040 -0.0000345 0.0000052 -0.0004931 0.0000273 -0.0004531 -0.0001302 -0.0010273 -0.0002180 -0.0006793 -0.0000326 -0.0002939 0.0001391 0.0000668 -0.0003495 -0.0009938 -0.0000860 0.0001314
-0.0067525 0.0157253 0.0000806 -0.0000851 0.0000117 -0.0005224 -0.0000090 -0.0006076 -0.0001248 -0.0010941 -0.0001473 -0.0006299 -0.0000112 -0.0004034 0.0001838 0.0000422 -0.0002790 -0.0009146 -0.0000768 0.0000762
-0.0104719 0.0247419 0.0000732 -0.0002253 0.0000043 -0.0007408 -0.0000437 -0.0008891 -0.0001200 -0.0012531 -0.0000492 -0.0005966 0.0000192 -0.0005134 0.0002086 -0.0000484 -0.0002045 -0.0008378 -0.0000893 -0.0000251
-0.0140299 0.0207243 0.0000834 -0.0002580 -0.0000078 -0.0008260 -0.0000518 -0.0009647 -0.0001189 -0.0012644 0.0000032 -0.0004621 0.0000337 -0.0004478 0.0002091 -0.0000493 -0.0001699 -0.0007506 -0.0000875 -0.0000815
-0.0044311 0.0086085 0.0000857 -0.0002105 0.0000024 -0.0007134 -0.0000506 -0.0008986 -0.0001226 -0.0011475 0.0000724 -0.0002156 0.0000559 -0.0003444 0.0002192 0.0000347 -0.0001631 -0.0006831 -0.0000724 -0.0001014
-0.0041640 -0.0046610 0.0000975 -0.0001387 0.0000139 -0.0005374 -0.0000510 -0.0008012 -0.0000941 -0.0009728 0.0001668 0.0001150 0.0000884 -0.0002097 0.0002296 0.0001649 -0.0001600 -0.0005788 -0.0000679 -0.0000724
-0.0008675 -0.0013068 0.0001207 -0.0000321 0.0000259 -0.0003359 -0.0000406 -0.0006353 -0.0000585 -0.0007835 0.0002006 0.0003077 0.0001038 -0.0000724 0.0002265 0.0002418 -0.0001478 -0.0004517 -0.0000624 0.0000040
0.0060958 -0.0106937 0.0001446 0.0001158 0.0000427 -0.0001368 -0.0000102 -0.0003881 -0.0000520 -0.0005974 0.0001470 0.0002148 0.0000898 -0.0000483 0.0002252 0.0002364 -0.0001324 -0.0003988 -0.0000732 0.0000135
0.0061399 -0.0299761 0.0001432 0.0001180 0.0000626 -0.0001322 0.0000131 -0.0003201 -0.0000252 -0.0005559 0.0001090 -0.0000248 0.0000782 -0.0001878 0.0002422 0.0001535 -0.0001126 -0.0004539 -0.0000717 -0.0000698
0.0008154 -0.0123781 0.0001365 -0.0000187 0.0000793 -0.0002299 0.0000237 -0.0003841 0.0000026 -0.0005790 0.0000928 -0.0001994 0.0000726 -0.0002999 0.0002636 0.0001143 -0.0001145 -0.0005238 -0.0000533 -0.0000448
-0.0037523 -0.0025634 0.0001399 -0.0000744 0.0000906 -0.0001612 0.0000258 -0.0003380 0.0000249 -0.0005010 0.0000780 -0.0002433 0.0000590 -0.0003062 0.0002614 0.0001180 -0.0001257 -0.0005171 -0.0000529 0.0000273
0.0046738 -0.0083788 0.0001338 -0.0000429 0.0000988 -0.0000337 0.0000291 -0.0002396 0.0000300 -0.0003629 0.0000576 -0.0002611 0.0000479 -0.0002618 0.0002465 0.0000891 -0.0000941 -0.0003723 -0.0000381 0.0000218
-0.0039643 0.0045322 0.0001333 0.0000003 0.0001112 0.0001498 0.0000445 -0.0000696 0.0000332 -0.0001722 0.0000435 -0.0002247 0.0000379 -0.0002221 0.0002450 0.0001456 -0.0000630 -0.0001737 -0.0000006 0.0000506
-0.0144695 0.0131167 0.0001259 0.0000335 0.0001057 0.0002999 0.0000386 0.0000509 0.0000637 0.0000329 0.0000395 -0.0001437 0.0000331 -0.0001738 0.0002259 0.0001783 -0.0000399 -0.0000044 -0.0000034 0.0001033
-0.0038219 -0.0011028 0.0001161 -0.0000051 0.0000886 0.0002200 0.0000143 -0.0000621 0.0000672 0.0000448 0.0000130 -0.0002586 0.0000387 -0.0002448 0.0002090 0.0000500 -0.0000037 0.0000377 -0.0000017 0.0000590
0.0029741 0.0070783 0.0001236 -0.0001489 0.0000795 -0.0000204 0.0000017 -0.0002884 0.0000673 -0.0001109 -0.0000346 -0.0005318 0.0000340 -0.0004239 0.0002113 -0.0000988 0.0000128 -0.0000545 0.0000036 0.0000153
0.0021030 0.0097313 0.0001342 -0.0002445 0.0000708 -0.0001250 -0.0000043 -0.0003899 0.0000889 -0.0001614 -0.0000692 -0.0006458 0.0000212 -0.0004803 0.0002067 -0.0001524 0.0000133 -0.0000955 -0.0000339 0.0000528
0.0023981 -0.0002353 0.0001351 -0.0002605 0.0000656 -0.0000929 -0.0000130 -0.0004000 0.0000835 -0.0001611 -0.0000798 -0.0006197 0.0000147 -0.0004264 0.0002088 -0.0001431 0.0000216 -0.0000452 -0.0000257 0.0000528
-0.0024386 0.0109740 0.0001389 -0.0002194 0.0000675 -0.0000004 -0.0000170 -0.0003441 0.0000703 -0.0001124 -0.0000616 -0.0004829 0.0000209 -0.0003124 0.0002065 -0.0000856 0.0000324 0.0000434 -0.0000130 0.0000354
-0.0125583 0.0146486 0.0001438 -0.0000912 0.0000783 0.0001665 -0.0000048 -0.0001973 0.0000719 0.0000015 -0.0000193 -0.0002685 0.0000526 -0.0001377 0.0002083 0.0000122 0.0000404 0.0001447 -0.0000406 0.0000491
-0.0036031 0.0099486 0.0001520 0.0000655 0.0000974 0.0003598 0.0000182 -0.0000295 0.0000701 0.0000707 0.0000257 -0.0001595 0.0000848 -0.0000577 0.0002151 0.0000469 0.0000690 0.0002058 -0.0000425 -0.0000805
0.0002061 0.0112460 0.0001613 0.0000227 0.0001126 0.0002735 0.0000367 -0.0000861 0.0000656 -0.0000384 0.0000562 -0.0002257 0.0001066 -0.0001475 0.0002165 -0.0000275 0.0000997 0.0001651 -0.0000618 -0.0002930
0.0061443 -0.0091244 0.0001594 -0.0001095 0.0001096 0.0000603 0.0000423 -0.0002486 0.0000524 -0.0001864 0.0000832 -0.0002267 0.0001479 -0.0001400 0.0002376 -0.0000447 0.0001169 0.0001402 -0.0001006 -0.0004332
0.0101423 -0.0285903 0.0001665 -0.0001064 0.0001157 0.0000859 0.0000464 -0.0002552 0.0000278 -0.0002751 0.0001291 -0.0000617 0.0001996 0.0000437 0.0002405 -0.0000282 0.0001154 0.0001371 -0.0001407 -0.0004892
0.0060196 -0.0293324 0.0002041 -0.0000042 0.0001519 0.0002540 0.0000832 -0.0001211 -0.0000102 -0.0004427 0.0001323 0.0000953 0.0002114 0.0002577 0.0001415 -0.0001531 0.0000949 0.0000873 -0.0001650 -0.0004872
0.0083025 -0.0303886 0.0002222 0.0001271 0.0001576 0.0003534 0.0001034 -0.0000171 -0.0000504 -0.0005884 0.0000219 0.0000548 0.0001668 0.0003297 -0.0000053 -0.0003200 0.0001029 0.0000690 -0.0001189 -0.0004323
0.0068719 -0.0110515 0.0002213 0.0001877 0.0001358 0.0003722 0.0000958 0.0000176 -0.0000710 -0.0005474 -0.0001298 -0.0001387 0.0000771 0.0002216 -0.0001055 -0.0004517 0.0000786 -0.0000153 -0.0000918 -0.0003953
0.0095150 -0.0113456 0.0001968 0.0001059 0.0001390 0.0002803 0.0000979 -0.0000759 -0.0000702 -0.0006034 -0.0002283 -0.0004796 -0.0000083 -0.0001039 -0.0001524 -0.0006453 -0.0000085 -0.0003319 -0.0001161 -0.0004902
0.0176560 -0.0341828 0.0001679 -0.0001062 0.0001370 0.0000143 0.0001002 -0.0003035 -0.0000678 -0.0008022 -0.0002956 -0.0008624 -0.0000495 -0.0004324 -0.0001656 -0.0008190 -0.0000858 -0.0006900 -0.0001272 -0.0005424
0.0094223 -0.0103826 0.0001743 -0.0002546 0.0001269 -0.0001163 0.0001069 -0.0003933 -0.0000636 -0.0008439 -0.0003497 -0.0010478 -0.0000828 -0.0005645 -0.0001812 -0.0009015 -0.0001575 -0.0009174 -0.0001560 -0.0005696
0.0082348 -0.0017520 0.0001604 -0.0003232 0.0001159 -0.0001275 0.0001088 -0.0004099 -0.0000570 -0.0008397 -0.0003944 -0.0011260 -0.0001138 -0.0006307 -0.0001945 -0.0009384 -0.0002528 -0.0011212 -0.0002603 -0.0006510
-0.0000633 0.0045709 0.0001104 -0.0003832 0.0001047 -0.0000959 0.0001084 -0.0003906 -0.0000518 -0.0008307 -0.0004362 -0.0011849 -0.0001504 -0.0006934 -0.0002018 -0.0009551 -0.0004378 -0.0014481 -0.0004123 -0.0008612
-0.0153873 0.0202750 0.0000748 -0.0004128 0.0000946 -0.0000449 0.0001012 -0.0003680 -0.0000902 -0.0007765 -0.0004645 -0.0011826 -0.0001806 -0.0006750 -0.0002056 -0.0009248 -0.0005573 -0.0016033 -0.0004924 -0.0009806
-0.0079784 0.0110323 0.0000696 -0.0003897 0.0000884 0.0000008 0.0000841 -0.0003871 -0.0001195 -0.0008368 -0.0004760 -0.0012084 -0.0001841 -0.0006886 -0.0002015 -0.0009328 -0.0005366 -0.0015646 -0.0004820 -0.0009956
-0.0014218 0.0093082 0.0000505 -0.0004844 0.0000792 -0.0002057 0.0000720 -0.0005819 -0.0001266 -0.0010365 -0.0004910 -0.0014032 -0.0001995 -0.0008876 -0.0002080 -0.0010766 -0.0005288 -0.0016408 -0.0004599 -0.0011458
-0.0008697 0.0049266 0.0000357 -0.0006984 0.0000630 -0.0004963 0.0000782 -0.0007737 -0.0001096 -0.0011722 -0.0004867 -0.0014908 -0.0002034 -0.0009806 -0.0002147 -0.0011466 -0.0005188 -0.0016472 -0.0004747 -0.0012650
0.0057184 -0.0121330 0.0000382 -0.0007826 0.0000626 -0.0004966 0.0000828 -0.0007729 -0.0000870 -0.0011730 -0.0004561 -0.0013817 -0.0001785 -0.0009054 -0.0002139 -0.0010932 -0.0004863 -0.0015232 -0.0004864 -0.0013054
0.0067859 -0.0196259 0.0000331 -0.0007446 0.0000646 -0.0004023 0.0000746 -0.0007239 -0.0001102 -0.0011142 -0.0004434 -0.0012682 -0.0001685 -0.0008154 -0.0002126 -0.0010355 -0.0004600 -0.0013724 -0.0004807 -0.0012678
-0.0060479 0.0021501 0.0000393 -0.0006594 0.0000652 -0.0002811 0.0000728 -0.0006196 -0.0001263 -0.0010064 -0.0004574 -0.0012015 -0.0001896 -0.0007467 -0.0002224 -0.0010021 -0.0004617 -0.0012702 -0.0005076 -0.0011901
-0.0035610 -0.0034900 0.0000524 -0.0005443 0.0000754 -0.0001238 0.0000764 -0.0004856 -0.0001266 -0.0008704 -0.0004667 -0.0011206 -0.0002054 -0.0006594 -0.0002359 -0.0009720 -0.0004600 -0.0011951 -0.0005042 -0.0011618
0.0031145 -0.0127460 0.0000437 -0.0005174 0.0000893 -0.0001051 0.0000762 -0.0004980 -0.0001137 -0.0009310 -0.0004797 -0.0012196 -0.0002206 -0.0007568 -0.0002457 -0.0010563 -0.0004533 -0.0012450 -0.0004799 -0.0012485
-0.0099759 0.0135971 0.0000530 -0.0006318 0.0000945 -0.0002930 0.0000776 -0.0006569 -0.0001106 -0.0010967 -0.0004994 -0.0014398 -0.0002371 -0.0009502 -0.0002526 -0.0011783 -0.0004520 -0.0013611 -0.0004966 -0.0013073
-0.0097636 0.0019898 0.0000554 -0.0006870 0.0000913 -0.0004011 0.0000829 -0.0007093 -0.0001105 -0.0011253 -0.0005021 -0.0014707 -0.0002284 -0.0009629 -0.0002454 -0.0011624 -0.0004477 -0.0013835 -0.0004653 -0.0013138
0.0083916 -0.0177449 0.0000446 -0.0006637 0.0000955 -0.0003605 0.0000900 -0.0006550 -0.0000839 -0.0010933 -0.0004964 -0.0014017 -0.0002140 -0.0009159 -0.0002353 -0.0011024 -0.0004496 -0.0013801 -0.0004563 -0.0012964
-0.0020991 0.0096246 0.0000515 -0.0006181 0.0000998 -0.0002617 0.0000958 -0.0005719 -0.0000792 -0.0010130 -0.0004917 -0.0013017 -0.0002028 -0.0008293 -0.0002344 -0.0010243 -0.0004480 -0.0013250 -0.0004973 -0.0012128
-0.0146117 0.0185475 0.0000544 -0.0005217 0.0001022 -0.0001333 0.0000963 -0.0004753 -0.0000910 -0.0009069 -0.0004956 -0.0012063 -0.0002009 -0.0007263 -0.0002341 -0.0009458 -0.0004461 -0.0012395 -0.0005083 -0.0011200
-0.0159497 0.0148848 0.0000688 -0.0004133 0.0001070 -0.0000021 0.0001000 -0.0003604 -0.0001067 -0.0007789 -0.0004944 -0.0011245 -0.0002086 -0.0006917 -0.0002335 -0.0009265 -0.0004520 -0.0012132 -0.0005196 -0.0011205
0.0021947 -0.0053257 0.0000775 -0.0004630 0.0001190 -0.0000763 0.0001043 -0.0004282 -0.0001016 -0.0008551 -0.0004788 -0.0012173 -0.0002223 -0.0008080 -0.0002292 -0.0010017 -0.0004452 -0.0013041 -0.0005193 -0.0012473
0.0128487 -0.0194310 0.0000631 -0.0006204 0.0001220 -0.0003184 0.0001012 -0.0006401 -0.0000960 -0.0010336 -0.0004648 -0.0013598 -0.0002118 -0.0009121 -0.0002196 -0.0010511 -0.0004370 -0.0014008 -0.0004750 -0.0013248
-0.0008540 0.0003289 0.0000565 -0.0006527 0.0001137 -0.0004035 0.0000998 -0.0007141 -0.0000967 -0.0011022 -0.0004603 -0.0013644 -0.0002033 -0.0008861 -0.0002167 -0.0010161 -0.0004380 -0.0014171 -0.0004499 -0.0012995
-0.0133630 0.0204033 0.0000649 -0.0006199 0.0001112 -0.0003793 0.0000988 -0.0006885 -0.0000860 -0.0011195 -0.0004580 -0.0013160 -0.0002001 -0.0008209 -0.0002194 -0.0009683 -0.0004416 -0.0013834 -0.0004277 -0.0012591
0.0003914 0.0064873 0.0000725 -0.0005475 0.0001106 -0.0002981 0.0000966 -0.0006142 -0.0000939 -0.0010412 -0.0004505 -0.0012048 -0.0001835 -0.0007271 -0.0002190 -0.0009179 -0.0004429 -0.0013031 -0.0004043 -0.0011948
0.0108267 -0.0203931 0.0000841 -0.0004636 0.0001119 -0.0001755 0.0000990 -0.0005063 -0.0000992 -0.0009175 -0.0004533 -0.0011192 -0.0001920 -0.0006629 -0.0002269 -0.0008631 -0.0004453 -0.0012276 -0.0004387 -0.0010948
0.0005851 -0.0062413 0.0000882 -0.0003824 0.0001184 -0.0000347 0.0001031 -0.0003966 -0.0001071 -0.0008396 -0.0004527 -0.0010942 -0.0001973 -0.0006710 -0.0002293 -0.0008566 -0.0004412 -0.0012189 -0.0004573 -0.0010818
-0.0024274 -0.0054350 0.0000752 -0.0004283 0.0001247 -0.0001449 0.0001030 -0.0004904 -0.0000918 -0.0009637 -0.0004521 -0.0012166 -0.0002025 -0.0007898 -0.0002235 -0.0009404 -0.0004310 -0.0012964 -0.0004482 -0.0011561
-0.0049664 0.0000003 0.0000690 -0.0005378 0.0001260 -0.0003606 0.0001050 -0.0006367 -0.0000720 -0.0010743 -0.0004481 -0.0013042 -0.0002060 -0.0008360 -0.0002201 -0.0009774 -0.0004302 -0.0013346 -0.0004575 -0.0011632
-0.0020751 0.0062496 0.0000736 -0.0005223 0.0001279 -0.0003385 0.0001080 -0.0006056 -0.0000773 -0.0010087 -0.0004301 -0.0012347 -0.0001949 -0.0007600 -0.0002142 -0.0009247 -0.0004344 -0.0013016 -0.0004292 -0.0011508
-0.0015042 0.0042241 0.0000873 -0.0004656 0.0001342 -0.0002259 0.0001096 -0.0005152 -0.0000731 -0.0009091 -0.0004174 -0.0011327 -0.0001881 -0.0006709 -0.0002195 -0.0008544 -0.0004364 -0.0012562 -0.0004109 -0.0011040
-0.0013840 0.0040000 0.0000977 -0.0003546 0.0001398 -0.0000663 0.0001128 -0.0003920 -0.0000531 -0.0008278 -0.0004088 -0.0009927 -0.0001724 -0.0005610 -0.0002289 -0.0007620 -0.0004490 -0.0012179 -0.0004273 -0.0009939
-0.0007762 0.0096458 0.0001058 -0.0002236 0.0001466 0.0001066 0.0001176 -0.0002593 -0.0000491 -0.0006952 -0.0003995 -0.0008630 -0.0001595 -0.0004567 -0.0002188 -0.0006377 -0.0004689 -0.0012030 -0.0004430 -0.0008854
-0.0022684 0.0100044 0.0001062 -0.0001385 0.0001651 0.0002610 0.0001219 -0.0001832 -0.0000594 -0.0006409 -0.0003887 -0.0008592 -0.0001601 -0.0004410 -0.0001979 -0.0005602 -0.0004760 -0.0012527 -0.0004454 -0.0008556
-0.0111812 0.0124092 0.0000993 -0.0002133 0.0001684 0.0001388 0.0001203 -0.0002922 -0.0000506 -0.0007575 -0.0003911 -0.0010427 -0.0001769 -0.0006012 -0.0001159 -0.0004293 -0.0004912 -0.0013712 -0.0003776 -0.0007679
-0.0092513 0.0148211 0.0000980 -0.0003067 0.0001505 -0.0000820 0.0001070 -0.0004343 -0.0000336 -0.0008188 -0.0003960 -0.0011471 -0.0001946 -0.0007073 -0.0000473 -0.0003154 -0.0004779 -0.0013227 -0.0002910 -0.0006343
-0.0036170 0.0067820 0.0001023 -0.0002528 0.0001453 -0.0000775 0.0000972 -0.0004181 -0.0000181 -0.0007925 -0.0003905 -0.0010820 -0.0001929 -0.0006391 -0.0000443 -0.0002876 -0.0004291 -0.0011363 -0.0002733 -0.0005348
-0.0025566 0.0076297 0.0001236 -0.0001545 0.0001526 0.0000599 0.0001070 -0.0002838 -0.0000102 -0.0006520 -0.0003830 -0.0009861 -0.0001894 -0.0005474 -0.0000485 -0.0002010 -0.0004102 -0.0010052 -0.0002518 -0.0004187
-0.0045372 0.0184955 0.0001227 -0.0000160 0.0001644 0.0002760 0.0001150 -0.0001046 0.0000099 -0.0004932 -0.0003736 -0.0008492 -0.0001669 -0.0004184 -0.0000520 -0.0000796 -0.0003923 -0.0008213 -0.0002158 -0.0003535
-0.0007149 0.0090564 0.0001234 0.0001355 0.0001739 0.0004774 0.0001167 0.0000631 0.0000095 -0.0003579 -0.0003368 -0.0006094 -0.0001249 -0.0001511 -0.0000339 0.0001163 -0.0002714 -0.0004318 -0.0001631 -0.0002259
-0.0009696 0.0023640 0.0001404 0.0001605 0.0001940 0.0005412 0.0001204 0.0000878 -0.0000216 -0.0003140 -0.0002644 -0.0004640 -0.0000722 -0.0000158 -0.0000047 0.0002262 -0.0000816 -0.0001009 -0.0000778 -0.0001463
-0.0285576 0.0280602 0.0001499 0.0000846 0.0002117 0.0004597 0.0001239 0.0000059 -0.0000070 -0.0003620 -0.0001793 -0.0003998 -0.0000380 -0.0000567 0.0000492 0.0002936 0.0000584 0.0000551 -0.0000072 -0.0001338
-0.0257927 0.0235910 0.0001640 0.0000843 0.0002205 0.0004546 0.0001258 0.0000091 0.0000179 -0.0002920 -0.0000652 -0.0001271 0.0000260 0.0001102 0.0001222 0.0005121 0.0003990 0.0006252 0.0002549 0.0002221
-0.0235884 0.0307247 0.0001784 0.0001751 0.0002245 0.0005295 0.0001259 0.0000696 0.0000446 -0.0002198 0.0000362 0.0002044 0.0001226 0.0004209 0.0001642 0.0007231 0.0008266 0.0013698 0.0006004 0.0005967
-0.0163899 0.0270778 0.0002056 0.0003282 0.0002233 0.0006193 0.0001328 0.0001818 0.0000491 -0.0001351 0.0000812 0.0004474 0.0001936 0.0007423 0.0001615 0.0008186 0.0010440 0.0017708 0.0007424 0.0006934
-0.0081460 0.0042077 0.0002534 0.0004750 0.0002364 0.0007753 0.0001562 0.0003590 0.0000352 -0.0000217 0.0001086 0.0006394 0.0002584 0.0010147 0.0001444 0.0008812 0.0010955 0.0018927 0.0007554 0.0006835
-0.0003646 -0.0076696 0.0002687 0.0005878 0.0002537 0.0009417 0.0001758 0.0004915 0.0000210 0.0000305 0.0001171 0.0006632 0.0002864 0.0010404 0.0001355 0.0008570 0.0010723 0.0018153 0.0007502 0.0005477
0.0136000 -0.0348219 0.0002573 0.0005196 0.0002522 0.0008087 0.0001762 0.0003923 0.0000127 -0.0000419 0.0000943 0.0004740 0.0002743 0.0008792 0.0001333 0.0007361 0.0010831 0.0016960 0.0007589 0.0004801
0.0112101 -0.0360884 0.0002529 0.0003749 0.0002373 0.0005756 0.0001659 0.0002310 0.0000288 -0.0001432 0.0000511 0.0002870 0.0002567 0.0007503 0.0001415 0.0006367 0.0010928 0.0016212 0.0007660 0.0005023
0.0119886 -0.0232138 0.0002470 0.0003663 0.0002337 0.0005772 0.0001547 0.0002001 0.0000186 -0.0001495 0.0000199 0.0002145 0.0002387 0.0007246 0.0001488 0.0005966 0.0010858 0.0015963 0.0007745 0.0004922
0.0199851 -0.0384886 0.0002505 0.0003988 0.0002380 0.0006588 0.0001503 0.0002431 0.0000245 -0.0001141 0.0000074 0.0002255 0.0002194 0.0007610 0.0001369 0.0006125 0.0010767 0.0016038 0.0007780 0.0005335
0.0104191 -0.0148523 0.0002541 0.0004517 0.0002446 0.0007792 0.0001480 0.0003354 0.0000318 -0.0000250 -0.0000102 0.0002469 0.0002094 0.0008004 0.0001222 0.0006395 0.0010551 0.0016199 0.0008150 0.0006019
0.0018333 0.0007970 0.0002483 0.0005234 0.0002459 0.0008994 0.0001445 0.0004334 0.0000143 0.0001057 -0.0000225 0.0002886 0.0002021 0.0008361 0.0001078 0.0006467 0.0010322 0.0016025 0.0008527 0.0005887
-0.0033795 0.0060847 0.0002339 0.0004543 0.0002438 0.0007945 0.0001455 0.0003550 0.0000278 0.0000206 -0.0000387 0.0001578 0.0001999 0.0007131 0.0000990 0.0005550 0.0010263 0.0015212 0.0008321 0.0005293
0.0020776 -0.0033944 0.0002344 0.0002753 0.0002411 0.0005396 0.0001483 0.0001667 0.0000564 -0.0002029 -0.0000629 -0.0000796 0.0001997 0.0005439 0.0001050 0.0004344 0.0010313 0.0014510 0.0008015 0.0004821
0.0028889 0.0050047 0.0002347 0.0002205 0.0002368 0.0004689 0.0001455 0.0001323 0.0000594 -0.0002397 -0.0000598 -0.0001027 0.0001993 0.0005238 0.0001115 0.0003970 0.0010544 0.0015394 0.0007693 0.0004289
0.0052146 0.0004234 0.0002300 0.0002576 0.0002370 0.0005316 0.0001495 0.0001918 0.0000439 -0.0001501 -0.0000310 -0.0000051 0.0002038 0.0005559 0.0001174 0.0004047 0.0010827 0.0016689 0.0007450 0.0004678
0.0101677 -0.0356585 0.0002453 0.0003197 0.0002346 0.0006331 0.0001558 0.0002856 0.0000369 -0.0000564 0.0000009 0.0001467 0.0002080 0.0006455 0.0001237 0.0004399 0.0010922 0.0017202 0.0007535 0.0005450
-0.0128915 0.0141888 0.0002508 0.0004519 0.0002398 0.0007652 0.0001596 0.0004135 0.0000321 0.0000471 0.0000167 0.0002797 0.0002167 0.0007807 0.0001197 0.0005085 0.0010939 0.0018108 0.0007485 0.0005255
-0.0079864 0.0150134 0.0002572 0.0006071 0.0002504 0.0008443 0.0001695 0.0004658 0.0000321 0.0000195 0.0000550 0.0003462 0.0002414 0.0007946 0.0001175 0.0004969 0.0010995 0.0018275 0.0007540 0.0004914
0.0017891 0.0049546 0.0002719 0.0005312 0.0002443 0.0006468 0.0001718 0.0003272 0.0000193 -0.0001496 0.0000722 0.0002822 0.0002537 0.0006760 0.0001150 0.0003833 0.0010969 0.0017113 0.0008015 0.0004880
0.0048743 -0.0053220 0.0002669 0.0003864 0.0002266 0.0004212 0.0001725 0.0001951 0.0000111 -0.0002357 0.0000218 0.0001377 0.0002340 0.0006004 0.0001057 0.0003115 0.0010812 0.0016396 0.0008311 0.0005160
0.0049483 -0.0369050 0.0002652 0.0003767 0.0002221 0.0004352 0.0001757 0.0002083 0.0000355 -0.0002446 0.0000281 0.0001923 0.0002345 0.0006310 0.0001098 0.0003218 0.0010906 0.0017112 0.0007931 0.0004876
-0.0022386 0.0017965 0.0002767 0.0004172 0.0002260 0.0005309 0.0001797 0.0002868 0.0000427 -0.0001889 0.0000296 0.0002711 0.0002304 0.0006894 0.0001106 0.0003735 0.0010970 0.0017784 0.0007703 0.0005836
0.0060013 0.0022990 0.0002889 0.0004864 0.0002283 0.0006541 0.0001813 0.0003761 0.0000126 -0.0000849 -0.0000161 0.0002478 0.0002063 0.0007617 0.0001050 0.0004405 0.0010778 0.0017716 0.0007800 0.0007514
0.0082281 -0.0110243 0.0003049 0.0005732 0.0002256 0.0007547 0.0001754 0.0004624 0.0000056 -0.0000093 -0.0000286 0.0003099 0.0002041 0.0008687 0.0001051 0.0004762 0.0010566 0.0017392 0.0008066 0.0007203
0.0136729 -0.0249138 0.0003003 0.0005561 0.0002201 0.0006513 0.0001681 0.0003817 0.0000240 -0.0001042 -0.0000384 0.0002169 0.0002042 0.0008093 0.0000985 0.0004169 0.0010261 0.0015565 0.0008328 0.0005982
0.0081909 -0.0045584 0.0002850 0.0004092 0.0002126 0.0004084 0.0001706 0.0001860 0.0000172 -0.0002462 -0.0000426 0.0000539 0.0002080 0.0006847 0.0000929 0.0003596 0.0009913 0.0013761 0.0008208 0.0005194
-0.0014414 0.0037789 0.0002618 0.0003607 0.0002024 0.0003438 0.0001718 0.0001360 0.0000092 -0.0002616 -0.0000386 0.0000443 0.0002255 0.0006612 0.0001051 0.0003853 0.0009670 0.0013218 0.0008335 0.0005336
-0.0010019 0.0129984 0.0002566 0.0003884 0.0001955 0.0004117 0.0001635 0.0001768 0.0000085 -0.0002295 -0.0000328 0.0001047 0.0002301 0.0007149 0.0001164 0.0004421 0.0009544 0.0013285 0.0008067 0.0005766
0.0010661 0.0157907 0.0002688 0.0004513 0.0001970 0.0005267 0.0001626 0.0002583 -0.0000024 -0.0001213 -0.0000071 0.0002580 0.0002432 0.0008317 0.0001100 0.0005123 0.0009534 0.0013914 0.0007448 0.0006275
0.0090529 -0.0195202 0.0002783 0.0005394 0.0001987 0.0006573 0.0001617 0.0003617 0.0000124 -0.0000281 0.0000027 0.0003747 0.0002447 0.0009050 0.0001044 0.0005728 0.0009476 0.0014603 0.0007330 0.0006943
0.0003698 -0.0031826 0.0002541 0.0005587 0.0002001 0.0007886 0.0001548 0.0004452 0.0000203 0.0000076 -0.0000252 0.0003183 0.0002057 0.0008298 0.0000928 0.0005316 0.0009346 0.0014513 0.0007492 0.0007209
-0.0187071 0.0325786 0.0002013 0.0004247 0.0002070 0.0006861 0.0001500 0.0003375 0.0000176 -0.0000821 -0.0000635 0.0000791 0.0001531 0.0005937 0.0000979 0.0004477 0.0009306 0.0013580 0.0007876 0.0007897
-0.0130262 0.0282481 0.0001901 0.0002855 0.0002030 0.0004770 0.0001441 0.0001840 0.0000330 -0.0001650 -0.0000998 -0.0001175 0.0001054 0.0004060 0.0001044 0.0003841 0.0009268 0.0013275 0.0008470 0.0008640
-0.0031150 0.0104075 0.0002068 0.0002799 0.0002012 0.0004925 0.0001417 0.0001953 0.0000391 -0.0001146 -0.0001194 -0.0001441 0.0000871 0.0003884 0.0000774 0.0003215 0.0009261 0.0013978 0.0008662 0.0008744
-0.0040202 0.0073496 0.0002220 0.0003272 0.0002038 0.0005942 0.0001484 0.0002855 0.0000392 -0.0000510 -0.0001196 -0.0000675 0.0001028 0.0004804 0.0000556 0.0003152 0.0009322 0.0014893 0.0008409 0.0009304
-0.0030281 0.0059199 0.0002197 0.0004303 0.0002037 0.0007420 0.0001565 0.0004356 0.0000475 0.0000626 -0.0001083 0.0000774 0.0001186 0.0006255 0.0000484 0.0003811 0.0009385 0.0015789 0.0007995 0.0010424
-0.0078314 0.0159886 0.0002360 0.0005293 0.0002080 0.0009014 0.0001634 0.0005771 0.0000502 0.0001963 -0.0000937 0.0002278 0.0001239 0.0007687 0.0000359 0.0004718 0.0009373 0.0016647 0.0007793 0.0011136
-0.0088368 0.0065547 0.0002531 0.0005333 0.0002255 0.0009609 0.0001624 0.0005831 0.0000311 0.0002098 -0.0000819 0.0002122 0.0001209 0.0007473 0.0000439 0.0004550 0.0009393 0.0016340 0.0007875 0.0010480
0.0043738 -0.0236832 0.0002267 0.0004588 0.0002338 0.0008201 0.0001565 0.0004667 0.0000170 0.0001121 -0.0000745 0.0000914 0.0001169 0.0006363 0.0000524 0.0003972 0.0009327 0.0015429 0.0007880 0.0009727
0.0077326 -0.0109246 0.0002038 0.0004133 0.0002270 0.0007213 0.0001587 0.0004277 0.0000308 0.0000708 -0.0000730 0.0000929 0.0001168 0.0006367 0.0000417 0.0004172 0.0009133 0.0015240 0.0007834 0.0009783
0.0052171 -0.0078831 0.0002099 0.0004221 0.0002258 0.0007722 0.0001621 0.0004705 0.0000120 0.0001365 -0.0000734 0.0001417 0.0001176 0.0006732 0.0000374 0.0004426 0.0009014 0.0015303 0.0008025 0.0009845
0.0034298 0.0035888 0.0002202 0.0004517 0.0002243 0.0008545 0.0001630 0.0005426 0.0000253 0.0001958 -0.0000747 0.0002068 0.0001173 0.0007399 0.0000304 0.0004841 0.0008924 0.0015590 0.0008042 0.0010339
0.0065482 0.0003208 0.0002043 0.0005310 0.0002262 0.0009812 0.0001652 0.0006499 0.0000418 0.0002756 -0.0000754 0.0002830 0.0001243 0.0008195 0.0000241 0.0005411 0.0008826 0.0016040 0.0007612 0.0011227
0.0139091 -0.0262777 0.0002029 0.0005996 0.0002339 0.0011067 0.0001671 0.0007409 0.0000278 0.0003626 -0.0000746 0.0002760 0.0001337 0.0007822 0.0000295 0.0005229 0.0008802 0.0015837 0.0007380 0.0010856
0.0103155 -0.0242377 0.0002084 0.0004980 0.0002416 0.0009730 0.0001702 0.0006360 0.0000332 0.0002514 -0.0000673 0.0001585 0.0001228 0.0006485 0.0000349 0.0004380 0.0008869 0.0014947 0.0007292 0.0009746
-0.0026601 -0.0001752 0.0001971 0.0003562 0.0002430 0.0007480 0.0001746 0.0004911 0.0000411 0.0001340 -0.0000493 0.0000958 0.0001174 0.0005818 0.0000436 0.0003849 0.0008921 0.0014493 0.0007236 0.0009372
0.0074981 0.0059278 0.0001983 0.0003380 0.0002453 0.0007346 0.0001818 0.0005026 0.0000549 0.0001620 -0.0000336 0.0001239 0.0001168 0.0005826 0.0000597 0.0003863 0.0008938 0.0014456 0.0007535 0.0009107
0.0112271 -0.0050056 0.0001936 0.0003847 0.0002498 0.0007993 0.0001923 0.0005678 0.0000634 0.0002104 -0.0000410 0.0001510 0.0001059 0.0005881 0.0000654 0.0004340 0.0008904 0.0014665 0.0007632 0.0009483
0.0066122 -0.0137580 0.0001869 0.0004306 0.0002476 0.0008998 0.0001930 0.0006555 0.0000476 0.0002869 -0.0000689 0.0001579 0.0000920 0.0006031 0.0000574 0.0004821 0.0008790 0.0015282 0.0007724 0.0010634
0.0046064 -0.0014338 0.0001895 0.0004588 0.0002392 0.0009728 0.0001889 0.0007238 0.0000329 0.0003636 -0.0000739 0.0002057 0.0000913 0.0006274 0.0000507 0.0005003 0.0008866 0.0016217 0.0007975 0.0010969
0.0001109 0.0038699 0.0001837 0.0003892 0.0002316 0.0008224 0.0001850 0.0006111 0.0000278 0.0002286 -0.0000799 0.0000674 0.0000873 0.0004753 0.0000473 0.0004030 0.0008995 0.0015827 0.0007785 0.0010509
-0.0132041 0.0185397 0.0001655 0.0002286 0.0002225 0.0005149 0.0001766 0.0003703 0.0000454 -0.0000404 -0.0000963 -0.0001850 0.0000793 0.0002611 0.0000579 0.0002665 0.0009011 0.0014651 0.0007539 0.0009690
-0.0023617 0.0034188 0.0001613 0.0001875 0.0002166 0.0003971 0.0001714 0.0002752 0.0000605 -0.0001436 -0.0000743 -0.0001730 0.0000903 0.0002444 0.0000729 0.0002303 0.0009147 0.0014758 0.0007397 0.0009066
0.0061396 -0.0194852 0.0001801 0.0002293 0.0002117 0.0003908 0.0001689 0.0002614 0.0000437 -0.0001744 -0.0000760 -0.0001383 0.0000915 0.0002893 0.0000695 0.0002110 0.0009245 0.0015040 0.0007208 0.0009332
0.0021687 -0.0186639 0.0001922 0.0003203 0.0001992 0.0003810 0.0001656 0.0002640 0.0000312 -0.0001612 -0.0000949 -0.0000962 0.0001068 0.0003931 0.0000619 0.0002491 0.0009236 0.0015221 0.0007440 0.0009636
0.0039435 -0.0169690 0.0002076 0.0004220 0.0001935 0.0004492 0.0001668 0.0003104 0.0000205 -0.0000946 -0.0000864 0.0000203 0.0001251 0.0005170 0.0000557 0.0003415 0.0009030 0.0015255 0.0007559 0.0009504
-0.0025312 -0.0093638 0.0002214 0.0004771 0.0001982 0.0005488 0.0001693 0.0003211 0.0000372 -0.0001467 -0.0000601 0.0000580 0.0001461 0.0005014 0.0000536 0.0003610 0.0008821 0.0014327 0.0007125 0.0008257
-0.0024726 -0.0000878 0.0001959 0.0003858 0.0002077 0.0003954 0.0001669 0.0001494 0.0000308 -0.0003446 -0.0000198 -0.0000089 0.0001723 0.0003492 0.0000512 0.0002532 0.0008657 0.0012440 0.0006798 0.0006370
-0.0035529 0.0090923 0.0001848 0.0001984 0.0002122 0.0001520 0.0001708 -0.0000618 0.0000049 -0.0004956 -0.0000230 -0.0001195 0.0001475 0.0001809 0.0000429 0.0001300 0.0008362 0.0010815 0.0006592 0.0006009
-0.0078967 0.0167892 0.0001859 0.0001117 0.0001961 0.0000539 0.0001634 -0.0001676 0.0000081 -0.0005373 -0.0000534 -0.0001919 0.0001074 0.0000944 0.0000377 0.0000425 0.0008077 0.0010009 0.0006496 0.0006659
-0.0029498 0.0140418 0.0001845 0.0000973 0.0001858 0.0000531 0.0001558 -0.0001774 0.0000041 -0.0005506 -0.0000881 -0.0002672 0.0000344 -0.0000752 -0.0000087 -0.0001288 0.0004692 0.0004133 0.0004042 0.0003130
0.0031476 -0.0019650 0.0001706 0.0001066 0.0001837 0.0001377 0.0001585 -0.0001215 -0.0000132 -0.0005109 -0.0001552 -0.0003895 -0.0000596 -0.0002684 -0.0000633 -0.0002655 0.0000430 -0.0002792 0.0000817 -0.0000155
0.0064793 -0.0224208 0.0001265 0.0001067 0.0001688 0.0001816 0.0001502 -0.0000828 0.0000063 -0.0004833 -0.0002109 -0.0004566 -0.0001113 -0.0003143 -0.0000869 -0.0002809 -0.0000828 -0.0004250 0.0000423 0.0000387
0.0151734 -0.0354112 0.0001137 0.0000221 0.0001619 0.0001281 0.0001443 -0.0001417 -0.0000083 -0.0005101 -0.0002296 -0.0006022 -0.0001375 -0.0005035 -0.0001075 -0.0003840 -0.0001719 -0.0006293 0.0000186 -0.0000964
0.0044998 -0.0010007 0.0001165 -0.0002022 0.0001548 -0.0000898 0.0001448 -0.0003115 -0.0000345 -0.0006061 -0.0002394 -0.0008084 -0.0001497 -0.0007449 -0.0001214 -0.0005340 -0.0002604 -0.0008921 -0.0000716 -0.0002741
-0.0072253 0.0158523 0.0000858 -0.0003375 0.0001430 -0.0002310 0.0001448 -0.0003941 -0.0000076 -0.0006686 -0.0002317 -0.0008063 -0.0001385 -0.0007555 -0.0001184 -0.0005523 -0.0002985 -0.0009529 -0.0001292 -0.0002999
-0.0047947 0.0169744 0.0000672 -0.0003399 0.0001402 -0.0001860 0.0001433 -0.0003730 -0.0000035 -0.0006206 -0.0002122 -0.0006815 -0.0001235 -0.0006478 -0.0001088 -0.0004941 -0.0003049 -0.0009018 -0.0001544 -0.0002556
0.0020986 0.0014983 0.0000781 -0.0003089 0.0001400 -0.0000777 0.0001401 -0.0003070 -0.0000251 -0.0005335 -0.0002077 -0.0005676 -0.0001261 -0.0005217 -0.0001032 -0.0003981 -0.0003109 -0.0008272 -0.0001677 -0.0001925
0.0061263 -0.0108777 0.0000739 -0.0001974 0.0001403 0.0000737 0.0001342 -0.0002019 -0.0000271 -0.0004516 -0.0002087 -0.0004559 -0.0001297 -0.0003882 -0.0001012 -0.0002597 -0.0003130 -0.0007394 -0.0001514 -0.0000981
0.0059028 -0.0055667 0.0000764 -0.0000676 0.0001446 0.0002454 0.0001308 -0.0000763 -0.0000164 -0.0003695 -0.0002078 -0.0003391 -0.0001225 -0.0002770 -0.0000980 -0.0001548 -0.0003075 -0.0006652 -0.0001245 -0.0000447
0.0044320 -0.0184099 0.0000857 -0.0000683 0.0001500 0.0002272 0.0001289 -0.0001191 -0.0000235 -0.0004205 -0.0002119 -0.0004337 -0.0001127 -0.0003488 -0.0000885 -0.0001787 -0.0002963 -0.0006836 -0.0001019 -0.0000833
-0.0004056 -0.0000090 0.0000800 -0.0001754 0.0001538 0.0000838 0.0001272 -0.0002556 -0.0000329 -0.0005192 -0.0002221 -0.0005929 -0.0001191 -0.0004695 -0.0000740 -0.0001936 -0.0002824 -0.0007022 -0.0000907 -0.0000569
0.0031546 -0.0015093 0.0000768 -0.0001978 0.0001506 0.0000885 0.0001182 -0.0002792 -0.0000150 -0.0005187 -0.0002116 -0.0005193 -0.0001023 -0.0004159 -0.0000467 -0.0000567 -0.0002499 -0.0005910 -0.0000791 0.0000001
0.0081929 -0.0163812 0.0000759 -0.0001167 0.0001484 0.0001924 0.0001067 -0.0002276 -0.0000186 -0.0004413 -0.0001692 -0.0003248 -0.0000525 -0.0002235 -0.0000151 0.0000931 -0.0002077 -0.0004338 -0.0001039 -0.0000127
0.0008640 0.0041185 0.0000800 0.0000182 0.0001588 0.0003743 0.0001118 -0.0000849 -0.0000347 -0.0003038 -0.0001224 -0.0000985 -0.0000154 0.0000005 -0.0000035 0.0001901 -0.0001816 -0.0003171 -0.0001502 -0.0000307
-0.0051818 0.0119123 0.0000875 0.0001540 0.0001720 0.0005679 0.0001192 0.0000689 -0.0000404 -0.0002088 -0.0001059 0.0000492 -0.0000145 0.0001491 -0.0000107 0.0002753 -0.0001815 -0.0002443 -0.0001528 -0.0000036
-0.0005408 -0.0098104 0.0000881 0.0002494 0.0001822 0.0007138 0.0001162 0.0001448 -0.0000443 -0.0001768 -0.0001057 0.0000266 -0.0000223 0.0001314 -0.0000087 0.0002752 -0.0001859 -0.0002496 -0.0000986 -0.0000709
0.0012835 -0.0208379 0.0000827 0.0001819 0.0001809 0.0005760 0.0001134 0.0000356 -0.0000662 -0.0002473 -0.0000923 -0.0000795 -0.0000104 0.0000169 -0.0000006 0.0002065 -0.0001811 -0.0003387 -0.0000568 -0.0002313
-0.0087506 0.0067687 0.0001022 0.0000680 0.0001716 0.0003738 0.0001240 -0.0000609 -0.0000558 -0.0003251 -0.0000727 -0.0000828 0.0000028 -0.0000039 0.0000050 0.0002162 -0.0001867 -0.0004024 -0.0000628 -0.0002983
-0.0080522 0.0013872 0.0000957 0.0001025 0.0001705 0.0004147 0.0001342 -0.0000083 -0.0000222 -0.0003210 -0.0000389 0.0000194 0.0000162 0.0000154 0.0000118 0.0002847 -0.0001967 -0.0004031 -0.0001026 -0.0003167
0.0084440 -0.0079631 0.0000848 0.0001749 0.0001736 0.0005112 0.0001331 0.0000806 -0.0000181 -0.0002557 -0.0000161 0.0001334 0.0000238 0.0000699 0.0000152 0.0003268 -0.0001907 -0.0003398 -0.0001450 -0.0002778
0.0089335 -0.0034204 0.0001096 0.0002593 0.0001718 0.0006277 0.0001289 0.0001927 -0.0000253 -0.0001475 -0.0000272 0.0002192 0.0000237 0.0001816 0.0000076 0.0003493 -0.0001769 -0.0002531 -0.0001725 -0.0001726
0.0007490 -0.0135820 0.0001128 0.0003701 0.0001666 0.0007443 0.0001281 0.0003084 -0.0000237 -0.0000668 -0.0000387 0.0002943 0.0000169 0.0002946 -0.0000007 0.0003858 -0.0001736 -0.0002093 -0.0001530 -0.0000794
-0.0108070 0.0080329 0.0001072 0.0003650 0.0001735 0.0007184 0.0001261 0.0002802 -0.0000117 -0.0001241 -0.0000442 0.0002007 -0.0000010 0.0002096 -0.0000004 0.0003141 -0.0001802 -0.0002969 -0.0001031 -0.0001130
-0.0071192 0.0038746 0.0001147 0.0002219 0.0001760 0.0005009 0.0001212 0.0001108 -0.0000160 -0.0002803 -0.0000682 -0.0000372 -0.0000078 0.0000085 0.0000027 0.0001749 -0.0001816 -0.0004147 -0.0000933 -0.0001932
0.0038950 -0.0029734 0.0001130 0.0001719 0.0001640 0.0003903 0.0001199 0.0000548 -0.0000244 -0.0003211 -0.0000847 -0.0001030 0.0000021 -0.0000126 -0.0000007 0.0001335 -0.0001732 -0.0004456 -0.0000728 -0.0002091
-0.0038926 0.0171437 0.0001124 0.0002152 0.0001591 0.0004328 0.0001222 0.0001032 -0.0000379 -0.0002634 -0.0000822 -0.0000432 0.0000097 0.0000573 -0.0000104 0.0001357 -0.0001748 -0.0004528 -0.0000652 -0.0002050
-0.0127855 0.0223827 0.0001268 0.0002707 0.0001600 0.0005129 0.0001250 0.0001810 -0.0000402 -0.0001937 -0.0000913 0.0000221 0.0000186 0.0001301 -0.0000094 0.0001773 -0.0001825 -0.0004330 -0.0000684 -0.0001710
-0.0058315 0.0077950 0.0001261 0.0003652 0.0001621 0.0006454 0.0001238 0.0002889 -0.0000411 -0.0000838 -0.0001081 0.0000816 0.0000117 0.0002053 -0.0000091 0.0002438 -0.0001898 -0.0003966 -0.0000684 -0.0000688
-0.0117626 0.0161228 0.0001120 0.0004436 0.0001640 0.0007848 0.0001190 0.0003997 -0.0000591 0.0000367 -0.0001220 0.0000976 -0.0000094 0.0002130 -0.0000122 0.0002467 -0.0001852 -0.0003731 -0.0000861 -0.0000403
-0.0092852 0.0139238 0.0000993 0.0003605 0.0001685 0.0006858 0.0001077 0.0002887 -0.0000402 -0.0000693 -0.0001260 -0.0000444 -0.0000154 0.0000764 -0.0000073 0.0001482 -0.0001641 -0.0004348 -0.0000653 -0.0001774
0.0119990 -0.0303484 0.0001001 0.0002048 0.0001702 0.0004663 0.0000985 0.0000982 -0.0000236 -0.0002347 -0.0001267 -0.0001876 -0.0000151 -0.0000221 -0.0000039 0.0000539 -0.0001540 -0.0005084 -0.0000422 -0.0002456
0.0051721 -0.0216964 0.0001037 0.0001810 0.0001701 0.0004570 0.0000993 0.0000936 -0.0000344 -0.0002200 -0.0001297 -0.0001847 -0.0000126 0.0000024 -0.0000043 0.0000453 -0.0001512 -0.0004954 -0.0000429 -0.0002293
-0.0009767 0.0011567 0.0001045 0.0002318 0.0001695 0.0005347 0.0001015 0.0001557 -0.0000291 -0.0001719 -0.0001238 -0.0001189 0.0000016 0.0000451 -0.0000080 0.0000685 -0.0001483 -0.0004515 -0.0000205 -0.0001948
0.0107655 -0.0034750 0.0001136 0.0003047 0.0001662 0.0006340 0.0001036 0.0002581 -0.0000280 -0.0000777 -0.0001356 -0.0000559 -0.0000017 0.0001063 -0.0000181 0.0000943 -0.0001575 -0.0004121 -0.0000092 -0.0000881
0.0129419 -0.0112314 0.0001278 0.0003786 0.0001660 0.0007546 0.0001053 0.0003686 -0.0000011 0.0000160 -0.0001556 0.0000167 -0.0000068 0.0001936 -0.0000322 0.0001581 -0.0001624 -0.0003348 -0.0000413 0.0000096
0.0018274 -0.0062364 0.0001346 0.0004379 0.0001749 0.0008732 0.0001019 0.0004168 0.0000090 0.0000345 -0.0001029 0.0001366 0.0000278 0.0002519 -0.0000119 0.0002256 -0.0001358 -0.0002954 -0.0000753 -0.0000986
-0.0044592 0.0045295 0.0001259 0.0003641 0.0001776 0.0007262 0.0001024 0.0002882 -0.0000313 -0.0000836 -0.0000316 0.0001529 0.0000453 0.0001787 0.0000098 0.0001688 -0.0001216 -0.0003640 -0.0001202 -0.0003213
0.0049593 -0.0138254 0.0001269 0.0002543 0.0001618 0.0004772 0.0001088 0.0001575 -0.0000585 -0.0001850 -0.0000363 0.0000733 0.0000336 0.0000968 0.0000119 0.0000780 -0.0001252 -0.0004139 -0.0001361 -0.0003994
0.0174118 -0.0283279 0.0001235 0.0002848 0.0001559 0.0004596 0.0001116 0.0001657 -0.0000499 -0.0002085 -0.0000499 0.0000690 0.0000363 0.0001301 0.0000148 0.0000961 -0.0001244 -0.0004065 -0.0000653 -0.0003868
0.0123805 -0.0160553 0.0001258 0.0003353 0.0001530 0.0005264 0.0001128 0.0002133 -0.0000390 -0.0001912 -0.0000507 0.0001257 0.0000364 0.0002097 0.0000128 0.0001700 -0.0001448 -0.0004347 -0.0000213 -0.0002745
-0.0032714 0.0003339 0.0001381 0.0003913 0.0001455 0.0006237 0.0001085 0.0002894 -0.0000305 -0.0001179 -0.0000717 0.0001659 0.0000355 0.0002909 0.0000123 0.0002620 -0.0001690 -0.0004751 -0.0000062 -0.0001449
-0.0029903 -0.0003558 0.0001315 0.0004902 0.0001448 0.0007283 0.0001049 0.0003856 -0.0000400 0.0000019 -0.0000790 0.0002407 0.0000471 0.0003912 0.0000144 0.0003529 -0.0001654 -0.0004242 -0.0000181 -0.0001456
0.0107426 -0.0209157 0.0001266 0.0004749 0.0001514 0.0006761 0.0001088 0.0003300 -0.0000525 -0.0000293 -0.0000526 0.0002079 0.0000568 0.0003303 0.0000177 0.0003149 -0.0001436 -0.0004065 -0.0000512 -0.0002250
0.0158069 -0.0368398 0.0001402 0.0003384 0.0001524 0.0004796 0.0001103 0.0001633 -0.0000291 -0.0002307 -0.0000408 0.0000747 0.0000553 0.0001688 0.0000239 0.0002013 -0.0001293 -0.0004617 -0.0000625 -0.0002972
0.0105308 -0.0216581 0.0001469 0.0003051 0.0001467 0.0004146 0.0001080 0.0001220 -0.0000104 -0.0002933 -0.0000463 0.0000567 0.0000523 0.0001491 0.0000331 0.0001703 -0.0001212 -0.0004686 -0.0000652 -0.0003395
-0.0110358 0.0195349 0.0001377 0.0003439 0.0001470 0.0004796 0.0001100 0.0001663 -0.0000275 -0.0002134 -0.0000343 0.0001241 0.0000542 0.0002115 0.0000374 0.0001944 -0.0001219 -0.0004536 -0.0000575 -0.0003142
-0.0341007 0.0323283 0.0001547 0.0003889 0.0001479 0.0005869 0.0001115 0.0002469 -0.0000350 -0.0001161 -0.0000362 0.0001861 0.0000549 0.0002762 0.0000390 0.0002466 -0.0001320 -0.0004349 -0.0000294 -0.0002487
-0.0076689 0.0066234 0.0001632 0.0004691 0.0001526 0.0007201 0.0001133 0.0003457 -0.0000402 -0.0000039 -0.0000326 0.0002899 0.0000570 0.0003834 0.0000386 0.0003314 -0.0001324 -0.0003481 -0.0000482 -0.0002428
-0.0039575 -0.0019872 0.0001537 0.0005917 0.0001620 0.0008654 0.0001220 0.0004505 -0.0000473 0.0000791 -0.0000084 0.0003628 0.0000669 0.0003826 0.0000340 0.0003341 -0.0001287 -0.0003310 -0.0000542 -0.0002416
0.0004836 -0.0226774 0.0001596 0.0005212 0.0001630 0.0007230 0.0001211 0.0003320 -0.0000479 -0.0000614 -0.0000125 0.0002222 0.0000677 0.0002128 0.0000322 0.0002182 -0.0001306 -0.0004509 -0.0000115 -0.0002384
0.0027218 -0.0110424 0.0001530 0.0003494 0.0001554 0.0004681 0.0001175 0.0001510 -0.0000564 -0.0002195 -0.0000334 0.0000841 0.0000656 0.0001325 0.0000351 0.0001459 -0.0001276 -0.0005241 0.0000075 -0.0002245
-0.0075276 0.0150900 0.0001408 0.0003496 0.0001545 0.0004605 0.0001219 0.0001579 -0.0000353 -0.0002333 -0.0000504 0.0000567 0.0000627 0.0001528 0.0000478 0.0001375 -0.0001273 -0.0005662 0.0000226 -0.0001680
-0.0011654 0.0095583 0.0001383 0.0003898 0.0001564 0.0005210 0.0001238 0.0002101 0.0000014 -0.0002059 -0.0000632 0.0000791 0.0000580 0.0002103 0.0000514 0.0001716 -0.0001430 -0.0005923 0.0000285 -0.0001230
0.0081586 -0.0158386 0.0001377 0.0004381 0.0001560 0.0006259 0.0001240 0.0002938 0.0000126 -0.0001263 -0.0000594 0.0001734 0.0000553 0.0003127 0.0000396 0.0002430 -0.0001482 -0.0005437 0.0000046 -0.0000890
0.0007244 0.0008077 0.0001533 0.0005136 0.0001604 0.0007663 0.0001271 0.0004029 -0.0000065 0.0000394 -0.0000321 0.0003334 0.0000610 0.0004633 0.0000379 0.0003419 -0.0001408 -0.0004322 0.0000271 -0.0000901
0.0069660 -0.0051776 0.0001702 0.0005250 0.0001756 0.0008149 0.0001271 0.0004002 -0.0000303 0.0000922 0.0000016 0.0003665 0.0000742 0.0004301 0.0000433 0.0003471 -0.0001377 -0.0004413 0.0000511 -0.0001905
0.0080798 -0.0157507 0.0001631 0.0004430 0.0001820 0.0006878 0.0001277 0.0002752 -0.0000292 -0.0000148 0.0000186 0.0002704 0.0000807 0.0002764 0.0000427 0.0002908 -0.0001456 -0.0005361 0.0000240 -0.0002464
-0.0099156 0.0168973 0.0001644 0.0004072 0.0001781 0.0006329 0.0001310 0.0002532 -0.0000190 -0.0000330 0.0000366 0.0002930 0.0000854 0.0002547 0.0000643 0.0003425 -0.0001681 -0.0005728 0.0000257 -0.0001596
-0.0107172 0.0323326 0.0001747 0.0004356 0.0001763 0.0007145 0.0001306 0.0003216 -0.0000288 0.0000449 0.0001757 0.0005899 0.0001757 0.0004175 0.0002523 0.0006244 -0.0002602 -0.0006467 0.0000150 0.0000275
0.0011156 0.0153147 0.0001417 0.0004121 0.0001773 0.0008358 0.0000868 0.0003144 0.0000206 0.0002974 0.0006884 0.0014591 0.0001202 -0.0000511 0.0002495 0.0003628 -0.0005292 -0.0005283 -0.0002450 -0.0000875
0.0057158 -0.0092865 0.0000088 0.0002621 0.0000855 0.0006926 -0.0000275 0.0001130 0.0001924 0.0008159 0.0013646 0.0029161 -0.0001304 -0.0009698 -0.0001453 -0.0007000 -0.0006451 0.0001301 -0.0005881 -0.0004566
-0.0137515 0.0139076 -0.0000996 0.0001551 -0.0000512 0.0003900 -0.0001235 -0.0001021 0.0003209 0.0010611 0.0017649 0.0040139 -0.0002052 -0.0012600 -0.0004062 -0.0013983 -0.0004911 0.0007795 -0.0006922 -0.0006557
-0.0165261 0.0197101 -0.0001122 0.0000550 -0.0001084 0.0000361 -0.0001600 -0.0003874 0.0003365 0.0009058 0.0019226 0.0043924 -0.0001079 -0.0012055 -0.0004135 -0.0015002 -0.0003933 0.0009472 -0.0006875 -0.0007875
0.0010283 0.0025394 -0.0001273 -0.0000896 -0.0001675 -0.0003762 -0.0002007 -0.0007268 0.0003527 0.0009204 0.0019946 0.0046189 -0.0000219 -0.0010564 -0.0004015 -0.0014722 -0.0003481 0.0009925 -0.0006873 -0.0008691
0.0047962 -0.0070437 -0.0001256 -0.0001424 -0.0002216 -0.0005509 -0.0002392 -0.0008958 0.0003727 0.0009490 0.0018674 0.0043489 -0.0000670 -0.0010998 -0.0004078 -0.0015079 -0.0002826 0.0011152 -0.0007152 -0.0009398
-0.0161820 0.0165044 -0.0000974 -0.0000428 -0.0002132 -0.0005132 -0.0002188 -0.0008133 0.0003386 0.0008492 0.0013640 0.0030832 -0.0000484 -0.0008797 -0.0000535 -0.0006644 -0.0003503 0.0009105 -0.0006930 -0.0009716
-0.0141850 0.0179420 -0.0000705 0.0000703 -0.0000991 -0.0000835 -0.0001261 -0.0003711 0.0002819 0.0008058 0.0009101 0.0021034 0.0001807 -0.0000291 0.0004335 0.0006243 -0.0005900 0.0003377 -0.0006806 -0.0008880
-0.0040085 0.0085044 -0.0000596 0.0001069 0.0000417 0.0004966 -0.0000392 0.0001063 0.0002366 0.0008754 0.0007896 0.0019696 0.0003189 0.0004956 0.0005784 0.0010565 -0.0007632 -0.0000709 -0.0007348 -0.0008138
-0.0020131 0.0046208 -0.0000661 0.0000211 0.0000899 0.0005593 -0.0000050 0.0001737 0.0002123 0.0007778 0.0007057 0.0016893 0.0003135 0.0004346 0.0005724 0.0009411 -0.0007655 -0.0001835 -0.0006996 -0.0008695
0.0022899 -0.0071977 -0.0000709 -0.0001557 0.0000837 0.0003107 0.0000150 0.0000525 0.0001808 0.0005433 0.0006286 0.0014236 0.0003349 0.0004505 0.0005655 0.0008335 -0.0007334 -0.0002260 -0.0006294 -0.0009470
0.0065072 -0.0045082 -0.0000766 -0.0002416 0.0000753 0.0002582 0.0000239 0.0000363 0.0001461 0.0004765 0.0005756 0.0013251 0.0003474 0.0005377 0.0005576 0.0008387 -0.0007396 -0.0002782 -0.0006213 -0.0009764
0.0021771 0.0074819 -0.0000947 -0.0002676 0.0000679 0.0002946 0.0000232 0.0000505 0.0001518 0.0004852 0.0005525 0.0013041 0.0003309 0.0005160 0.0005438 0.0008314 -0.0007323 -0.0002386 -0.0006266 -0.0010308
0.0009929 0.0126794 -0.0001022 -0.0001821 0.0000498 0.0003606 0.0000348 0.0001561 0.0001529 0.0006347 0.0006492 0.0016040 0.0003653 0.0006738 0.0005379 0.0008740 -0.0006790 -0.0000386 -0.0006712 -0.0009724
0.0010953 0.0085688 -0.0000953 -0.0000382 0.0000345 0.0004502 0.0000410 0.0002634 0.0001661 0.0007109 0.0006814 0.0017650 0.0003937 0.0008151 0.0005198 0.0008530 -0.0006639 -0.0000115 -0.0006636 -0.0008285
-0.0001254 -0.0008051 -0.0000959 -0.0000843 0.0000308 0.0003049 0.0000278 0.0001256 0.0001504 0.0005316 0.0005536 0.0013531 0.0003522 0.0005852 0.0004694 0.0005864 -0.0006899 -0.0002442 -0.0006161 -0.0009100
0.0030047 -0.0068507 -0.0001035 -0.0002760 0.0000332 0.0000277 0.0000285 -0.0000869 0.0001161 0.0003124 0.0004707 0.0009609 0.0003147 0.0003285 0.0004183 0.0003126 -0.0006593 -0.0003493 -0.0005977 -0.0010482
0.0018808 -0.0051420 -0.0001024 -0.0003817 0.0000408 -0.0000311 0.0000489 -0.0001101 0.0001092 0.0002209 0.0004397 0.0008519 0.0002929 0.0002574 0.0003861 0.0001697 -0.0006155 -0.0003586 -0.0005719 -0.0010347
0.0015825 0.0126239 -0.0000964 -0.0004248 0.0000512 0.0000312 0.0000657 -0.0000571 0.0001209 0.0001879 0.0004018 0.0007955 0.0002638 0.0002231 0.0003548 0.0000742 -0.0005885 -0.0003730 -0.0005163 -0.0009708
-0.0015915 0.0158094 -0.0001066 -0.0004019 0.0000595 0.0001288 0.0000789 0.0000185 0.0001197 0.0002098 0.0003593 0.0007733 0.0002432 0.0002378 0.0003199 0.0000517 -0.0005691 -0.0003555 -0.0004660 -0.0008718
0.0000785 0.0016768 -0.0001088 -0.0003413 0.0000633 0.0002555 0.0000869 0.0001083 0.0001031 0.0002752 0.0003324 0.0007987 0.0002384 0.0002953 0.0002913 0.0000756 -0.0005511 -0.0003137 -0.0004252 -0.0007981
0.0021170 -0.0070674 -0.0001081 -0.0003355 0.0000751 0.0003263 0.0000873 0.0001080 0.0001025 0.0002222 0.0003068 0.0006806 0.0002304 0.0001816 0.0002723 -0.0000054 -0.0005330 -0.0003825 -0.0004137 -0.0008440
0.0047225 -0.0254314 -0.0001316 -0.0004587 0.0000742 0.0001291 0.0000868 -0.0000608 0.0001010 0.0000442 0.0002816 0.0004459 0.0002193 -0.0000396 0.0002674 -0.0001800 -0.0005099 -0.0005197 -0.0004209 -0.0009425
-0.0071353 -0.0024737 -0.0001302 -0.0005949 0.0000619 -0.0000803 0.0000906 -0.0001760 0.0000845 -0.0000385 0.0002714 0.0003509 0.0002190 -0.0001070 0.0002874 -0.0002679 -0.0004862 -0.0005825 -0.0003969 -0.0009751
-0.0024974 -0.0015759 -0.0001125 -0.0006297 0.0000620 -0.0000590 0.0000943 -0.0001552 0.0000754 -0.0000076 0.0002755 0.0003757 0.0002201 -0.0000825 0.0003085 -0.0002838 -0.0004738 -0.0005990 -0.0003987 -0.0009491
0.0022677 0.0054207 -0.0001112 -0.0005879 0.0000647 0.0000258 0.0000970 -0.0001003 0.0000877 0.0000189 0.0002824 0.0004393 0.0002248 -0.0000318 0.0003161 -0.0002587 -0.0004677 -0.0005680 -0.0004135 -0.0008626
0.0023024 0.0071726 -0.0001113 -0.0005182 0.0000656 0.0001330 0.0000959 -0.0000183 0.0000981 0.0000768 0.0002589 0.0004534 0.0002065 -0.0000304 0.0003044 -0.0002582 -0.0004741 -0.0005315 -0.0003700 -0.0007558
0.0048420 -0.0032419 -0.0001258 -0.0004397 0.0000624 0.0002374 0.0000934 0.0000733 0.0001083 0.0001692 0.0002250 0.0003948 0.0001652 -0.0001330 0.0002755 -0.0003440 -0.0004839 -0.0005717 -0.0003381 -0.0006498
-0.0027959 0.0099293 -0.0001380 -0.0004897 0.0000571 0.0001323 0.0000956 -0.0000051 0.0000992 0.0001297 0.0002246 0.0002662 0.0001603 -0.0003048 0.0002573 -0.0004890 -0.0004671 -0.0006354 -0.0003137 -0.0005663
-0.0043501 0.0115974 -0.0001377 -0.0006050 0.0000533 -0.0000538 0.0000992 -0.0001274 0.0000991 0.0000384 0.0002320 0.0001824 0.0001618 -0.0004082 0.0002500 -0.0006086 -0.0004500 -0.0006607 -0.0002649 -0.0004668
0.0082819 -0.0114283 -0.0001227 -0.0006131 0.0000571 -0.0000199 0.0001121 -0.0000788 0.0001086 0.0000829 0.0002042 0.0001287 0.0001185 -0.0005127 0.0002327 -0.0007053 -0.0004941 -0.0007662 -0.0002772 -0.0003189
0.0051026 -0.0100776 -0.0001103 -0.0005917 0.0000588 0.0000813 0.0001226 0.0000243 0.0001250 0.0001636 0.0001442 0.0000042 0.0000519 -0.0006572 0.0002106 -0.0008065 -0.0005465 -0.0008550 -0.0003090 -0.0002245
-0.0030901 0.0124407 -0.0001279 -0.0005278 0.0000536 0.0001973 0.0001233 0.0001496 0.0001323 0.0002727 0.0000969 -0.0000400 0.0000131 -0.0006678 0.0001952 -0.0008310 -0.0005501 -0.0007854 -0.0003066 -0.0001782
0.0023411 0.0053928 -0.0001385 -0.0004615 0.0000527 0.0003290 0.0001276 0.0002702 0.0001219 0.0003751 0.0000783 0.0000078 0.0000021 -0.0005880 0.0001883 -0.0007888 -0.0005445 -0.0007032 -0.0003150 -0.0001280
0.0117036 -0.0177225 -0.0001422 -0.0004843 0.0000623 0.0003165 0.0001348 0.0002553 0.0001103 0.0003315 0.0000786 -0.0000894 -0.0000046 -0.0007085 0.0001973 -0.0008677 -0.0005350 -0.0007523 -0.0002898 -0.0002295
0.0169574 -0.0285958 -0.0001504 -0.0006137 0.0000641 0.0001237 0.0001425 0.0001219 0.0001212 0.0002133 0.0000918 -0.0002357 -0.0000085 -0.0008962 0.0002008 -0.0010182 -0.0005422 -0.0008446 -0.0003124 -0.0004426
0.0108137 -0.0229977 -0.0001368 -0.0006640 0.0000664 0.0000636 0.0001564 0.0001190 0.0001349 0.0002052 0.0001015 -0.0002554 -0.0000079 -0.0009278 0.0001966 -0.0010896 -0.0005683 -0.0009161 -0.0003126 -0.0004158
0.0057999 -0.0062687 -0.0001164 -0.0006424 0.0000661 0.0001124 0.0001578 0.0001664 0.0001147 0.0002260 0.0000882 -0.0002441 0.0000049 -0.0008960 0.0001981 -0.0011012 -0.0005705 -0.0009122 -0.0002697 -0.0003442
0.0053403 0.0081861 -0.0001036 -0.0005801 0.0000612 0.0001872 0.0001564 0.0002305 0.0001177 0.0002740 0.0001100 -0.0001037 0.0000236 -0.0007782 0.0002074 -0.0010441 -0.0005664 -0.0008051 -0.0003572 -0.0003552
0.0038080 0.0051684 -0.0000977 -0.0004434 0.0000685 0.0003408 0.0001572 0.0003467 0.0000969 0.0003776 0.0001332 0.0000420 0.0000252 -0.0006759 0.0002147 -0.0009796 -0.0005734 -0.0007405 -0.0003968 -0.0002022
-0.0075755 0.0100738 -0.0000974 -0.0003736 0.0000757 0.0004241 0.0001456 0.0003429 0.0000743 0.0002786 0.0000681 -0.0001539 -0.0000030 -0.0008101 0.0002211 -0.0010600 -0.0005914 -0.0008959 -0.0003129 -0.0000625
-0.0112865 0.0205585 -0.0001057 -0.0005135 0.0000737 0.0001925 0.0001348 0.0001418 0.0000854 0.0000349 0.0000114 -0.0004678 -0.0000188 -0.0010462 0.0002280 -0.0012217 -0.0006040 -0.0011596 -0.0002535 -0.0001190
-0.0189456 0.0246177 -0.0001192 -0.0006927 0.0000658 -0.0000726 0.0001335 -0.0000088 0.0000686 -0.0000632 0.0000211 -0.0005361 -0.0000003 -0.0010925 0.0002454 -0.0012863 -0.0005947 -0.0012597 -0.0002463 -0.0002260
-0.0092625 0.0146323 -0.0001085 -0.0007241 0.0000670 -0.0000732 0.0001371 -0.0000041 0.0000438 -0.0000524 0.0000473 -0.0004600 0.0000232 -0.0010363 0.0002700 -0.0012802 -0.0005694 -0.0012166 -0.0002273 -0.0002976
0.0043647 -0.0053785 -0.0001081 -0.0006903 0.0000704 -0.0000122 0.0001394 0.0000313 0.0000561 -0.0000386 0.0000900 -0.0002904 0.0000434 -0.0009326 0.0002802 -0.0012169 -0.0005373 -0.0010540 -0.0002748 -0.0003861
0.0115628 -0.0269869 -0.0001074 -0.0005812 0.0000756 0.0001144 0.0001412 0.0001179 0.0000827 0.0000188 0.0001191 -0.0001244 0.0000490 -0.0008381 0.0002776 -0.0011482 -0.0005335 -0.0009245 -0.0003211 -0.0003496
0.0166968 -0.0381401 -0.0000905 -0.0004600 0.0000794 0.0002498 0.0001385 0.0002025 0.0000633 0.0001043 0.0000812 -0.0001407 0.0000293 -0.0008530 0.0002757 -0.0011396 -0.0005664 -0.0010344 -0.0002739 -0.0001919
0.0106662 -0.0444033 -0.0001060 -0.0005183 0.0000804 0.0001182 0.0001266 0.0000700 0.0000300 -0.0000291 0.0000060 -0.0004609 0.0000062 -0.0010634 0.0002915 -0.0012349 -0.0006228 -0.0013555 -0.0002805 -0.0002514
-0.0013055 -0.0365482 -0.0001405 -0.0006915 0.0000775 -0.0001756 0.0001168 -0.0001638 0.0000309 -0.0002616 -0.0000333 -0.0007629 0.0000044 -0.0012633 0.0003214 -0.0013491 -0.0006504 -0.0015881 -0.0002786 -0.0002938
0.0194231 -0.0415945 -0.0001397 -0.0007880 0.0000736 -0.0002666 0.0001157 -0.0002188 0.0000236 -0.0003133 -0.0000396 -0.0007978 0.0000126 -0.0012752 0.0003459 -0.0013796 -0.0006372 -0.0016111 -0.0002390 -0.0001840
0.0082900 -0.0100238 -0.0001059 -0.0007993 0.0000752 -0.0002202 0.0001195 -0.0001836 0.0000270 -0.0002844 -0.0000359 -0.0007510 0.0000161 -0.0012133 0.0003569 -0.0013625 -0.0006276 -0.0015689 -0.0002377 -0.0001525
-0.0011774 0.0029725 -0.0000938 -0.0007321 0.0000773 -0.0001217 0.0001210 -0.0001074 0.0000452 -0.0002284 -0.0000270 -0.0006619 0.0000275 -0.0011088 0.0003666 -0.0012977 -0.0006230 -0.0015104 -0.0002035 -0.0001453
0.0035414 -0.0059523 -0.0001076 -0.0006276 0.0000786 0.0000030 0.0001205 -0.0000159 0.0000264 -0.0001028 -0.0000268 -0.0005617 0.0000401 -0.0009748 0.0003695 -0.0011918 -0.0006187 -0.0014284 -0.0001987 -0.0000992
-0.0049411 0.0029466 -0.0001014 -0.0005482 0.0000899 0.0001100 0.0001198 0.0000102 -0.0000012 -0.0000764 -0.0000210 -0.0005798 0.0000620 -0.0009755 0.0003780 -0.0011751 -0.0006070 -0.0014270 -0.0002301 -0.0001133
-0.0005817 -0.0091837 -0.0000924 -0.0006231 0.0001071 -0.0000063 0.0001236 -0.0000983 -0.0000029 -0.0002146 -0.0000303 -0.0007707 0.0000587 -0.0011807 0.0004084 -0.0012682 -0.0005826 -0.0014924 -0.0002082 -0.0001116
-0.0029234 0.0055795 -0.0001011 -0.0007385 0.0001101 -0.0001865 0.0001269 -0.0002114 0.0000279 -0.0003577 -0.0000875 -0.0009653 0.0000468 -0.0012510 0.0004515 -0.0012278 -0.0004453 -0.0012504 -0.0000893 0.0000702
-0.0136060 0.0213201 -0.0001100 -0.0007615 0.0000978 -0.0001985 0.0001240 -0.0002063 0.0000386 -0.0003867 -0.0001278 -0.0009915 0.0000768 -0.0010984 0.0004719 -0.0011593 -0.0002565 -0.0008668 -0.0000014 0.0002097
0.0045140 -0.0082849 -0.0001155 -0.0007143 0.0001061 -0.0000667 0.0001406 -0.0000573 0.0000289 -0.0002748 -0.0001361 -0.0009140 0.0000848 -0.0009758 0.0004587 -0.0011673 -0.0001850 -0.0006594 0.0000129 0.0002419
0.0182096 -0.0349260 -0.0000982 -0.0006188 0.0001377 0.0001735 0.0001653 0.0001533 0.0000276 -0.0001175 -0.0001375 -0.0008117 0.0000710 -0.0008828 0.0004476 -0.0011087 -0.0001576 -0.0004890 0.0000251 0.0002993
0.0103917 -0.0263063 -0.0000971 -0.0005175 0.0001569 0.0003921 0.0001721 0.0003117 0.0000235 0.0000366 -0.0001310 -0.0006956 0.0000703 -0.0008003 0.0004352 -0.0010544 -0.0001211 -0.0003709 0.0000564 0.0002976
0.0118690 -0.0193259 -0.0001170 -0.0005081 0.0001614 0.0003354 0.0001634 0.0002475 0.0000162 -0.0000145 -0.0001280 -0.0007719 0.0000918 -0.0008576 0.0004469 -0.0010773 -0.0000846 -0.0004127 0.0000765 0.0001564
0.0066932 -0.0066593 -0.0000822 -0.0005648 0.0001498 0.0000783 0.0001648 0.0000769 0.0000153 -0.0001862 -0.0000536 -0.0007053 0.0001837 -0.0007216 0.0004921 -0.0009865 -0.0000382 -0.0004604 0.0000515 -0.0000124
-0.0103350 0.0116041 -0.0000177 -0.0004679 0.0001560 0.0000741 0.0001766 0.0000790 0.0000349 -0.0002138 0.0000792 -0.0003338 0.0002824 -0.0004321 0.0005180 -0.0008479 -0.0000252 -0.0005339 -0.0000216 -0.0001584
-0.0037357 0.0102362 0.0000089 -0.0003295 0.0001727 0.0001778 0.0001758 0.0001129 0.0000220 -0.0001584 0.0001474 -0.0000902 0.0003060 -0.0003095 0.0005049 -0.0008040 -0.0000659 -0.0006556 -0.0000933 -0.0002417
0.0012618 0.0085380 0.0000217 -0.0002314 0.0001687 0.0002441 0.0001671 0.0001465 0.0000159 -0.0001042 0.0001452 0.0000023 0.0003031 -0.0002265 0.0004919 -0.0007701 -0.0000922 -0.0006544 -0.0001318 -0.0002272
-0.0035862 0.0050548 0.0000353 -0.0001165 0.0001667 0.0003631 0.0001633 0.0002329 0.0000149 0.0000001 0.0001395 0.0000980 0.0003109 -0.0001048 0.0004904 -0.0007164 -0.0000830 -0.0005624 -0.0001434 -0.0002631
-0.0098993 0.0169024 0.0000328 -0.0000659 0.0001834 0.0004320 0.0001647 0.0002285 -0.0000102 0.0000083 0.0001368 0.0000428 0.0003073 -0.0001439 0.0004843 -0.0007618 -0.0000835 -0.0006041 -0.0001238 -0.0003875
-0.0202940 0.0300386 0.0000281 -0.0001668 0.0001892 0.0002527 0.0001654 0.0000538 -0.0000021 -0.0001582 0.0001183 -0.0001785 0.0003066 -0.0003197 0.0004905 -0.0008849 -0.0000930 -0.0007483 -0.0001230 -0.0005139
-0.0036901 0.0052801 0.0000373 -0.0002562 0.0001808 0.0001036 0.0001736 -0.0000310 0.0000076 -0.0002327 0.0001581 -0.0001394 0.0003404 -0.0002923 0.0005114 -0.0008673 -0.0000704 -0.0006960 -0.0001394 -0.0006668
-0.0002026 -0.0004609 0.0000591 -0.0002087 0.0001850 0.0001621 0.0001840 0.0000248 0.0000004 -0.0002099 0.0001946 -0.0000073 0.0003502 -0.0002204 0.0005171 -0.0008278 -0.0000678 -0.0006458 -0.0001077 -0.0006159
-0.0156134 0.0004619 0.0000702 -0.0001580 0.0001827 0.0002271 0.0001771 0.0000630 -0.0000199 -0.0001689 0.0001316 -0.0000985 0.0003261 -0.0002332 0.0005155 -0.0008186 -0.0001181 -0.0007737 -0.0000601 -0.0003777
0.0105658 -0.0741162 0.0000689 -0.0001383 0.0001769 0.0003159 0.0001659 0.0001220 -0.0000107 -0.0001234 0.0000750 -0.0001553 0.0003110 -0.0001951 0.0005161 -0.0007524 -0.0001659 -0.0008733 -0.0000702 -0.0002230
-0.0076155 -0.0104210 0.0000608 -0.0000803 0.0001798 0.0004415 0.0001631 0.0002199 0.0000124 -0.0000620 0.0000703 -0.0001398 0.0003093 -0.0001903 0.0005107 -0.0007175 -0.0001847 -0.0009065 -0.0000864 -0.0002242
-0.0067680 -0.0004342 0.0000408 -0.0001630 0.0001841 0.0003122 0.0001593 0.0000972 0.0000102 -0.0001805 0.0000638 -0.0003089 0.0002989 -0.0003526 0.0005194 -0.0008194 -0.0001670 -0.0009982 -0.0000710 -0.0003493
0.0086011 -0.0227386 0.0000181 -0.0003795 0.0001827 0.0000414 0.0001515 -0.0001404 -0.0000066 -0.0003594 0.0000296 -0.0005341 0.0002775 -0.0004853 0.0005278 -0.0008987 -0.0001769 -0.0011350 -0.0000913 -0.0005028
0.0041928 -0.0260002 0.0000002 -0.0004952 0.0001824 0.0000113 0.0001475 -0.0001854 -0.0000052 -0.0003825 0.0000458 -0.0004877 0.0002855 -0.0004317 0.0005204 -0.0008629 -0.0001915 -0.0011263 -0.0001495 -0.0005875
-0.0018057 -0.0090107 0.0000098 -0.0004259 0.0001847 0.0000933 0.0001518 -0.0001218 -0.0000043 -0.0003284 0.0001227 -0.0002458 0.0003225 -0.0003098 0.0005152 -0.0008088 -0.0001448 -0.0009118 -0.0001197 -0.0005972
0.0047270 0.0085791 0.0000337 -0.0002659 0.0001939 0.0002309 0.0001666 0.0000053 0.0000018 -0.0002210 0.0001647 -0.0000623 0.0003269 -0.0002403 0.0005570 -0.0006199 -0.0001147 -0.0007165 -0.0000540 -0.0004269
0.0017547 0.0140490 0.0000358 -0.0001685 0.0002139 0.0004310 0.0001801 0.0001441 0.0000120 -0.0001103 0.0001637 0.0000026 0.0002923 -0.0002786 0.0005834 -0.0004587 -0.0000996 -0.0005631 -0.0000325 -0.0001888
-0.0057755 0.0028040 0.0000338 -0.0001810 0.0002247 0.0004325 0.0001800 0.0000926 0.0000086 -0.0001666 0.0001274 -0.0001722 0.0002735 -0.0004456 0.0005645 -0.0006042 -0.0000597 -0.0005164 -0.0000261 -0.0001948
-0.0087574 -0.0031997 0.0000331 -0.0002901 0.0002195 0.0001942 0.0001783 -0.0000658 0.0000349 -0.0003409 0.0000958 -0.0003978 0.0002774 -0.0005659 0.0005517 -0.0007721 -0.0000326 -0.0005672 -0.0000356 -0.0002525
-0.0127108 0.0165271 0.0000322 -0.0003167 0.0002122 0.0001051 0.0001832 -0.0000761 0.0000270 -0.0003218 0.0000994 -0.0004086 0.0002920 -0.0005306 0.0005546 -0.0007968 -0.0000228 -0.0005511 -0.0000522 -0.0002644
0.0039087 -0.0016700 0.0000539 -0.0002609 0.0002100 0.0001805 0.0001875 -0.0000205 0.0000188 -0.0002467 0.0001243 -0.0002942 0.0003207 -0.0003990 0.0005641 -0.0007328 -0.0000152 -0.0004978 -0.0000557 -0.0003403
0.0146830 -0.0254601 0.0000802 -0.0001852 0.0002210 0.0003272 0.0001947 0.0000721 0.0000179 -0.0001612 0.0001865 -0.0000445 0.0003512 -0.0001954 0.0005545 -0.0006164 -0.0000256 -0.0004551 -0.0000792 -0.0004276
0.0116703 -0.0186982 0.0000888 -0.0000601 0.0002416 0.0005339 0.0002044 0.0002092 0.0000211 -0.0000443 0.0002379 0.0001900 0.0003697 -0.0000424 0.0005314 -0.0005247 -0.0000565 -0.0004367 -0.0000898 -0.0004742
0.0174580 -0.0362255 0.0000908 -0.0000110 0.0002605 0.0006141 0.0002037 0.0002135 0.0000283 -0.0000537 0.0002650 0.0002095 0.0003781 -0.0000729 0.0005228 -0.0005127 -0.0000720 -0.0005003 -0.0000799 -0.0005623
0.0085828 -0.0128443 0.0000822 -0.0000882 0.0002624 0.0004769 0.0002060 0.0000936 0.0000042 -0.0001176 0.0002949 0.0001549 0.0003806 -0.0001844 0.0005259 -0.0005366 -0.0000735 -0.0005786 -0.0000885 -0.0005980
-0.0009741 0.0056503 0.0000749 -0.0001221 0.0002538 0.0003937 0.0002125 0.0000665 0.0000120 -0.0001170 0.0002758 0.0001054 0.0003675 -0.0002276 0.0005296 -0.0005239 -0.0000683 -0.0005669 -0.0001013 -0.0005060
0.0014177 0.0054821 0.0000714 -0.0000773 0.0002503 0.0004433 0.0002126 0.0001166 0.0000506 -0.0001126 0.0002305 0.0000643 0.0003541 -0.0002206 0.0005277 -0.0005041 -0.0000713 -0.0005314 -0.0000981 -0.0004265
0.0009504 0.0127056 0.0000729 -0.0000242 0.0002497 0.0005304 0.0002131 0.0001977 0.0000692 -0.0000672 0.0002125 0.0000991 0.0003471 -0.0001601 0.0005215 -0.0004557 -0.0000858 -0.0004739 -0.0001002 -0.0003130
-0.0119964 0.0263160 0.0000795 0.0000204 0.0002556 0.0006911 0.0002128 0.0003106 0.0000542 0.0001005 0.0001981 0.0001565 0.0003289 -0.0000840 0.0005174 -0.0003760 -0.0000906 -0.0003937 -0.0001078 -0.0001927
-0.0081124 0.0175525 0.0000711 0.0000641 0.0002670 0.0007960 0.0002057 0.0003237 0.0000463 0.0001466 0.0001872 0.0000868 0.0003200 -0.0001312 0.0005063 -0.0004078 -0.0000906 -0.0004347 -0.0000973 -0.0002746
0.0006227 -0.0111806 0.0000679 -0.0000306 0.0002672 0.0006282 0.0002032 0.0001761 0.0000477 -0.0000042 0.0001929 -0.0000500 0.0003416 -0.0002562 0.0005019 -0.0005039 -0.0000937 -0.0005673 -0.0000851 -0.0004384
0.0061087 -0.0100906 0.0000698 -0.0001377 0.0002613 0.0004509 0.0002126 0.0000818 0.0000534 -0.0000745 0.0002046 -0.0000657 0.0003539 -0.0002816 0.0005113 -0.0004677 -0.0001099 -0.0006472 -0.0000718 -0.0004735
-0.0009395 0.0099140 0.0000651 -0.0001145 0.0002635 0.0004811 0.0002250 0.0001075 0.0000614 -0.0000221 0.0002058 -0.0000294 0.0003436 -0.0002608 0.0005090 -0.0004248 -0.0001295 -0.0006688 -0.0000702 -0.0004569
-0.0108397 0.0151871 0.0000710 -0.0000857 0.0002611 0.0005499 0.0002280 0.0001686 0.0000669 0.0000324 0.0002028 0.0000355 0.0003420 -0.0002169 0.0004939 -0.0004158 -0.0001325 -0.0006323 -0.0001076 -0.0004191
-0.0050698 0.0052190 0.0000904 -0.0000301 0.0002576 0.0006609 0.0002248 0.0002694 0.0000835 0.0000968 0.0002048 0.0001393 0.0003435 -0.0001141 0.0004861 -0.0003617 -0.0001319 -0.0005747 -0.0001413 -0.0003640
-0.0002700 -0.0003260 0.0000833 0.0000363 0.0002641 0.0007557 0.0002210 0.0003034 0.0000798 0.0001022 0.0002033 0.0001111 0.0003374 -0.0001344 0.0004783 -0.0003862 -0.0001375 -0.0006010 -0.0001628 -0.0004199
-0.0058130 0.0013937 0.0000626 -0.0000482 0.0002612 0.0005781 0.0002173 0.0001449 0.0000571 -0.0000226 0.0002010 -0.0000466 0.0003339 -0.0002855 0.0004777 -0.0005017 -0.0001350 -0.0007295 -0.0001546 -0.0005566
-0.0155864 0.0077083 0.0000707 -0.0001866 0.0002480 0.0003468 0.0002184 0.0000016 0.0000626 -0.0001076 0.0002003 -0.0001032 0.0003371 -0.0003322 0.0004770 -0.0005404 -0.0001359 -0.0007815 -0.0001348 -0.0006087
-0.0200069 0.0147797 0.0000738 -0.0001897 0.0002439 0.0003427 0.0002198 0.0000054 0.0000815 -0.0001154 0.0002120 -0.0000391 0.0003433 -0.0002654 0.0004687 -0.0005000 -0.0001415 -0.0007454 -0.0001466 -0.0005879
0.0033344 -0.0139592 0.0000709 -0.0001346 0.0002379 0.0003938 0.0002207 0.0000439 0.0000719 -0.0000794 0.0002322 0.0000841 0.0003584 -0.0001633 0.0004599 -0.0004306 -0.0001416 -0.0006868 -0.0001303 -0.0005618
0.0101224 -0.0083234 0.0000753 -0.0000523 0.0002327 0.0004870 0.0002178 0.0001286 0.0000472 0.0000152 0.0002620 0.0002638 0.0003695 -0.0000316 0.0004521 -0.0003449 -0.0001432 -0.0006048 -0.0001194 -0.0004718
0.0054946 -0.0026336 0.0000785 0.0000420 0.0002289 0.0005897 0.0002120 0.0002082 0.0000432 0.0000566 0.0002651 0.0003150 0.0003723 -0.0000227 0.0004461 -0.0003450 -0.0001419 -0.0005766 -0.0001456 -0.0004120
-0.0041185 -0.0066139 0.0000732 -0.0000230 0.0002210 0.0004258 0.0002062 0.0000593 0.0000410 -0.0001003 0.0002373 0.0001193 0.0003660 -0.0001792 0.0004428 -0.0004597 -0.0001312 -0.0006347 -0.0001534 -0.0004759
-0.0115564 -0.0000435 0.0000607 -0.0001503 0.0002114 0.0001697 0.0002022 -0.0001335 0.0000365 -0.0002637 0.0002229 -0.0000318 0.0003512 -0.0002812 0.0004436 -0.0005288 -0.0001252 -0.0006786 -0.0001459 -0.0004797
0.0008023 -0.0015529 0.0000603 -0.0001565 0.0002080 0.0001554 0.0002022 -0.0001377 0.0000366 -0.0002713 0.0001977 -0.0000763 0.0003274 -0.0003064 0.0004600 -0.0004825 -0.0001428 -0.0007141 -0.0001275 -0.0003709
0.0063562 0.0061925 0.0000725 -0.0001422 0.0002063 0.0002194 0.0002025 -0.0000990 0.0000287 -0.0002313 0.0001751 -0.0000775 0.0003068 -0.0002884 0.0004647 -0.0004199 -0.0001702 -0.0007284 -0.0000925 -0.0003151
0.0015702 0.0083185 0.0000747 -0.0000846 0.0002006 0.0003190 0.0002009 -0.0000236 0.0000300 -0.0001504 0.0001667 -0.0000055 0.0002947 -0.0002171 0.0004426 -0.0003684 -0.0001827 -0.0006687 -0.0000893 -0.0002655
0.0083003 -0.0107924 0.0000781 0.0000065 0.0001980 0.0004403 0.0001996 0.0000785 0.0000440 -0.0000537 0.0001567 0.0000696 0.0002903 -0.0001406 0.0004238 -0.0003202 -0.0001866 -0.0006001 -0.0000760 -0.0002253
0.0143407 -0.0208095 0.0000677 -0.0000050 0.0002018 0.0004004 0.0001963 0.0000282 0.0000364 -0.0001012 0.0001453 -0.0000315 0.0002890 -0.0002343 0.0004096 -0.0003870 -0.0001866 -0.0006535 -0.0000671 -0.0003287
0.0020087 -0.0100523 0.0000533 -0.0001234 0.0002005 0.0002183 0.0001953 -0.0001280 0.0000289 -0.0002363 0.0001354 -0.0001993 0.0002904 -0.0003763 0.0003984 -0.0004862 -0.0001844 -0.0007425 -0.0000970 -0.0003938
0.0009241 -0.0263866 0.0000597 -0.0001641 0.0001940 0.0001775 0.0001976 -0.0001463 0.0000278 -0.0002600 0.0001339 -0.0001960 0.0002933 -0.0003541 0.0003988 -0.0004870 -0.0001880 -0.0007431 -0.0001204 -0.0003628
0.0074183 -0.0164108 0.0000689 -0.0001176 0.0001898 0.0002471 0.0001977 -0.0000863 0.0000484 -0.0002378 0.0001311 -0.0001359 0.0002893 -0.0002876 0.0003997 -0.0004486 -0.0001923 -0.0006988 -0.0001454 -0.0003023
0.0099500 -0.0123080 0.0000702 -0.0000473 0.0001861 0.0003425 0.0001958 0.0000004 0.0000644 -0.0001658 0.0001264 -0.0000493 0.0002848 -0.0002014 0.0003948 -0.0003656 -0.0001953 -0.0006183 -0.0001745 -0.0001923
0.0090533 -0.0106061 0.0000582 0.0000442 0.0001875 0.0004757 0.0001952 0.0001109 0.0000472 -0.0000319 0.0001238 0.0000466 0.0002702 -0.0001046 0.0003900 -0.0002534 -0.0001992 -0.0005410 -0.0001476 -0.0001081
0.0056744 -0.0025642 0.0000474 0.0001278 0.0001972 0.0006164 0.0001966 0.0001889 0.0000367 0.0000227 0.0001154 0.0000082 0.0002511 -0.0001512 0.0003885 -0.0002348 -0.0002035 -0.0005635 -0.0001162 -0.0001281
0.0045470 -0.0113535 0.0000448 0.0000298 0.0001983 0.0004881 0.0001967 0.0000759 0.0000310 -0.0001022 0.0001098 -0.0001590 0.0002326 -0.0003508 0.0004172 -0.0002233 -0.0002142 -0.0006746 -0.0000893 -0.0001418
0.0029856 -0.0034150 0.0000295 -0.0001260 0.0002007 0.0003242 0.0001899 -0.0000620 0.0000323 -0.0001915 0.0001278 -0.0001966 0.0001823 -0.0005654 0.0004318 -0.0001988 -0.0002170 -0.0006707 -0.0000569 -0.0000569
-0.0028209 0.0125127 0.0000153 -0.0001386 0.0002045 0.0003681 0.0001730 -0.0000928 0.0000230 -0.0001530 0.0001457 -0.0001093 0.0001278 -0.0006824 0.0004077 -0.0002229 -0.0002000 -0.0005308 -0.0000432 0.0000292
-0.0081407 0.0122452 0.0000224 -0.0000867 0.0001903 0.0003966 0.0001585 -0.0000938 0.0000456 -0.0001384 0.0001393 -0.0000288 0.0001337 -0.0006211 0.0003904 -0.0002106 -0.0001746 -0.0003716 -0.0000204 0.0000975
-0.0084676 0.0120295 0.0000277 0.0000071 0.0001830 0.0004965 0.0001546 0.0000220 0.0000406 -0.0000294 0.0001184 0.0000267 0.0001416 -0.0004638 0.0003711 -0.0001802 -0.0001591 -0.0002353 -0.0000241 0.0001979
-0.0005506 0.0086272 0.0000469 0.0001113 0.0001848 0.0006523 0.0001604 0.0001992 0.0000253 0.0001598 0.0001083 0.0001116 0.0001475 -0.0002755 0.0003577 -0.0001114 -0.0001532 -0.0001309 -0.0000531 0.0002343
0.0029431 -0.0080097 0.0000598 0.0001104 0.0002002 0.0006678 0.0001724 0.0002204 0.0000578 0.0001451 0.0001249 0.0000860 0.0001696 -0.0002678 0.0003680 -0.0001086 -0.0001514 -0.0001812 -0.0000861 0.0001240
-0.0076268 0.0013961 0.0000568 0.0000126 0.0002152 0.0005461 0.0001819 0.0001350 0.0000664 0.0000479 0.0001320 -0.0000406 0.0001693 -0.0003715 0.0003697 -0.0001680 -0.0001591 -0.0002863 -0.0001036 0.0000223
-0.0082098 0.0062952 0.0000483 -0.0000204 0.0002151 0.0005138 0.0001880 0.0001318 0.0000607 0.0000299 0.0001216 -0.0000715 0.0001628 -0.0003601 0.0003514 -0.0001823 -0.0001696 -0.0002880 -0.0000998 -0.0000044
-0.0055317 0.0111206 0.0000474 -0.0000003 0.0002110 0.0005517 0.0001940 0.0001748 0.0000632 0.0000540 0.0001157 -0.0000387 0.0001728 -0.0002947 0.0003384 -0.0001618 -0.0001725 -0.0002426 -0.0000813 0.0000142
-0.0034703 0.0148160 0.0000580 0.0000576 0.0002086 0.0006363 0.0002050 0.0002763 0.0000820 0.0001432 0.0001320 0.0001001 0.0001875 -0.0001520 0.0003293 -0.0000909 -0.0001700 -0.0001506 -0.0000812 0.0000878
0.0010864 0.0061295 0.0000588 0.0001559 0.0002104 0.0007683 0.0002150 0.0003969 0.0000927 0.0002319 0.0001367 0.0002193 0.0001925 -0.0000529 0.0003256 0.0000281 -0.0001787 -0.0000901 -0.0000780 0.0002194
0.0052464 -0.0022828 0.0000520 0.0002012 0.0002162 0.0008343 0.0002105 0.0004110 0.0000707 0.0002315 0.0001381 0.0001691 0.0001925 -0.0001480 0.0003312 0.0000239 -0.0001684 -0.0000711 -0.0001018 0.0001488
0.0168837 -0.0307166 0.0000557 0.0001493 0.0002112 0.0006314 0.0002090 0.0002455 0.0000488 0.0000779 0.0001549 0.0000644 0.0002084 -0.0002549 0.0003218 -0.0001310 -0.0001462 -0.0001301 -0.0001227 -0.0000444
0.0152287 -0.0397486 0.0000740 0.0001016 0.0001962 0.0003847 0.0002123 0.0000936 0.0000530 -0.0000669 0.0001909 0.0001316 0.0002475 -0.0001847 0.0003170 -0.0001840 -0.0001497 -0.0002205 -0.0001280 -0.0001238
0.0059101 -0.0230971 0.0000752 0.0001032 0.0001931 0.0003513 0.0002133 0.0000590 0.0000701 -0.0000978 0.0002229 0.0002539 0.0002620 -0.0000862 0.0003263 -0.0001320 -0.0001666 -0.0002676 -0.0001391 -0.0002053
0.0057087 -0.0169749 0.0000782 0.0001384 0.0001946 0.0004020 0.0002140 0.0000793 0.0000738 -0.0000608 0.0002262 0.0003327 0.0002590 0.0000040 0.0003217 -0.0000474 -0.0001837 -0.0002741 -0.0001479 -0.0002096
0.0059861 -0.0133174 0.0000740 0.0001842 0.0001960 0.0004988 0.0002102 0.0001385 0.0000564 -0.0000144 0.0002166 0.0004019 0.0002577 0.0000731 0.0003166 0.0000564 -0.0001995 -0.0002322 -0.0001109 -0.0001217
0.0002829 0.0008397 0.0000534 0.0001987 0.0002119 0.0006479 0.0002106 0.0002211 0.0000581 0.0000619 0.0001902 0.0003707 0.0001960 -0.0000665 0.0003487 0.0001880 -0.0002297 -0.0002616 -0.0000420 0.0000301
-0.0015749 0.0002793 0.0000119 0.0000102 0.0002462 0.0006512 0.0001926 0.0000931 0.0000894 0.0000433 0.0001807 0.0001932 0.0001516 -0.0003420 0.0004056 0.0002660 -0.0002418 -0.0003590 0.0000192 0.0001579
0.0085289 -0.0198274 -0.0000313 -0.0002806 0.0002450 0.0004093 0.0001403 -0.0002763 0.0001247 -0.0000796 0.0004777 0.0005645 0.0002475 -0.0005460 0.0005594 0.0002931 -0.0002591 -0.0002612 0.0000026 0.0002307
0.0002244 0.0090557 -0.0000701 -0.0003845 0.0001721 0.0001062 0.0000864 -0.0005297 0.0002296 0.0000622 0.0008574 0.0012150 0.0001363 -0.0011226 0.0004261 -0.0001909 -0.0003426 0.0000599 -0.0001861 0.0000680
0.0002237 0.0128792 -0.0000840 -0.0003997 0.0000637 -0.0001721 0.0000223 -0.0007037 0.0003695 0.0004888 0.0012616 0.0022464 -0.0000700 -0.0016984 -0.0000022 -0.0011424 -0.0002322 0.0007563 -0.0003917 -0.0001115
0.0014837 -0.0053790 -0.0000781 -0.0003331 -0.0000323 -0.0003409 -0.0000447 -0.0008440 0.0004240 0.0007261 0.0015348 0.0031070 -0.0001086 -0.0017822 -0.0002026 -0.0016572 -0.0000141 0.0014248 -0.0004670 -0.0000292
-0.0112535 0.0004654 -0.0001016 -0.0002192 -0.0000881 -0.0004421 -0.0000861 -0.0009326 0.0004058 0.0006509 0.0014137 0.0028539 -0.0001680 -0.0018073 -0.0002471 -0.0017193 0.0000343 0.0016294 -0.0004774 0.0000523
-0.0072925 0.0003875 -0.0000911 -0.0001740 -0.0001033 -0.0004751 -0.0001116 -0.0010243 0.0003700 0.0005260 0.0012681 0.0023671 -0.0002084 -0.0019367 -0.0002621 -0.0017869 0.0000163 0.0015779 -0.0004636 -0.0000230
0.0001846 -0.0011711 -0.0000845 -0.0003192 -0.0001039 -0.0007016 -0.0001200 -0.0012083 0.0003553 0.0003110 0.0009423 0.0013312 -0.0002188 -0.0020859 -0.0000640 -0.0013983 -0.0000255 0.0012961 -0.0004219 -0.0002994
-0.0047390 0.0099619 -0.0000440 -0.0003753 -0.0000525 -0.0008336 -0.0000556 -0.0011501 0.0003274 0.0001031 0.0006683 0.0007172 0.0000644 -0.0012757 0.0003819 -0.0003462 -0.0001643 0.0009072 -0.0004053 -0.0004382
-0.0011254 0.0067630 0.0000203 -0.0002406 0.0000557 -0.0004716 0.0000562 -0.0007156 0.0002983 0.0001832 0.0007039 0.0011036 0.0004134 -0.0001875 0.0006706 0.0004528 -0.0003464 0.0005455 -0.0003954 -0.0004603
0.0151277 -0.0173013 0.0000691 -0.0000872 0.0001391 -0.0000320 0.0001374 -0.0002915 0.0002897 0.0004126 0.0007468 0.0014383 0.0004971 0.0002719 0.0006509 0.0006293 -0.0004134 0.0004416 -0.0003920 -0.0003618
0.0183099 -0.0303822 0.0001113 0.0001178 0.0001972 0.0003222 0.0001905 0.0000162 0.0002588 0.0004786 0.0006412 0.0013970 0.0004564 0.0004614 0.0005013 0.0004770 -0.0004064 0.0004825 -0.0003820 -0.0001194
0.0023411 -0.0159714 0.0001114 0.0002325 0.0002491 0.0006148 0.0002269 0.0002422 0.0002134 0.0004351 0.0004226 0.0010209 0.0003830 0.0004380 0.0004420 0.0004407 -0.0004183 0.0004129 -0.0003365 0.0000802
0.0048624 -0.0156116 0.0000939 0.0001041 0.0002652 0.0005712 0.0002373 0.0002121 0.0001950 0.0003245 0.0002805 0.0005331 0.0002836 0.0000483 0.0004607 0.0003843 -0.0004581 0.0001806 -0.0002890 0.0002156
0.0132564 -0.0295326 0.0000600 -0.0001910 0.0002412 0.0002414 0.0002314 0.0000033 0.0002072 0.0001913 0.0001982 0.0000815 0.0001961 -0.0003667 0.0004354 0.0001445 -0.0004917 -0.0000382 -0.0002977 0.0002225
0.0061409 -0.0175213 0.0000459 -0.0003488 0.0002130 0.0000852 0.0002360 -0.0000428 0.0002195 0.0001898 0.0001967 0.0000437 0.0001918 -0.0004002 0.0004002 0.0000118 -0.0004869 -0.0000271 -0.0003341 0.0001711
0.0045358 -0.0125830 0.0000550 -0.0003400 0.0001993 0.0000921 0.0002468 0.0000128 0.0002288 0.0002468 0.0001892 0.0000743 0.0001778 -0.0003966 0.0003851 -0.0000244 -0.0005002 -0.0000372 -0.0003123 0.0001764
0.0035426 -0.0103045 0.0000362 -0.0003193 0.0001855 0.0001212 0.0002560 0.0000709 0.0002327 0.0002871 0.0001896 0.0001427 0.0001649 -0.0004036 0.0003695 -0.0000454 -0.0005340 -0.0001199 -0.0002839 0.0002663
-0.0019022 0.0162845 0.0000045 -0.0003178 0.0001735 0.0001773 0.0002611 0.0001271 0.0002281 0.0003196 0.0002130 0.0002972 0.0001808 -0.0003113 0.0003604 0.0000108 -0.0005470 -0.0001388 -0.0002918 0.0002967
0.0046000 0.0052717 0.0000042 -0.0002784 0.0001679 0.0002495 0.0002645 0.0001632 0.0002167 0.0003093 0.0002172 0.0003012 0.0001875 -0.0003057 0.0003611 0.0000461 -0.0005604 -0.0002457 -0.0002972 0.0002000
0.0091146 -0.0225967 -0.0000149 -0.0004006 0.0001475 0.0000007 0.0002613 -0.0000206 0.0002097 0.0001772 0.0002589 0.0002309 0.0001949 -0.0004734 0.0003760 -0.0000386 -0.0005623 -0.0004045 -0.0003189 0.0000104
0.0013729 -0.0038708 -0.0000358 -0.0005954 0.0001208 -0.0003382 0.0002595 -0.0002274 0.0002258 0.0000203 0.0002858 0.0002125 0.0001917 -0.0005861 0.0003736 -0.0001641 -0.0005596 -0.0004922 -0.0003441 -0.0000748
0.0020625 -0.0007017 -0.0000357 -0.0006827 0.0001091 -0.0004124 0.0002563 -0.0002838 0.0002355 -0.0000551 0.0002624 0.0001953 0.0001822 -0.0005993 0.0003524 -0.0002464 -0.0005649 -0.0005335 -0.0003712 -0.0000869
-0.0054239 0.0073114 -0.0000424 -0.0007268 0.0000954 -0.0004269 0.0002488 -0.0003006 0.0002209 -0.0000663 0.0002643 0.0002573 0.0001756 -0.0005510 0.0003482 -0.0002675 -0.0005689 -0.0005372 -0.0003983 -0.0001404
0.0019869 0.0009185 -0.0000616 -0.0006956 0.0000761 -0.0003841 0.0002443 -0.0002521 0.0001798 -0.0000413 0.0002516 0.0003185 0.0001596 -0.0004865 0.0003309 -0.0002763 -0.0005888 -0.0005581 -0.0004119 -0.0001166
-0.0021958 0.0057316 -0.0000843 -0.0006731 0.0000648 -0.0003181 0.0002320 -0.0002372 0.0001407 -0.0000677 0.0001668 0.0001951 0.0001345 -0.0004486 0.0002912 -0.0003241 -0.0006132 -0.0005705 -0.0004317 -0.0000332
-0.0197605 0.0284888 -0.0001040 -0.0007098 0.0000674 -0.0003505 0.0002185 -0.0003421 0.0001194 -0.0002072 0.0000960 -0.0000552 0.0001158 -0.0005787 0.0002635 -0.0004829 -0.0006207 -0.0006662 -0.0004139 -0.0000921
-0.0103055 0.0217440 -0.0001282 -0.0008775 0.0000542 -0.0006297 0.0002084 -0.0005716 0.0000883 -0.0004064 0.0000713 -0.0002835 0.0001070 -0.0007747 0.0002516 -0.0006486 -0.0006161 -0.0008201 -0.0003828 -0.0002145
-0.0100262 0.0203978 -0.0001389 -0.0010497 0.0000318 -0.0008663 0.0002025 -0.0007133 0.0000811 -0.0005551 0.0000707 -0.0003290 0.0001160 -0.0008159 0.0002398 -0.0007052 -0.0006169 -0.0008771 -0.0003894 -0.0002266
-0.0139448 0.0167425 -0.0001518 -0.0010804 0.0000215 -0.0008941 0.0002026 -0.0007260 0.0001000 -0.0006161 0.0000660 -0.0003077 0.0001166 -0.0008089 0.0002338 -0.0007406 -0.0006275 -0.0008943 -0.0004013 -0.0001858
0.0007668 -0.0115426 -0.0001729 -0.0010419 0.0000123 -0.0008639 0.0001987 -0.0007020 0.0000950 -0.0005964 0.0000484 -0.0002749 0.0000994 -0.0007637 0.0002254 -0.0007353 -0.0006442 -0.0008817 -0.0004035 -0.0000957
0.0065963 -0.0162223 -0.0001665 -0.0010075 0.0000102 -0.0007763 0.0001930 -0.0006391 0.0000879 -0.0005447 0.0000273 -0.0002263 0.0000797 -0.0007232 0.0002242 -0.0007063 -0.0006493 -0.0008599 -0.0004147 0.0000005
0.0030704 -0.0073957 -0.0001680 -0.0009581 0.0000128 -0.0006528 0.0001922 -0.0005389 0.0000821 -0.0004807 -0.0000007 -0.0002216 0.0000389 -0.0007463 0.0002198 -0.0006980 -0.0006385 -0.0008192 -0.0004105 0.0000452
-0.0012188 0.0051406 -0.0001960 -0.0009990 0.0000217 -0.0006973 0.0001800 -0.0006160 0.0000752 -0.0005894 -0.0000417 -0.0004252 -0.0000270 -0.0009846 0.0002153 -0.0007645 -0.0006038 -0.0007675 -0.0003846 0.0000793
0.0028543 0.0001120 -0.0002032 -0.0011270 0.0000199 -0.0008866 0.0001604 -0.0008065 0.0000777 -0.0007392 -0.0000647 -0.0006136 -0.0000515 -0.0011574 0.0002096 -0.0008699 -0.0005601 -0.0007422 -0.0003448 0.0000503
0.0135403 -0.0228977 -0.0001857 -0.0011490 0.0000243 -0.0008547 0.0001604 -0.0007945 0.0000860 -0.0006818 -0.0000622 -0.0005739 -0.0000391 -0.0011006 0.0001966 -0.0009163 -0.0005461 -0.0007322 -0.0003254 0.0000152
0.0074875 -0.0281120 -0.0001661 -0.0011078 0.0000373 -0.0007043 0.0001702 -0.0006987 0.0001136 -0.0005881 -0.0000609 -0.0005156 -0.0000442 -0.0010527 0.0001797 -0.0009201 -0.0005532 -0.0007056 -0.0003313 0.0000322
0.0095365 -0.0323403 -0.0001462 -0.0010279 0.0000393 -0.0005696 0.0001804 -0.0005726 0.0001191 -0.0004912 -0.0000760 -0.0004707 -0.0000448 -0.0009754 0.0001635 -0.0008895 -0.0005610 -0.0006594 -0.0003319 0.0000416
0.0081225 0.0008938 -0.0001365 -0.0009037 0.0000448 -0.0003942 0.0001864 -0.0004076 0.0001176 -0.0003550 -0.0001015 -0.0004131 -0.0000501 -0.0008664 0.0001661 -0.0007933 -0.0005621 -0.0005926 -0.0003526 0.0001277
0.0006470 0.0097611 -0.0001471 -0.0007865 0.0000670 -0.0002018 0.0001859 -0.0003031 0.0000937 -0.0002573 -0.0001122 -0.0004567 -0.0000476 -0.0009091 0.0001760 -0.0007737 -0.0005597 -0.0006110 -0.0003675 0.0001134
-0.0007982 -0.0147143 -0.0001495 -0.0008262 0.0000786 -0.0002679 0.0001868 -0.0003746 0.0000676 -0.0002722 -0.0001164 -0.0005924 -0.0000467 -0.0010532 0.0001856 -0.0008621 -0.0005489 -0.0007117 -0.0003735 -0.0000024
0.0005253 -0.0105113 -0.0001432 -0.0008844 0.0000711 -0.0003963 0.0001900 -0.0004269 0.0000943 -0.0002935 -0.0001240 -0.0006046 -0.0000497 -0.0010351 0.0001919 -0.0008817 -0.0005377 -0.0007322 -0.0004041 -0.0000051
0.0060204 -0.0170654 -0.0001206 -0.0008360 0.0000807 -0.0002844 0.0001960 -0.0003323 0.0001035 -0.0002265 -0.0001063 -0.0004886 -0.0000256 -0.0008938 0.0002075 -0.0008277 -0.0005268 -0.0007019 -0.0004221 0.0000237
0.0122400 -0.0207589 -0.0001026 -0.0007458 0.0000927 -0.0001446 0.0002018 -0.0002182 0.0001025 -0.0001491 -0.0000704 -0.0003064 0.0000142 -0.0006984 0.0002306 -0.0007142 -0.0004903 -0.0005956 -0.0003992 0.0000132
0.0131143 -0.0254864 -0.0000949 -0.0005921 0.0001005 0.0000098 0.0002071 -0.0000756 0.0000982 -0.0000706 -0.0000240 -0.0000532 0.0000608 -0.0004317 0.0002466 -0.0005494 -0.0004516 -0.0004489 -0.0003911 -0.0000059
0.0086263 -0.0112224 -0.0000624 -0.0004069 0.0001101 0.0001889 0.0002103 0.0000702 0.0000787 0.0000111 0.0000171 0.0001148 0.0001204 -0.0002360 0.0002711 -0.0004278 -0.0004143 -0.0003705 -0.0003540 -0.0000752
0.0041884 0.0027644 -0.0000537 -0.0004031 0.0001157 0.0000994 0.0002066 -0.0000179 0.0000835 -0.0000979 0.0000526 0.0001062 0.0001722 -0.0002110 0.0003067 -0.0003828 -0.0003669 -0.0004188 -0.0003109 -0.0001876
-0.0117445 0.0125605 -0.0000593 -0.0005109 0.0001206 -0.0000869 0.0002070 -0.0001791 0.0000856 -0.0002016 0.0000710 0.0000572 0.0001965 -0.0002101 0.0003192 -0.0003445 -0.0003444 -0.0004650 -0.0003225 -0.0003574
-0.0177141 0.0204169 -0.0000317 -0.0004657 0.0001274 -0.0000411 0.0002161 -0.0001415 0.0000567 -0.0001369 0.0001003 0.0001559 0.0002138 -0.0001640 0.0003337 -0.0002821 -0.0003327 -0.0004387 -0.0003405 -0.0004773
-0.0070908 0.0264557 -0.0000106 -0.0003445 0.0001281 0.0000546 0.0002133 -0.0000726 0.0000602 -0.0000946 0.0001284 0.0003033 0.0002194 -0.0000701 0.0003406 -0.0002210 -0.0003272 -0.0004055 -0.0003577 -0.0004578
0.0000831 0.0154062 0.0000008 -0.0002151 0.0001278 0.0001769 0.0002105 0.0000204 0.0000879 -0.0000217 0.0001590 0.0004812 0.0002349 0.0000779 0.0003340 -0.0001526 -0.0003256 -0.0003257 -0.0003886 -0.0003064
0.0065260 -0.0095005 -0.0000070 -0.0001527 0.0001306 0.0003113 0.0002091 0.0001181 0.0000818 0.0000629 0.0001405 0.0005288 0.0002384 0.0001491 0.0003425 -0.0000991 -0.0003447 -0.0003707 -0.0003684 -0.0000993
-0.0042846 0.0020774 -0.0000292 -0.0002584 0.0001355 0.0002286 0.0001941 0.0000026 0.0000524 -0.0000520 0.0000626 0.0002312 0.0002082 -0.0000240 0.0003440 -0.0002031 -0.0003640 -0.0005614 -0.0003524 -0.0001497
0.0004598 -0.0101982 -0.0000426 -0.0004099 0.0001326 -0.0000358 0.0001878 -0.0002238 0.0000452 -0.0002576 0.0000401 -0.0000044 0.0001997 -0.0001956 0.0003633 -0.0003277 -0.0003541 -0.0006955 -0.0003753 -0.0003029
0.0097727 -0.0067337 -0.0000435 -0.0004349 0.0001249 -0.0001322 0.0001909 -0.0002841 0.0000505 -0.0002909 0.0000386 -0.0000147 0.0002076 -0.0001840 0.0003917 -0.0003093 -0.0003641 -0.0007697 -0.0003556 -0.0003609
0.0052900 0.0031769 -0.0000238 -0.0004031 0.0001299 -0.0000582 0.0001960 -0.0002272 0.0000550 -0.0002260 0.0000396 0.0000325 0.0001978 -0.0001524 0.0003998 -0.0002300 -0.0004004 -0.0008391 -0.0003443 -0.0003209
-0.0014591 0.0124335 -0.0000076 -0.0003497 0.0001391 0.0000618 0.0001962 -0.0001414 0.0000711 -0.0001794 0.0000347 0.0000847 0.0001889 -0.0001066 0.0003945 -0.0001720 -0.0004247 -0.0008466 -0.0003150 -0.0002591
-0.0008182 0.0130778 0.0000139 -0.0002853 0.0001380 0.0001820 0.0001895 -0.0000553 0.0000607 -0.0000970 0.0000322 0.0001701 0.0001994 -0.0000001 0.0003811 -0.0001203 -0.0004313 -0.0007916 -0.0003061 -0.0002493
-0.0094690 0.0138477 0.0000223 -0.0002468 0.0001450 0.0002610 0.0001886 -0.0000489 0.0000438 -0.0000757 0.0000360 0.0001290 0.0002051 -0.0000371 0.0003780 -0.0001265 -0.0004424 -0.0008494 -0.0003338 -0.0003300
-0.0105364 0.0163702 -0.0000017 -0.0003377 0.0001475 0.0000922 0.0001889 -0.0002001 0.0000416 -0.0002177 0.0000393 -0.0000181 0.0002119 -0.0002018 0.0003984 -0.0002074 -0.0004489 -0.0009865 -0.0003624 -0.0004642
0.0033297 0.0030579 -0.0000120 -0.0004417 0.0001336 -0.0001111 0.0001882 -0.0003122 0.0000510 -0.0003081 0.0000398 -0.0000536 0.0002113 -0.0002419 0.0004093 -0.0002262 -0.0004461 -0.0010345 -0.0003793 -0.0005239
0.0108011 -0.0218320 0.0000131 -0.0004470 0.0001333 -0.0000840 0.0001894 -0.0002940 0.0000605 -0.0002824 0.0000402 -0.0000128 0.0002092 -0.0001904 0.0004126 -0.0001916 -0.0004395 -0.0009969 -0.0004049 -0.0004919
0.0090474 -0.0285629 0.0000255 -0.0004030 0.0001349 0.0000085 0.0001878 -0.0002292 0.0000422 -0.0001937 0.0000524 0.0001089 0.0002222 -0.0000875 0.0004193 -0.0001248 -0.0004293 -0.0009199 -0.0004243 -0.0004401
-0.0075513 0.0077893 0.0000228 -0.0003038 0.0001388 0.0001381 0.0001885 -0.0001204 0.0000213 -0.0000772 0.0000705 0.0002571 0.0002288 0.0000496 0.0004176 -0.0000324 -0.0004132 -0.0007891 -0.0004328 -0.0004233
-0.0112894 0.0213245 0.0000277 -0.0001666 0.0001460 0.0002872 0.0001968 0.0000119 0.0000218 0.0000318 0.0001074 0.0004039 0.0002300 0.0001250 0.0004208 0.0000048 -0.0003808 -0.0006420 -0.0004148 -0.0004654
0.0032179 0.0062833 0.0000230 -0.0001896 0.0001482 0.0001937 0.0001984 -0.0000659 0.0000423 -0.0000822 0.0001170 0.0003206 0.0002196 -0.0000002 0.0004220 -0.0000861 -0.0003586 -0.0006583 -0.0003669 -0.0005764
0.0026520 -0.0019503 0.0000353 -0.0003385 0.0001431 -0.0000386 0.0001967 -0.0002597 0.0000511 -0.0002595 0.0000960 0.0001429 0.0002085 -0.0001152 0.0004220 -0.0001591 -0.0003532 -0.0007239 -0.0003770 -0.0006053
-0.0059845 0.0131188 0.0000510 -0.0003413 0.0001385 -0.0000595 0.0002015 -0.0002663 0.0000487 -0.0002636 0.0001044 0.0001873 0.0002238 -0.0000577 0.0004219 -0.0001378 -0.0003538 -0.0007062 -0.0003381 -0.0005879
-0.0067054 0.0153453 0.0000516 -0.0002829 0.0001351 0.0000085 0.0002030 -0.0001964 0.0000598 -0.0002412 0.0001074 0.0002766 0.0002398 0.0000275 0.0004196 -0.0000838 -0.0003539 -0.0006399 -0.0003086 -0.0005261
-0.0117978 0.0203756 0.0000585 -0.0002097 0.0001318 0.0001063 0.0002068 -0.0001028 0.0000458 -0.0001461 0.0001143 0.0003861 0.0002416 0.0001288 0.0004184 0.0000142 -0.0003509 -0.0005430 -0.0003240 -0.0004196
-0.0031185 0.0087586 0.0000622 -0.0000953 0.0001386 0.0002512 0.0002168 0.0000171 0.0000580 -0.0000439 0.0001463 0.0005551 0.0002541 0.0002564 0.0004189 0.0001296 -0.0003360 -0.0004103 -0.0003483 -0.0003533
0.0090574 -0.0091194 0.0000650 0.0000237 0.0001563 0.0003796 0.0002208 0.0000762 0.0000574 -0.0000294 0.0001541 0.0005559 0.0002576 0.0002167 0.0004169 0.0001148 -0.0003252 -0.0003885 -0.0003743 -0.0003831
0.0071662 -0.0065462 0.0000724 -0.0000703 0.0001572 0.0002154 0.0002153 -0.0000630 0.0000412 -0.0001542 0.0001356 0.0003654 0.0002483 0.0000515 0.0004162 -0.0000013 -0.0003291 -0.0005051 -0.0003916 -0.0004031
-0.0020227 -0.0079641 0.0000675 -0.0002059 0.0001408 -0.0000053 0.0002151 -0.0001932 0.0000605 -0.0002535 0.0001112 0.0002632 0.0002371 -0.0000091 0.0004190 -0.0000471 -0.0003316 -0.0005803 -0.0003896 -0.0003703
-0.0077763 0.0074424 0.0000727 -0.0002094 0.0001419 0.0000291 0.0002157 -0.0001653 0.0000624 -0.0002098 0.0000898 0.0002734 0.0002248 0.0000331 0.0004206 -0.0000126 -0.0003423 -0.0005971 -0.0003726 -0.0003278
0.0019789 0.0054172 0.0000702 -0.0001607 0.0001456 0.0001274 0.0002125 -0.0000933 0.0000668 -0.0001297 0.0000883 0.0003431 0.0002168 0.0001338 0.0004198 0.0000458 -0.0003579 -0.0005632 -0.0003821 -0.0002572
0.0079554 0.0016296 0.0000737 -0.0000777 0.0001461 0.0002579 0.0002110 0.0000083 0.0000755 -0.0000376 0.0000881 0.0004403 0.0002148 0.0002246 0.0004110 0.0001210 -0.0003640 -0.0005031 -0.0003518 -0.0002289
0.0071022 -0.0057168 0.0001060 0.0000053 0.0001524 0.0004149 0.0002139 0.0001329 0.0000728 0.0000857 0.0000991 0.0005815 0.0002118 0.0003287 0.0003977 0.0001909 -0.0003731 -0.0004471 -0.0003616 -0.0002175
0.0063006 -0.0115152 0.0000975 -0.0000123 0.0001654 0.0004011 0.0002123 0.0000934 0.0000612 0.0000658 0.0001146 0.0005446 0.0002143 0.0002715 0.0003857 0.0001495 -0.0003831 -0.0005058 -0.0003685 -0.0003105
-0.0011776 0.0031331 0.0000803 -0.0001292 0.0001682 0.0002386 0.0002077 -0.0000535 0.0000659 -0.0000546 0.0001164 0.0004180 0.0002216 0.0001544 0.0003836 0.0000869 -0.0003834 -0.0005909 -0.0003543 -0.0004104
-0.0054881 -0.0024761 0.0000852 -0.0001357 0.0001646 0.0002269 0.0002100 -0.0000487 0.0000769 -0.0000427 0.0001240 0.0004494 0.0002227 0.0001859 0.0003812 0.0001168 -0.0003911 -0.0005803 -0.0003779 -0.0003968
-0.0016224 -0.0064322 0.0000865 -0.0000880 0.0001692 0.0003213 0.0002126 0.0000304 0.0000669 0.0000334 0.0001269 0.0005159 0.0002235 0.0002438 0.0003809 0.0001760 -0.0003984 -0.0005325 -0.0003916 -0.0003359
-0.0001434 0.0103985 0.0000837 -0.0000101 0.0001713 0.0004409 0.0002139 0.0001350 0.0000651 0.0001264 0.0001209 0.0006089 0.0002161 0.0003296 0.0003833 0.0002562 -0.0004029 -0.0004585 -0.0004112 -0.0002398
-0.0014943 0.0086818 0.0000856 0.0000848 0.0001747 0.0005915 0.0002147 0.0002604 0.0000709 0.0002467 0.0001294 0.0007247 0.0002138 0.0004301 0.0003755 0.0003399 -0.0004050 -0.0003701 -0.0004372 -0.0001317
0.0020482 -0.0225345 0.0000744 0.0001505 0.0001866 0.0007305 0.0002117 0.0003206 0.0000754 0.0002792 0.0001168 0.0006632 0.0001969 0.0003474 0.0003706 0.0003026 -0.0003988 -0.0003656 -0.0004284 -0.0001354
-0.0073327 -0.0067837 0.0000670 0.0000560 0.0001903 0.0005856 0.0002008 0.0001859 0.0000847 0.0001589 0.0000842 0.0004587 0.0001755 0.0001743 0.0003629 0.0001858 -0.0003890 -0.0004309 -0.0004166 -0.0002328
-0.0161849 0.0144145 0.0000700 -0.0000660 0.0001794 0.0003800 0.0001963 0.0000567 0.0000916 0.0001024 0.0000893 0.0004302 0.0001880 0.0001933 0.0003623 0.0001563 -0.0003811 -0.0004441 -0.0004508 -0.0003049
0.0026467 0.0073947 0.0000737 -0.0000504 0.0001812 0.0004244 0.0001981 0.0000714 0.0000815 0.0001525 0.0001126 0.0005393 0.0002064 0.0003128 0.0003686 0.0002035 -0.0003798 -0.0004216 -0.0004371 -0.0003997
0.0087162 -0.0041452 0.0000902 -0.0000117 0.0001860 0.0005076 0.0001934 0.0001107 0.0000908 0.0001852 0.0001352 0.0006647 0.0002159 0.0004422 0.0003654 0.0002912 -0.0003892 -0.0003840 -0.0004308 -0.0004504
-0.0037258 0.0097427 0.0000937 0.0000492 0.0001831 0.0006116 0.0001878 0.0001826 0.0000802 0.0002655 0.0001608 0.0008092 0.0002234 0.0005610 0.0003512 0.0003859 -0.0004006 -0.0003219 -0.0004280 -0.0004298
-0.0058390 0.0083397 0.0000717 0.0001370 0.0001784 0.0007142 0.0001816 0.0002596 0.0000375 0.0003920 0.0001801 0.0009140 0.0002300 0.0006039 0.0003325 0.0004123 -0.0004109 -0.0003027 -0.0004257 -0.0004543
0.0146371 -0.0414265 0.0000694 0.0000789 0.0001791 0.0005924 0.0001766 0.0001545 0.0000397 0.0002847 0.0001928 0.0008274 0.0002373 0.0005017 0.0003317 0.0003452 -0.0004109 -0.0003693 -0.0004575 -0.0005435
0.0026176 -0.0086353 0.0000778 -0.0000686 0.0001792 0.0003602 0.0001782 -0.0000223 0.0000407 0.0001056 0.0001925 0.0006881 0.0002430 0.0003885 0.0003406 0.0002804 -0.0003966 -0.0004298 -0.0004657 -0.0005741
-0.0007659 0.0166518 0.0000666 -0.0000953 0.0001732 0.0003225 0.0001776 -0.0000433 0.0000577 0.0000344 0.0001855 0.0006683 0.0002429 0.0003852 0.0003432 0.0002883 -0.0003865 -0.0004198 -0.0004767 -0.0005334
0.0032119 0.0085553 0.0000635 -0.0000654 0.0001692 0.0003690 0.0001765 -0.0000122 0.0000800 0.0000227 0.0001777 0.0006832 0.0002418 0.0004141 0.0003447 0.0003456 -0.0003774 -0.0003280 -0.0004843 -0.0004626
-0.0062234 0.0047254 0.0000679 0.0000443 0.0001625 0.0004416 0.0001806 0.0000775 0.0000510 0.0001019 0.0003106 0.0010681 0.0002759 0.0005751 0.0003608 0.0004466 -0.0003143 -0.0000376 -0.0005512 -0.0003171
-0.0100176 0.0115276 0.0000778 0.0001412 0.0001587 0.0005398 0.0001783 0.0001805 0.0000340 0.0001479 0.0003320 0.0012092 0.0002641 0.0006455 0.0003489 0.0004660 -0.0002875 0.0001343 -0.0005066 -0.0000896
-0.0023791 -0.0116306 0.0000746 0.0000685 0.0001620 0.0004842 0.0001676 0.0000932 0.0000258 0.0000454 0.0002159 0.0008457 0.0002111 0.0004302 0.0003283 0.0003244 -0.0003079 0.0000086 -0.0003742 -0.0000395
0.0026525 -0.0016051 0.0000697 -0.0001041 0.0001619 0.0002613 0.0001611 -0.0001019 -0.0000035 -0.0001014 0.0001911 0.0005829 0.0001832 0.0001813 0.0003323 0.0001732 -0.0003048 -0.0001212 -0.0003023 -0.0001103
-0.0031258 0.0119998 0.0000604 -0.0001945 0.0001596 0.0001591 0.0001605 -0.0001757 0.0000117 -0.0001290 0.0001386 0.0003872 0.0001356 0.0000214 0.0003540 0.0001883 -0.0003306 -0.0002337 -0.0002163 0.0001152
-0.0051190 0.0147881 0.0000125 -0.0002651 0.0001599 0.0001968 0.0001423 -0.0001994 0.0000342 -0.0000655 0.0003575 0.0006793 0.0001022 -0.0003320 0.0004572 0.0002263 -0.0004554 -0.0001949 -0.0001971 0.0005156
0.0030240 0.0016747 -0.0000209 -0.0003510 0.0001287 0.0001730 0.0000847 -0.0002956 0.0000664 0.0001321 0.0005193 0.0008211 -0.0000932 -0.0011200 0.0003634 -0.0001272 -0.0005796 0.0000215 -0.0002889 0.0005744
0.0001938 -0.0210017 -0.0000369 -0.0003822 0.0000720 0.0001021 0.0000096 -0.0004636 0.0001516 0.0003729 0.0005405 0.0008596 -0.0003467 -0.0017466 0.0000601 -0.0006826 -0.0005159 0.0004313 -0.0003728 0.0003914
0.0021589 -0.0257043 -0.0000621 -0.0003719 -0.0000447 -0.0000860 -0.0001073 -0.0007637 0.0003214 0.0008115 0.0009464 0.0018359 -0.0004238 -0.0020524 -0.0001933 -0.0013858 -0.0002881 0.0009788 -0.0003933 0.0003008
-0.0016983 0.0160038 -0.0000928 -0.0005771 -0.0001846 -0.0006259 -0.0002119 -0.0012429 0.0004397 0.0010598 0.0011578 0.0021597 -0.0004638 -0.0024234 -0.0003372 -0.0019472 -0.0001825 0.0010782 -0.0004003 0.0000952
-0.0001050 0.0158154 -0.0001154 -0.0008664 -0.0002527 -0.0011256 -0.0002305 -0.0015685 0.0004836 0.0010450 0.0010969 0.0018132 -0.0004774 -0.0026473 -0.0003282 -0.0020067 -0.0001825 0.0010046 -0.0003932 -0.0000222
0.0061070 -0.0255518 -0.0000981 -0.0008661 -0.0002958 -0.0012607 -0.0002185 -0.0015966 0.0005621 0.0012672 0.0010966 0.0017646 -0.0004892 -0.0027307 -0.0002971 -0.0020508 -0.0001293 0.0011345 -0.0004392 0.0000651
-0.0050911 0.0088181 -0.0000857 -0.0008452 -0.0003379 -0.0013005 -0.0002057 -0.0015581 0.0006104 0.0014716 0.0009041 0.0012353 -0.0005830 -0.0029496 -0.0003146 -0.0021604 -0.0001146 0.0012050 -0.0004711 0.0001322
-0.0025496 0.0076605 -0.0000955 -0.0008813 -0.0003720 -0.0013163 -0.0002020 -0.0015118 0.0006302 0.0015081 0.0006024 0.0004965 -0.0006928 -0.0031161 -0.0003255 -0.0021913 -0.0001219 0.0012296 -0.0004432 0.0001743
0.0071494 -0.0086632 -0.0000984 -0.0008398 -0.0003946 -0.0012504 -0.0002045 -0.0014072 0.0006191 0.0014802 0.0003996 0.0001374 -0.0006818 -0.0029030 -0.0002563 -0.0019318 -0.0001478 0.0012099 -0.0004094 0.0001379
0.0075886 -0.0084516 -0.0000674 -0.0007882 -0.0003741 -0.0011790 -0.0001896 -0.0013223 0.0005763 0.0013675 0.0002992 -0.0000664 -0.0005511 -0.0025246 -0.0000868 -0.0014726 -0.0001754 0.0010224 -0.0003753 -0.0000175
0.0066493 -0.0148765 -0.0000194 -0.0008742 -0.0003192 -0.0012710 -0.0001510 -0.0013306 0.0004882 0.0010340 0.0002260 -0.0002611 -0.0003815 -0.0021182 0.0000666 -0.0011352 -0.0002147 0.0007478 -0.0003367 -0.0001786
0.0038078 0.0002067 0.0000017 -0.0010209 -0.0002679 -0.0012966 -0.0001023 -0.0012463 0.0003649 0.0007169 0.0001864 -0.0002425 -0.0002292 -0.0016635 0.0001645 -0.0008802 -0.0002957 0.0005409 -0.0003291 -0.0002666
-0.0051975 0.0099332 -0.0000152 -0.0010879 -0.0002272 -0.0011437 -0.0000591 -0.0010566 0.0002927 0.0005962 0.0002121 -0.0000676 -0.0001200 -0.0013051 0.0002408 -0.0006471 -0.0003634 0.0004648 -0.0003977 -0.0002342
-0.0103773 0.0068328 -0.0000255 -0.0010205 -0.0002045 -0.0009908 -0.0000305 -0.0008884 0.0002836 0.0005668 0.0002569 0.0001524 -0.0000483 -0.0010478 0.0002895 -0.0004827 -0.0003832 0.0005202 -0.0005423 -0.0000370
0.0061563 -0.0031964 -0.0000216 -0.0008833 -0.0002365 -0.0009882 -0.0000356 -0.0008367 0.0002694 0.0005465 0.0001823 0.0000854 -0.0000633 -0.0010346 0.0003031 -0.0004187 -0.0004205 0.0004668 -0.0005722 0.0001370
0.0076699 -0.0027743 -0.0000335 -0.0008319 -0.0002707 -0.0010347 -0.0000559 -0.0008634 0.0002284 0.0004841 0.0000412 -0.0002394 -0.0001283 -0.0012198 0.0002903 -0.0004676 -0.0004693 0.0003136 -0.0005134 0.0001712
0.0022176 -0.0081530 -0.0000302 -0.0009238 -0.0002473 -0.0011316 -0.0000455 -0.0009559 0.0002135 0.0002758 0.0000056 -0.0004727 -0.0001637 -0.0014540 0.0002908 -0.0005955 -0.0004920 0.0001334 -0.0004784 0.0001843
-0.0073105 0.0064772 -0.0000341 -0.0010841 -0.0002284 -0.0013053 -0.0000301 -0.0010688 0.0002033 0.0001264 -0.0000120 -0.0006559 -0.0002168 -0.0017241 0.0002766 -0.0007268 -0.0005339 -0.0000722 -0.0003890 0.0003030
-0.0049250 0.0033862 -0.0000596 -0.0011817 -0.0002342 -0.0013708 -0.0000353 -0.0011198 0.0001743 0.0000774 -0.0000644 -0.0008161 -0.0002697 -0.0018628 0.0002638 -0.0008072 -0.0005762 -0.0002527 -0.0003190 0.0004614
0.0167460 -0.0327170 -0.0000813 -0.0012049 -0.0002376 -0.0013518 -0.0000411 -0.0011243 0.0001894 0.0000175 -0.0001021 -0.0008819 -0.0002921 -0.0018546 0.0002324 -0.0008808 -0.0005847 -0.0002964 -0.0002916 0.0005238
0.0056964 -0.0074652 -0.0000918 -0.0012044 -0.0002321 -0.0012592 -0.0000352 -0.0010482 0.0002006 0.0000679 -0.0001249 -0.0008588 -0.0003070 -0.0017867 0.0001926 -0.0008974 -0.0005775 -0.0001994 -0.0002951 0.0005540
-0.0027845 0.0097546 -0.0000977 -0.0011792 -0.0002281 -0.0011583 -0.0000316 -0.0009659 0.0001746 0.0001404 -0.0001404 -0.0008164 -0.0003196 -0.0017267 0.0001679 -0.0008856 -0.0005721 -0.0001389 -0.0002715 0.0005502
-0.0010012 0.0049642 -0.0001141 -0.0012505 -0.0002245 -0.0012363 -0.0000349 -0.0010281 0.0001760 0.0000375 -0.0001674 -0.0009993 -0.0003384 -0.0018899 0.0001363 -0.0010447 -0.0005744 -0.0002338 -0.0002795 0.0004129
-0.0042766 0.0003465 -0.0001275 -0.0014482 -0.0002201 -0.0014542 -0.0000315 -0.0011797 0.0001866 -0.0001568 -0.0002029 -0.0012868 -0.0003545 -0.0021300 0.0001116 -0.0012641 -0.0005800 -0.0003784 -0.0003332 0.0002477
0.0041662 -0.0101900 -0.0001331 -0.0015596 -0.0002213 -0.0015403 -0.0000283 -0.0012322 0.0001802 -0.0002011 -0.0002350 -0.0013855 -0.0003501 -0.0021819 0.0001006 -0.0013363 -0.0005780 -0.0004061 -0.0003481 0.0001370
0.0070419 -0.0031023 -0.0001344 -0.0015317 -0.0002188 -0.0014700 -0.0000299 -0.0011907 0.0001696 -0.0001354 -0.0002557 -0.0013591 -0.0003438 -0.0021003 0.0001007 -0.0012988 -0.0005701 -0.0003578 -0.0003529 0.0001031
0.0065134 -0.0087989 -0.0001155 -0.0014351 -0.0002068 -0.0013063 -0.0000262 -0.0010906 0.0001601 -0.0000212 -0.0002514 -0.0012252 -0.0003306 -0.0019587 0.0001048 -0.0011963 -0.0005733 -0.0003014 -0.0003829 0.0001426
0.0033752 -0.0110449 -0.0001077 -0.0013046 -0.0001935 -0.0011048 -0.0000246 -0.0009736 0.0001611 0.0000894 -0.0002462 -0.0010873 -0.0003137 -0.0018225 0.0001152 -0.0010546 -0.0005827 -0.0002603 -0.0004272 0.0001527
0.0059421 -0.0127288 -0.0001052 -0.0011601 -0.0001737 -0.0008974 -0.0000267 -0.0008844 0.0001553 0.0001481 -0.0001922 -0.0009274 -0.0002454 -0.0016266 0.0001534 -0.0008879 -0.0005741 -0.0002594 -0.0004474 0.0000591
-0.0010255 0.0072293 -0.0000968 -0.0011600 -0.0001528 -0.0009393 -0.0000247 -0.0009663 0.0001536 0.0000023 -0.0000924 -0.0007823 -0.0001569 -0.0014685 0.0002269 -0.0007462 -0.0005883 -0.0004262 -0.0004432 -0.0001178
-0.0001478 0.0137208 -0.0000931 -0.0011966 -0.0001436 -0.0010818 -0.0000215 -0.0010742 0.0001366 -0.0001552 -0.0000278 -0.0006512 -0.0001116 -0.0013526 0.0002546 -0.0006938 -0.0006105 -0.0005357 -0.0004856 -0.0003486
0.0084200 -0.0137751 -0.0000751 -0.0011223 -0.0001364 -0.0010296 -0.0000232 -0.0010558 0.0000783 -0.0001525 -0.0000200 -0.0005560 -0.0000873 -0.0012111 0.0002450 -0.0006685 -0.0005982 -0.0004698 -0.0005557 -0.0005080
0.0091958 -0.0140149 -0.0000595 -0.0009921 -0.0001227 -0.0008784 -0.0000202 -0.0009744 0.0000660 -0.0001074 0.0000028 -0.0004046 -0.0000477 -0.0009930 0.0002646 -0.0005370 -0.0005630 -0.0003409 -0.0005368 -0.0005245
0.0064882 -0.0078348 -0.0000313 -0.0008118 -0.0001039 -0.0006497 -0.0000176 -0.0008250 0.0000676 0.0000181 0.0000482 -0.0001409 0.0000110 -0.0007200 0.0002816 -0.0003599 -0.0005124 -0.0001262 -0.0005085 -0.0004000
0.0060631 -0.0136583 -0.0000057 -0.0006405 -0.0000746 -0.0003685 -0.0000125 -0.0006535 0.0000750 0.0001416 0.0000674 -0.0000106 0.0000279 -0.0006342 0.0003135 -0.0002061 -0.0004882 -0.0000209 -0.0004870 -0.0002973
0.0145919 -0.0283727 -0.0000154 -0.0006712 -0.0000502 -0.0003507 -0.0000248 -0.0007388 0.0001164 0.0000941 0.0000735 -0.0001439 0.0000317 -0.0007745 0.0003295 -0.0002699 -0.0004620 -0.0000935 -0.0004445 -0.0003969
0.0249883 -0.0465649 -0.0000161 -0.0008095 -0.0000454 -0.0005290 -0.0000423 -0.0009443 0.0001205 0.0000020 0.0000751 -0.0002850 0.0000548 -0.0008639 0.0003111 -0.0004682 -0.0004289 -0.0001609 -0.0004511 -0.0005012
0.0150834 -0.0225508 0.0000187 -0.0008201 -0.0000438 -0.0005194 -0.0000432 -0.0009384 0.0001256 -0.0000042 0.0000741 -0.0002614 0.0000858 -0.0008134 0.0003006 -0.0005371 -0.0004118 -0.0001570 -0.0004685 -0.0005332
-0.0049671 -0.0018637 0.0000420 -0.0007457 -0.0000441 -0.0004276 -0.0000424 -0.0008561 0.0001244 0.0000701 0.0000810 -0.0001691 0.0001107 -0.0007082 0.0003059 -0.0005312 -0.0003987 -0.0001225 -0.0004670 -0.0005281
-0.0095568 0.0054600 0.0000534 -0.0006421 -0.0000439 -0.0002983 -0.0000393 -0.0007285 0.0001029 0.0001955 0.0000900 -0.0000351 0.0001222 -0.0005689 0.0003078 -0.0004636 -0.0003948 -0.0000589 -0.0004802 -0.0004590
-0.0008914 0.0000744 0.0000736 -0.0005204 -0.0000396 -0.0001413 -0.0000349 -0.0005781 0.0000994 0.0003031 0.0000991 0.0001085 0.0001394 -0.0004087 0.0003105 -0.0003815 -0.0003833 0.0000131 -0.0005017 -0.0004174
0.0009098 0.0017620 0.0000732 -0.0004970 -0.0000292 -0.0001221 -0.0000325 -0.0005833 0.0000960 0.0002811 0.0001179 0.0001044 0.0001669 -0.0004096 0.0003234 -0.0004065 -0.0003512 -0.0000324 -0.0004757 -0.0005291
-0.0062722 0.0097185 0.0000783 -0.0006312 -0.0000237 -0.0002896 -0.0000272 -0.0007168 0.0000737 0.0001731 0.0001586 0.0000358 0.0001976 -0.0005063 0.0003438 -0.0004918 -0.0003340 -0.0001928 -0.0004813 -0.0006939
0.0043721 -0.0075525 0.0000747 -0.0006775 -0.0000267 -0.0003655 -0.0000171 -0.0007393 0.0000844 0.0001319 0.0002028 0.0001213 0.0002274 -0.0004469 0.0003736 -0.0004739 -0.0003376 -0.0002819 -0.0005046 -0.0008193
-0.0002833 0.0052809 0.0000914 -0.0006414 -0.0000247 -0.0002812 -0.0000182 -0.0006713 0.0001039 0.0001496 0.0002207 0.0002400 0.0002491 -0.0003378 0.0003973 -0.0003872 -0.0003378 -0.0002819 -0.0005046 -0.0008617
-0.0241079 0.0312068 0.0001129 -0.0005733 -0.0000224 -0.0001619 -0.0000186 -0.0005721 0.0000905 0.0002226 0.0002228 0.0003456 0.0002556 -0.0002250 0.0004165 -0.0002665 -0.0003437 -0.0002474 -0.0005197 -0.0008048
-0.0195492 0.0140653 0.0001070 -0.0004397 -0.0000218 -0.0000197 -0.0000148 -0.0004535 0.0000754 0.0003289 0.0002219 0.0004580 0.0002612 -0.0000989 0.0004311 -0.0001192 -0.0003571 -0.0001838 -0.0005070 -0.0007355
0.0098242 -0.0171789 0.0001266 -0.0003334 -0.0000192 0.0001171 -0.0000151 -0.0003585 0.0000584 0.0004146 0.0002187 0.0004602 0.0002555 -0.0001105 0.0004333 -0.0001181 -0.0003589 -0.0001920 -0.0004972 -0.0007581
0.0094732 -0.0140496 0.0001142 -0.0004320 -0.0000186 -0.0000372 -0.0000181 -0.0004755 0.0000567 0.0002949 0.0002048 0.0002568 0.0002528 -0.0003449 0.0004258 -0.0002868 -0.0003538 -0.0003341 -0.0004911 -0.0008704
0.0009534 -0.0054856 0.0001021 -0.0006132 -0.0000172 -0.0002779 -0.0000093 -0.0006407 0.0000862 0.0001318 0.0002137 0.0001532 0.0002638 -0.0004765 0.0004683 -0.0002964 -0.0003702 -0.0004990 -0.0004539 -0.0008284
0.0056925 -0.0063767 0.0001161 -0.0006609 -0.0000152 -0.0002807 -0.0000094 -0.0006759 0.0000800 0.0001124 0.0003302 0.0003507 0.0001928 -0.0007431 0.0004871 -0.0003528 -0.0004550 -0.0006729 -0.0004266 -0.0006485
-0.0015975 0.0080266 0.0001006 -0.0006251 -0.0000204 -0.0002319 -0.0000361 -0.0007181 0.0000578 0.0000839 0.0004044 0.0004807 0.0000873 -0.0010848 0.0004310 -0.0005790 -0.0005015 -0.0006770 -0.0004548 -0.0006385
-0.0081413 0.0111862 0.0000904 -0.0005333 -0.0000246 -0.0001327 -0.0000579 -0.0007134 0.0000624 0.0000647 0.0003712 0.0005162 0.0000528 -0.0010597 0.0003826 -0.0006209 -0.0004492 -0.0004490 -0.0004960 -0.0006944
-0.0029674 -0.0108421 0.0001045 -0.0004154 -0.0000226 -0.0000011 -0.0000656 -0.0006469 0.0000613 0.0001336 0.0003654 0.0006368 0.0000484 -0.0009628 0.0003567 -0.0005850 -0.0004006 -0.0002674 -0.0005072 -0.0006787
-0.0033168 -0.0082141 0.0001252 -0.0004529 -0.0000144 -0.0000777 -0.0000759 -0.0007437 0.0000772 0.0000423 0.0003678 0.0005457 0.0000457 -0.0010840 0.0003625 -0.0006926 -0.0003688 -0.0002922 -0.0005158 -0.0007436
