-0.0000000 -0.0000000 -0.0000000 -0.0000000 -0.0000000 -0.0000000 -0.0000000 -0.0000000 -0.0000000 -0.0000000 -0.0000000 -0.0000000 -0.0000000 -0.0000000 -0.0000000 -0.0000000 -0.0000000 -0.0000000 -0.0000000 -0.0000000
-0.0000000 -0.0000000 -0.0000000 -0.0000000 -0.0000000 -0.0000000 -0.0000000 -0.0000000 -0.0000000 -0.0000000 -0.0000000 -0.0000000 -0.0000000 -0.0000000 -0.0000000 -0.0000000 -0.0000000 -0.0000000 -0.0000000 -0.0000000
0.0090334 -0.0164609 -0.0000092 -0.0000900 0.0000032 -0.0000785 0.0000017 -0.0000625 0.0000053 -0.0000679 0.0000097 -0.0000485 -0.0000006 -0.0000508 0.0000004 -0.0000481 0.0000018 -0.0000491 0.0000085 -0.0000643
0.0031498 -0.0073823 -0.0000075 -0.0001016 0.0000067 -0.0000811 0.0000349 -0.0000899 0.0000078 -0.0000704 0.0000173 -0.0000354 0.0000120 -0.0000527 0.0000019 -0.0000117 -0.0000005 -0.0000260 0.0000131 -0.0000524
0.0036589 -0.0141453 -0.0000118 -0.0000638 0.0000063 -0.0000464 0.0000492 -0.0000707 0.0000059 -0.0000523 0.0000141 0.0000060 0.0000212 -0.0000231 0.0000000 0.0000369 -0.0000005 0.0000237 0.0000046 -0.0000003
-0.0043038 -0.0088062 -0.0000104 -0.0000206 0.0000053 0.0000050 0.0000548 -0.0000563 0.0000030 -0.0000201 0.0000147 0.0000518 0.0000318 0.0000123 -0.0000049 0.0000883 0.0000023 0.0000923 -0.0000059 0.0000537
0.0009501 -0.0175359 -0.0000080 0.0000096 0.0000055 0.0000536 0.0000167 0.0000073 -0.0000032 0.0000109 0.0000310 0.0001339 0.0000366 0.0000591 -0.0000097 0.0001023 0.0000127 0.0001605 -0.0000259 0.0000129
0.0041046 -0.0127980 -0.0000209 -0.0000809 0.0000137 0.0000530 -0.0000254 -0.0000579 -0.0000313 -0.0001410 0.0000373 0.0001276 0.0000176 0.0000041 -0.0000132 0.0000096 0.0000285 0.0001410 -0.0000540 -0.0001388
-0.0039581 0.0087659 -0.0000506 -0.0002928 0.0000086 -0.0000276 -0.0000530 -0.0002987 -0.0000203 -0.0002430 0.0000197 -0.0000373 -0.0000065 -0.0001734 0.0000138 -0.0000995 0.0000025 -0.0000300 -0.0000419 -0.0001902
-0.0081873 0.0156451 -0.0000748 -0.0003902 -0.0000551 -0.0001799 -0.0000724 -0.0005042 0.0000651 -0.0000070 0.0000173 -0.0001152 -0.0000159 -0.0002721 0.0000581 -0.0000794 -0.0000596 -0.0002012 -0.0000111 -0.0001002
-0.0016861 0.0030803 -0.0001087 -0.0003942 -0.0001233 -0.0003282 -0.0000929 -0.0006396 0.0001137 0.0001618 0.0000349 -0.0000556 -0.0000222 -0.0002473 0.0000561 0.0000072 -0.0000811 -0.0001919 0.0000055 -0.0000225
0.0001400 0.0105574 -0.0001442 -0.0003706 -0.0002031 -0.0004807 -0.0001501 -0.0007761 0.0001736 0.0003972 0.0002286 0.0005593 0.0000531 0.0000239 0.0001618 0.0004647 -0.0001235 -0.0001935 0.0000314 0.0000991
-0.0034926 0.0151659 -0.0001411 -0.0002849 -0.0003840 -0.0008260 -0.0002295 -0.0009880 0.0002656 0.0007771 0.0005156 0.0014194 0.0001625 0.0003970 0.0003031 0.0009645 -0.0001892 -0.0002460 0.0000577 0.0002724
-0.0074189 0.0072270 -0.0001303 -0.0001663 -0.0005206 -0.0010844 -0.0002927 -0.0010840 0.0002781 0.0009061 0.0005608 0.0015333 0.0001613 0.0004119 0.0002755 0.0008302 -0.0001827 -0.0002518 0.0000567 0.0002643
-0.0065155 0.0036989 -0.0001350 -0.0002154 -0.0005330 -0.0011964 -0.0003291 -0.0010974 0.0002407 0.0007162 0.0004771 0.0011983 0.0001107 0.0001362 0.0002055 0.0004265 -0.0001430 -0.0003081 0.0000498 0.0001076
0.0059598 -0.0140670 -0.0001508 -0.0003565 -0.0005234 -0.0013259 -0.0003599 -0.0011685 0.0001906 0.0004416 0.0004002 0.0008794 0.0000557 -0.0001143 0.0001449 0.0001450 -0.0001071 -0.0002990 0.0000564 0.0000478
0.0088342 -0.0094502 -0.0001518 -0.0003951 -0.0005082 -0.0013753 -0.0003655 -0.0011841 0.0001031 0.0001868 0.0002537 0.0004025 -0.0000254 -0.0003336 0.0000844 -0.0000317 -0.0000638 -0.0001697 0.0000648 0.0001028
0.0012894 -0.0038584 -0.0001380 -0.0003813 -0.0004630 -0.0013130 -0.0003300 -0.0010495 -0.0000439 -0.0001527 0.0000577 -0.0001796 -0.0000851 -0.0005289 -0.0000001 -0.0002345 -0.0000108 0.0000330 0.0000702 0.0001761
-0.0141857 0.0068340 -0.0001083 -0.0003682 -0.0001942 -0.0006820 -0.0001523 -0.0006557 -0.0001907 -0.0005346 -0.0000459 -0.0003913 -0.0000940 -0.0005087 -0.0000739 -0.0003350 0.0000191 0.0001781 0.0000872 0.0002680
-0.0192089 0.0120627 -0.0000493 -0.0002539 0.0000758 0.0000304 0.0000107 -0.0002277 -0.0001887 -0.0005619 0.0000490 0.0000019 -0.0000352 -0.0002275 -0.0000189 -0.0000497 -0.0000387 0.0000661 0.0001165 0.0003768
-0.0141035 0.0056332 0.0000184 -0.0001659 0.0000813 0.0000617 0.0000349 -0.0001276 -0.0001153 -0.0004623 0.0001619 0.0003127 0.0000350 -0.0000342 0.0000424 0.0000420 -0.0000812 -0.0001662 0.0001177 0.0002535
-0.0091258 0.0006078 0.0000483 -0.0002421 -0.0000016 -0.0003133 0.0000859 -0.0003038 -0.0001212 -0.0006410 0.0000894 -0.0000172 0.0000357 -0.0001630 -0.0000368 -0.0003060 -0.0000054 -0.0001222 0.0000767 0.0000049
0.0005501 -0.0087239 0.0000495 -0.0002932 -0.0000681 -0.0006253 0.0001229 -0.0004090 -0.0001439 -0.0007595 -0.0000111 -0.0003841 0.0000154 -0.0002759 -0.0000841 -0.0004380 0.0000491 -0.0000059 0.0000583 -0.0000137
0.0021499 -0.0108353 0.0000587 -0.0002596 -0.0000644 -0.0006067 0.0000767 -0.0002998 -0.0001295 -0.0006974 -0.0000364 -0.0004469 0.0000100 -0.0002448 -0.0000724 -0.0003866 0.0000447 0.0000009 0.0000814 0.0000814
0.0023603 -0.0162494 0.0000647 -0.0001864 -0.0000428 -0.0004890 0.0000506 -0.0002050 -0.0001262 -0.0006297 -0.0000431 -0.0004151 -0.0000043 -0.0002011 -0.0000752 -0.0002954 0.0000414 0.0000778 0.0000951 0.0001507
0.0098630 -0.0218351 0.0000786 -0.0001393 -0.0000375 -0.0004019 0.0000796 -0.0001700 -0.0001324 -0.0005821 -0.0000543 -0.0003817 -0.0000171 -0.0001452 -0.0000950 -0.0002050 0.0000467 0.0002015 0.0000884 0.0002293
-0.0061837 0.0052821 0.0000837 -0.0000579 -0.0000391 -0.0003364 0.0001144 -0.0000991 -0.0001362 -0.0005235 -0.0000808 -0.0003809 -0.0000316 -0.0001041 -0.0001105 -0.0002215 0.0000599 0.0002458 0.0000849 0.0002002
-0.0081596 0.0074904 0.0000790 -0.0000752 -0.0000329 -0.0003629 0.0001483 -0.0001588 -0.0001432 -0.0006268 -0.0000891 -0.0004635 -0.0000204 -0.0001902 -0.0001146 -0.0003207 0.0000718 0.0001819 0.0000791 0.0000800
0.0008044 -0.0021364 0.0000859 -0.0001812 -0.0000169 -0.0004497 0.0001618 -0.0002699 -0.0001334 -0.0007722 -0.0000858 -0.0005760 -0.0000103 -0.0002896 -0.0001136 -0.0003627 0.0000728 0.0001212 0.0000644 0.0000205
0.0008193 -0.0123791 0.0000930 -0.0001882 -0.0000151 -0.0005068 0.0001502 -0.0002719 -0.0001133 -0.0007798 -0.0000847 -0.0005895 -0.0000138 -0.0002958 -0.0001117 -0.0003232 0.0000685 0.0001294 0.0000557 0.0000220
0.0028794 0.0034411 0.0001048 -0.0001477 -0.0000156 -0.0005082 0.0001895 -0.0002853 -0.0000993 -0.0007548 -0.0000859 -0.0005639 -0.0000042 -0.0002747 -0.0001145 -0.0002668 0.0000672 0.0001995 0.0000326 0.0000582
-0.0059192 0.0221952 0.0001125 -0.0000943 -0.0000133 -0.0004641 0.0001645 -0.0002061 -0.0000839 -0.0006977 -0.0000894 -0.0005211 0.0000021 -0.0002121 -0.0001152 -0.0001764 0.0000615 0.0002730 0.0000246 0.0001215
-0.0076017 0.0124745 0.0000818 -0.0000433 -0.0000351 -0.0004396 0.0000750 -0.0001017 -0.0000667 -0.0005875 -0.0000842 -0.0004471 0.0000002 -0.0000957 -0.0001108 -0.0000355 0.0000446 0.0003306 0.0000356 0.0002211
0.0050833 -0.0089828 0.0000595 -0.0000161 -0.0000309 -0.0003653 0.0000925 -0.0000686 -0.0000517 -0.0005612 -0.0000711 -0.0004354 0.0000008 -0.0000548 -0.0000963 -0.0000638 0.0000298 0.0002492 0.0000392 0.0001766
0.0004176 -0.0036364 0.0000633 -0.0001037 0.0000028 -0.0003597 0.0001712 -0.0001417 -0.0000427 -0.0006800 -0.0000787 -0.0005460 0.0000182 -0.0001467 -0.0000803 -0.0001985 0.0000174 0.0000803 0.0000386 0.0000631
0.0044124 -0.0081103 0.0000557 -0.0001950 0.0000314 -0.0004010 0.0002369 -0.0002634 -0.0000332 -0.0007680 -0.0000926 -0.0006181 0.0000397 -0.0001849 -0.0000754 -0.0001914 0.0000048 0.0000139 0.0000371 0.0000590
0.0060672 0.0014277 0.0000532 -0.0001682 0.0000596 -0.0003620 0.0002856 -0.0003152 -0.0000230 -0.0007780 -0.0000810 -0.0005818 0.0000480 -0.0001447 -0.0000738 -0.0001149 -0.0000022 0.0000361 0.0000378 0.0000930
0.0040880 0.0032546 0.0000581 -0.0001200 0.0000672 -0.0003343 0.0002429 -0.0002653 -0.0000046 -0.0007362 -0.0000652 -0.0004827 0.0000526 -0.0000820 -0.0000703 -0.0000189 -0.0000037 0.0001162 0.0000365 0.0001622
0.0058788 -0.0144781 0.0000583 -0.0000578 0.0000740 -0.0002692 0.0001921 -0.0001491 0.0000170 -0.0006668 -0.0000511 -0.0003599 0.0000396 0.0000016 -0.0000595 0.0000907 -0.0000073 0.0001913 0.0000318 0.0002665
0.0125574 -0.0289269 0.0000640 0.0000237 0.0000959 -0.0001549 0.0002019 -0.0000591 0.0000231 -0.0005998 -0.0000623 -0.0003144 0.0000282 0.0000705 -0.0000489 0.0001483 -0.0000120 0.0002286 0.0000333 0.0003106
0.0034451 -0.0123702 0.0000776 0.0000124 0.0001265 -0.0001077 0.0002166 -0.0000153 0.0000206 -0.0006535 -0.0000901 -0.0004360 0.0000173 0.0000310 -0.0000587 0.0000244 -0.0000074 0.0001470 0.0000201 0.0001852
-0.0029017 0.0158404 0.0000986 -0.0000470 0.0001450 -0.0001916 0.0002280 -0.0000602 0.0000287 -0.0007599 -0.0001123 -0.0006149 0.0000076 -0.0000732 -0.0000816 -0.0001131 -0.0000107 0.0000469 0.0000041 0.0000293
0.0041958 0.0036482 0.0001238 -0.0000249 0.0001393 -0.0002829 0.0002437 -0.0000967 0.0000482 -0.0007762 -0.0001411 -0.0007265 0.0000123 -0.0001303 -0.0001165 -0.0001747 -0.0000081 0.0000926 -0.0000145 -0.0000571
0.0149411 -0.0336828 0.0001239 0.0000197 0.0001241 -0.0003088 0.0003178 -0.0001264 0.0000648 -0.0007307 -0.0001666 -0.0007608 0.0000089 -0.0001526 -0.0001500 -0.0001824 0.0000006 0.0001919 -0.0000451 -0.0000685
0.0016580 -0.0077769 0.0001154 0.0000461 0.0001218 -0.0002708 0.0003680 -0.0000890 0.0000824 -0.0006457 -0.0001679 -0.0006949 0.0000078 -0.0001412 -0.0001628 -0.0001037 -0.0000021 0.0002881 -0.0000634 0.0000036
0.0063243 -0.0067469 0.0001081 0.0000822 0.0001443 -0.0001573 0.0003385 0.0000952 0.0001010 -0.0005463 -0.0001546 -0.0005806 0.0000058 -0.0000982 -0.0001750 -0.0000208 -0.0000065 0.0003902 -0.0000807 0.0000789
0.0083995 -0.0055837 0.0001048 0.0001538 0.0001659 -0.0000250 0.0003182 0.0002402 0.0001139 -0.0004936 -0.0001239 -0.0004369 -0.0000124 -0.0000496 -0.0001667 -0.0000279 -0.0000164 0.0003575 -0.0000899 0.0000520
0.0030769 0.0027401 0.0001025 0.0001148 0.0002078 0.0000240 0.0003638 0.0001886 0.0001261 -0.0005862 -0.0000814 -0.0003811 -0.0000190 -0.0001068 -0.0001383 -0.0001246 -0.0000274 0.0002046 -0.0000791 -0.0000364
0.0012268 -0.0012056 0.0001036 0.0000097 0.0002484 -0.0000024 0.0003902 0.0000945 0.0001456 -0.0006785 -0.0000539 -0.0003753 -0.0000074 -0.0001859 -0.0001262 -0.0001449 -0.0000350 0.0001483 -0.0000744 -0.0000602
0.0015299 -0.0133143 0.0001050 0.0000136 0.0002537 -0.0000024 0.0003916 0.0000478 0.0001725 -0.0006682 -0.0000463 -0.0003455 -0.0000103 -0.0001681 -0.0001328 -0.0000866 -0.0000393 0.0001823 -0.0000776 -0.0000303
0.0048278 0.0028292 0.0001048 0.0000473 0.0002649 0.0000504 0.0004358 0.0000261 0.0001980 -0.0005984 -0.0000499 -0.0003195 -0.0000097 -0.0001425 -0.0001444 -0.0000133 -0.0000453 0.0002429 -0.0000740 0.0000174
0.0024931 0.0047895 0.0001006 0.0001132 0.0002685 0.0001121 0.0004660 0.0000814 0.0002216 -0.0004862 -0.0000622 -0.0002644 -0.0000016 -0.0000974 -0.0001543 0.0000627 -0.0000523 0.0003176 -0.0000722 0.0000753
0.0006019 -0.0099732 0.0001002 0.0001942 0.0002709 0.0001834 0.0004482 0.0001843 0.0002373 -0.0003684 -0.0000745 -0.0001951 -0.0000018 -0.0000222 -0.0001533 0.0001142 -0.0000569 0.0003453 -0.0000793 0.0000960
-0.0035283 0.0023124 0.0000982 0.0001642 0.0002766 0.0001865 0.0004327 0.0001917 0.0002525 -0.0003729 -0.0000801 -0.0002520 0.0000044 -0.0000638 -0.0001381 0.0000166 -0.0000605 0.0002587 -0.0000958 0.0000218
-0.0019661 0.0017721 0.0000853 0.0000687 0.0002825 0.0000935 0.0003879 0.0001352 0.0002728 -0.0004650 -0.0000837 -0.0003756 -0.0000078 -0.0001591 -0.0001361 -0.0001050 -0.0000612 0.0001828 -0.0000976 -0.0000429
0.0061555 -0.0080323 0.0000858 0.0000365 0.0002898 0.0000440 0.0003807 0.0001170 0.0002891 -0.0004600 -0.0000750 -0.0003814 -0.0000147 -0.0001585 -0.0001388 -0.0000826 -0.0000676 0.0001832 -0.0000822 -0.0000275
0.0033915 -0.0115768 0.0000882 0.0000806 0.0002988 0.0000741 0.0004111 0.0001542 0.0002967 -0.0004082 -0.0000443 -0.0002725 0.0000040 -0.0001174 -0.0001246 0.0000031 -0.0000805 0.0002034 -0.0000718 0.0000257
0.0084865 -0.0262088 0.0000862 0.0001388 0.0003223 0.0001650 0.0004534 0.0001397 0.0002946 -0.0003653 -0.0000198 -0.0001330 0.0000246 -0.0000501 -0.0001192 0.0001076 -0.0000885 0.0002623 -0.0000716 0.0001211
0.0100751 -0.0187487 0.0000719 0.0001408 0.0003489 0.0003020 0.0004756 0.0001629 0.0003012 -0.0002874 -0.0000208 -0.0000515 0.0000367 0.0000186 -0.0001206 0.0001905 -0.0000903 0.0003238 -0.0000705 0.0002025
0.0100591 -0.0135426 0.0000357 -0.0000138 0.0003650 0.0003864 0.0004484 0.0002231 0.0003227 -0.0002722 -0.0000348 -0.0001247 0.0000485 -0.0000533 -0.0001105 0.0000838 -0.0000853 0.0002549 -0.0000677 0.0001221
0.0097118 -0.0225652 -0.0000223 -0.0002138 0.0003759 0.0003514 0.0004626 0.0001280 0.0003433 -0.0003662 -0.0000547 -0.0002856 0.0000489 -0.0001854 -0.0001001 -0.0000843 -0.0000728 0.0001480 -0.0000755 0.0000033
0.0081309 -0.0200604 -0.0000482 -0.0002970 0.0003811 0.0002867 0.0004830 0.0000365 0.0003547 -0.0004091 -0.0000684 -0.0003697 0.0000399 -0.0002480 -0.0000968 -0.0001228 -0.0000635 0.0001498 -0.0000793 -0.0000241
0.0087191 -0.0144846 -0.0000615 -0.0002928 0.0003862 0.0002959 0.0004431 0.0000820 0.0003577 -0.0003780 -0.0000773 -0.0003947 0.0000342 -0.0002709 -0.0000944 -0.0001208 -0.0000600 0.0001944 -0.0000831 -0.0000061
0.0066389 -0.0089928 -0.0000622 -0.0002497 0.0003941 0.0003332 0.0004231 0.0001493 0.0003584 -0.0003187 -0.0000840 -0.0003866 0.0000239 -0.0002387 -0.0001066 -0.0000723 -0.0000585 0.0002733 -0.0000763 0.0000350
0.0030716 0.0104370 -0.0000311 -0.0001748 0.0003954 0.0003533 0.0004738 0.0001667 0.0003627 -0.0002442 -0.0000889 -0.0003549 0.0000286 -0.0001845 -0.0001223 -0.0000100 -0.0000608 0.0003547 -0.0000661 0.0000841
0.0002718 0.0129480 0.0000085 -0.0000774 0.0003903 0.0003414 0.0005378 0.0001590 0.0003658 -0.0002320 -0.0000964 -0.0003917 0.0000461 -0.0002100 -0.0001221 -0.0001149 -0.0000609 0.0002911 -0.0000799 0.0000065
-0.0039202 0.0037437 0.0000558 -0.0001444 0.0003866 0.0002212 0.0005551 0.0000714 0.0003691 -0.0003283 -0.0001007 -0.0005190 0.0000678 -0.0003495 -0.0001192 -0.0003088 -0.0000581 0.0001418 -0.0000963 -0.0001430
-0.0109730 0.0178007 0.0000711 -0.0002438 0.0003877 0.0000844 0.0005325 -0.0000084 0.0003811 -0.0004123 -0.0000983 -0.0006027 0.0000833 -0.0004634 -0.0001083 -0.0003779 -0.0000511 0.0000905 -0.0001009 -0.0001772
-0.0011233 0.0077313 0.0000839 -0.0002257 0.0003969 0.0000450 0.0004918 -0.0000234 0.0003885 -0.0004331 -0.0000896 -0.0006042 0.0000827 -0.0004833 -0.0000933 -0.0003453 -0.0000512 0.0001094 -0.0000880 -0.0001532
0.0065401 -0.0017239 0.0001103 -0.0001893 0.0004106 0.0000793 0.0004762 -0.0000002 0.0003883 -0.0004065 -0.0000827 -0.0005694 0.0000793 -0.0004507 -0.0000869 -0.0002757 -0.0000562 0.0001645 -0.0000829 -0.0000877
0.0017879 0.0009072 0.0001198 -0.0001213 0.0004234 0.0001476 0.0004598 0.0000946 0.0003877 -0.0003488 -0.0000751 -0.0005262 0.0000921 -0.0004094 -0.0000855 -0.0002107 -0.0000576 0.0002354 -0.0000853 0.0000012
0.0036633 -0.0030738 0.0001369 -0.0000219 0.0004244 0.0001850 0.0004650 0.0001323 0.0003829 -0.0002941 -0.0000742 -0.0005205 0.0001085 -0.0003906 -0.0000918 -0.0002544 -0.0000475 0.0002331 -0.0000694 0.0000129
0.0030112 0.0010697 0.0001652 0.0000221 0.0004154 0.0000729 0.0005103 0.0000392 0.0003567 -0.0003780 -0.0000840 -0.0006317 0.0001288 -0.0004412 -0.0000951 -0.0003470 -0.0000405 0.0000983 0.0000459 -0.0000281
0.0019834 -0.0041122 0.0001616 0.0001036 0.0004073 -0.0001217 0.0005560 -0.0000637 0.0003287 -0.0005352 -0.0000990 -0.0007807 0.0001534 -0.0005579 -0.0000880 -0.0003870 -0.0000425 0.0000222 0.0001245 -0.0000647
-0.0060038 0.0176696 0.0001646 0.0001495 0.0004173 -0.0001625 0.0006036 -0.0001683 0.0003287 -0.0006033 -0.0001048 -0.0008395 0.0001649 -0.0006337 -0.0000745 -0.0003742 -0.0000299 0.0000752 0.0000739 -0.0000581
-0.0081171 0.0168148 0.0001741 0.0001296 0.0004413 -0.0000734 0.0006102 -0.0002289 0.0003322 -0.0005983 -0.0000951 -0.0008107 0.0001596 -0.0006377 -0.0000525 -0.0002785 -0.0000348 0.0001155 0.0000626 0.0000616
0.0063338 -0.0175032 0.0001728 0.0002240 0.0004549 0.0000037 0.0005212 -0.0001408 0.0003393 -0.0005339 -0.0000490 -0.0006370 0.0001581 -0.0005855 -0.0000230 -0.0000955 -0.0000991 0.0000662 0.0001258 0.0001439
0.0074103 -0.0121769 0.0001843 0.0003462 0.0004545 0.0000410 0.0004395 -0.0001606 0.0004182 -0.0002873 0.0001617 0.0000172 0.0002070 -0.0003582 0.0000845 0.0002530 -0.0002006 -0.0001288 0.0001847 0.0001523
0.0064745 -0.0056988 0.0001968 0.0002920 0.0004196 -0.0001140 0.0004148 -0.0003407 0.0004711 -0.0001918 0.0002623 0.0002061 0.0002601 -0.0003122 0.0001491 0.0002673 -0.0002055 -0.0002511 0.0001796 0.0001408
0.0034631 -0.0062386 0.0001942 0.0000469 0.0003339 -0.0004991 0.0004444 -0.0004429 0.0004276 -0.0003648 0.0001333 -0.0003544 0.0002258 -0.0006428 0.0000936 -0.0000912 -0.0001117 -0.0001110 0.0001660 0.0001212
-0.0034926 -0.0005265 0.0001731 -0.0001491 0.0002438 -0.0008141 0.0004999 -0.0005563 0.0004048 -0.0004605 0.0000429 -0.0006939 0.0001834 -0.0009212 0.0000400 -0.0002958 -0.0000457 0.0000743 0.0001322 0.0001208
0.0032091 -0.0136446 0.0001683 -0.0001984 0.0002588 -0.0007287 0.0004934 -0.0006677 0.0004556 -0.0003758 0.0000888 -0.0005271 0.0001928 -0.0009271 0.0000297 -0.0002034 -0.0000172 0.0002339 0.0000554 0.0000855
0.0041832 -0.0205645 0.0001588 -0.0002467 0.0002597 -0.0006103 0.0002863 -0.0008965 0.0007092 0.0004504 0.0002355 0.0000411 0.0002223 -0.0007273 0.0000811 0.0001029 -0.0000574 0.0002643 0.0000457 0.0002169
0.0015346 -0.0110896 0.0001702 -0.0002201 0.0000936 -0.0009413 0.0000641 -0.0012534 0.0009008 0.0011745 0.0003713 0.0005212 0.0002860 -0.0004697 0.0001880 0.0004415 -0.0001519 0.0001178 0.0000763 0.0004791
0.0007181 -0.0049890 0.0002005 -0.0001436 -0.0000395 -0.0012352 -0.0000583 -0.0013109 0.0008413 0.0010265 0.0003236 0.0002702 0.0002894 -0.0005812 0.0001993 0.0002950 -0.0002062 -0.0000920 0.0000520 0.0003594
0.0008589 -0.0069441 0.0002097 -0.0002097 -0.0000940 -0.0014752 -0.0001230 -0.0013237 0.0007686 0.0007343 0.0001161 -0.0005380 0.0002306 -0.0009509 0.0001442 -0.0001058 -0.0002606 -0.0003969 0.0000117 0.0000839
0.0028587 -0.0220325 0.0001998 -0.0002721 -0.0001122 -0.0016227 -0.0000930 -0.0014610 0.0007358 0.0006135 0.0001484 -0.0005086 0.0003059 -0.0008196 0.0002578 0.0002156 -0.0003964 -0.0007380 -0.0000348 -0.0000084
-0.0120426 0.0140553 0.0001882 -0.0003153 -0.0000677 -0.0014668 -0.0001758 -0.0017677 0.0008384 0.0010282 0.0010392 0.0021503 0.0006882 0.0002924 0.0006356 0.0012712 -0.0006383 -0.0012264 -0.0001368 -0.0001855
-0.0110382 0.0201777 0.0002604 -0.0002013 -0.0002977 -0.0020063 -0.0006207 -0.0028592 0.0011091 0.0021810 0.0018196 0.0048604 0.0009941 0.0012137 0.0008842 0.0018003 -0.0008534 -0.0016340 -0.0002222 -0.0002560
0.0029480 -0.0002133 0.0003235 -0.0000922 -0.0005955 -0.0027263 -0.0010407 -0.0037715 0.0011823 0.0027296 0.0017252 0.0047973 0.0009033 0.0009023 0.0007880 0.0013545 -0.0008446 -0.0014526 -0.0002621 -0.0001816
0.0103249 -0.0142002 0.0002319 -0.0003353 -0.0005843 -0.0025738 -0.0011157 -0.0035740 0.0009800 0.0023048 0.0014073 0.0036239 0.0007150 0.0002601 0.0006433 0.0006970 -0.0007334 -0.0011541 -0.0003042 -0.0002617
0.0115728 -0.0191923 0.0002611 -0.0005449 -0.0005624 -0.0025761 -0.0011429 -0.0034691 0.0008161 0.0018561 0.0011559 0.0026268 0.0005921 -0.0002569 0.0005176 0.0000559 -0.0006776 -0.0011740 -0.0003315 -0.0004450
0.0066249 -0.0137006 0.0003827 -0.0005176 -0.0006392 -0.0030093 -0.0010920 -0.0036426 0.0007309 0.0015486 0.0010279 0.0020622 0.0005642 -0.0004886 0.0004661 -0.0002600 -0.0007010 -0.0013370 -0.0003737 -0.0006392
0.0035902 -0.0114022 0.0003772 -0.0005197 -0.0006339 -0.0030396 -0.0010640 -0.0035637 0.0007105 0.0015231 0.0009998 0.0019249 0.0005629 -0.0005137 0.0004485 -0.0003452 -0.0007352 -0.0014717 -0.0003523 -0.0006706
0.0134056 -0.0237744 0.0003659 -0.0003183 -0.0005906 -0.0028780 -0.0010956 -0.0036280 0.0007719 0.0018455 0.0011078 0.0023044 0.0006899 -0.0000873 0.0005031 0.0002157 -0.0010668 -0.0019331 -0.0005110 -0.0007904
0.0069238 -0.0089550 0.0003640 -0.0000233 -0.0006452 -0.0029472 -0.0011741 -0.0038585 0.0007654 0.0020477 0.0011882 0.0026199 0.0007966 0.0003058 0.0005416 0.0006741 -0.0012940 -0.0021602 -0.0005336 -0.0008722
-0.0014965 -0.0025979 0.0003535 0.0000567 -0.0006891 -0.0029608 -0.0011844 -0.0037826 0.0006641 0.0019955 0.0010884 0.0023382 0.0007264 0.0001417 0.0004855 0.0004565 -0.0010972 -0.0018499 -0.0003402 -0.0007122
0.0112297 -0.0270618 0.0003383 0.0000090 -0.0006787 -0.0028982 -0.0011200 -0.0036405 0.0005874 0.0018794 0.0010444 0.0021711 0.0006958 -0.0000438 0.0004869 0.0002010 -0.0009918 -0.0018388 -0.0003597 -0.0007322
0.0151556 -0.0219474 0.0003116 -0.0002597 -0.0006564 -0.0028856 -0.0011554 -0.0034736 0.0005347 0.0016852 0.0010210 0.0019600 0.0006553 -0.0003413 0.0004873 -0.0001902 -0.0008904 -0.0018596 -0.0003869 -0.0008256
0.0151564 -0.0223618 0.0003089 -0.0004775 -0.0006298 -0.0028540 -0.0011989 -0.0033018 0.0004902 0.0015771 0.0010236 0.0019169 0.0006175 -0.0004818 0.0004833 -0.0003594 -0.0008126 -0.0017822 -0.0003818 -0.0008134
0.0156624 -0.0267514 0.0003124 -0.0004352 -0.0005864 -0.0027099 -0.0011671 -0.0032524 0.0004687 0.0016144 0.0010775 0.0021142 0.0006053 -0.0004840 0.0004685 -0.0003674 -0.0007903 -0.0017154 -0.0003654 -0.0007421
-0.0026136 0.0051726 0.0002909 -0.0003704 -0.0005749 -0.0026537 -0.0010491 -0.0031602 0.0003879 0.0015435 0.0010433 0.0019980 0.0005781 -0.0005293 0.0004456 -0.0004066 -0.0007689 -0.0015965 -0.0003728 -0.0006735
-0.0132253 0.0199605 0.0002486 -0.0003929 -0.0005228 -0.0024351 -0.0009101 -0.0030483 0.0003492 0.0015858 0.0009614 0.0017285 0.0005567 -0.0005514 0.0004096 -0.0003946 -0.0007396 -0.0014589 -0.0003375 -0.0005202
-0.0011459 0.0093134 0.0002323 -0.0002416 -0.0005027 -0.0022633 -0.0008765 -0.0030031 0.0003510 0.0017159 0.0009162 0.0015494 0.0005532 -0.0005831 0.0003779 -0.0004291 -0.0007255 -0.0014550 -0.0002914 -0.0004857
-0.0020836 0.0109894 0.0002433 -0.0003146 -0.0005535 -0.0024026 -0.0009182 -0.0029251 0.0003075 0.0016033 0.0008558 0.0012493 0.0005202 -0.0007854 0.0003659 -0.0007508 -0.0006437 -0.0014369 -0.0003033 -0.0005405
-0.0043717 0.0085232 0.0000941 -0.0007741 -0.0005345 -0.0022979 -0.0009724 -0.0027761 0.0002861 0.0014965 0.0008111 0.0010561 0.0004508 -0.0010570 0.0003413 -0.0011117 -0.0005039 -0.0012277 -0.0003071 -0.0003432
0.0063646 -0.0070593 -0.0000832 -0.0009774 -0.0004865 -0.0020428 -0.0009814 -0.0026695 0.0002553 0.0014747 0.0007817 0.0009742 0.0003968 -0.0012185 0.0003005 -0.0012646 -0.0004414 -0.0010551 -0.0002914 -0.0001738
0.0139589 -0.0259350 -0.0000773 -0.0008780 -0.0004798 -0.0019817 -0.0010102 -0.0025223 0.0001998 0.0014717 0.0007694 0.0009730 0.0003703 -0.0011970 0.0002778 -0.0012419 -0.0004263 -0.0009518 -0.0002682 -0.0001163
0.0072296 -0.0088367 0.0000092 -0.0006185 -0.0005037 -0.0020496 -0.0010238 -0.0024084 0.0001438 0.0014959 0.0007938 0.0011138 0.0003723 -0.0010542 0.0002751 -0.0010920 -0.0004317 -0.0008647 -0.0002474 -0.0000336
0.0052111 -0.0022113 0.0000727 -0.0004104 -0.0005056 -0.0020007 -0.0009464 -0.0023387 0.0001173 0.0015566 0.0008018 0.0012118 0.0003741 -0.0009714 0.0002657 -0.0010508 -0.0004396 -0.0008404 -0.0002488 -0.0000426
-0.0028165 -0.0007986 0.0000797 -0.0004359 -0.0004969 -0.0019583 -0.0008560 -0.0023232 0.0001125 0.0015248 0.0007820 0.0011184 0.0003664 -0.0010002 0.0002523 -0.0011535 -0.0004303 -0.0009021 -0.0002664 -0.0001256
-0.0071205 0.0018655 0.0000455 -0.0005505 -0.0004832 -0.0019647 -0.0008197 -0.0023831 0.0001158 0.0014387 0.0007482 0.0009491 0.0003717 -0.0010759 0.0002433 -0.0012336 -0.0004115 -0.0009266 -0.0002805 -0.0001553
0.0144862 -0.0344875 0.0000456 -0.0005413 -0.0004864 -0.0019822 -0.0009372 -0.0022743 0.0001022 0.0014107 0.0007258 0.0008793 0.0003791 -0.0010524 0.0002658 -0.0010993 -0.0004114 -0.0008983 -0.0002719 -0.0001262
0.0066682 -0.0229550 0.0001235 -0.0004189 -0.0005024 -0.0020471 -0.0010278 -0.0020947 0.0000628 0.0013926 0.0007285 0.0009239 0.0003605 -0.0009741 0.0002636 -0.0009892 -0.0004159 -0.0008388 -0.0002628 -0.0000354
-0.0057673 -0.0132491 0.0002118 -0.0002780 -0.0004945 -0.0020240 -0.0009867 -0.0019882 0.0000185 0.0014090 0.0007336 0.0010145 0.0003378 -0.0009068 0.0002276 -0.0009989 -0.0004062 -0.0007236 -0.0002560 0.0000858
0.0119573 -0.0372107 0.0002401 -0.0001546 -0.0004879 -0.0019286 -0.0009166 -0.0018875 -0.0000231 0.0014458 0.0007259 0.0010697 0.0003282 -0.0008193 0.0002044 -0.0009123 -0.0004006 -0.0005875 -0.0002473 0.0001904
0.0153815 -0.0359739 0.0002312 -0.0000975 -0.0004986 -0.0018862 -0.0008347 -0.0018493 -0.0000485 0.0014059 0.0007202 0.0010486 0.0003338 -0.0007642 0.0002151 -0.0008480 -0.0004085 -0.0006402 -0.0002396 0.0001666
0.0023533 0.0023650 0.0002291 -0.0001672 -0.0004875 -0.0018923 -0.0007745 -0.0019234 -0.0000291 0.0013606 0.0008232 0.0013503 0.0004172 -0.0005636 0.0003129 -0.0005819 -0.0004510 -0.0008529 -0.0002230 0.0001202
0.0018899 0.0039989 0.0002130 -0.0002446 -0.0004923 -0.0019143 -0.0008139 -0.0019607 0.0000293 0.0014738 0.0009880 0.0019642 0.0005252 -0.0002008 0.0004201 -0.0001488 -0.0005018 -0.0009580 -0.0002092 0.0001878
0.0020699 -0.0121945 0.0001798 -0.0002496 -0.0005295 -0.0019387 -0.0008830 -0.0019318 0.0000633 0.0016154 0.0010551 0.0022685 0.0005470 -0.0000312 0.0004366 0.0000141 -0.0005115 -0.0009094 -0.0002024 0.0002679
-0.0081699 0.0084643 0.0001565 -0.0001948 -0.0005668 -0.0019460 -0.0009108 -0.0018848 0.0000355 0.0016489 0.0009889 0.0021021 0.0005054 -0.0000566 0.0004005 0.0000125 -0.0004876 -0.0007518 -0.0001900 0.0003410
-0.0149509 0.0164723 0.0001277 -0.0001044 -0.0005771 -0.0018379 -0.0010101 -0.0017576 0.0000919 0.0019054 0.0011354 0.0027472 0.0005937 0.0004167 0.0005274 0.0007301 -0.0005723 -0.0009131 -0.0000891 0.0000765
-0.0050344 0.0089164 0.0001791 0.0002468 -0.0008019 -0.0021862 -0.0016837 -0.0027416 0.0001685 0.0024021 0.0014453 0.0044788 0.0008865 0.0014229 0.0007409 0.0015642 -0.0008745 -0.0014117 -0.0001279 -0.0003816
0.0031988 -0.0052065 0.0002352 0.0005171 -0.0013706 -0.0034143 -0.0027900 -0.0046966 0.0001627 0.0025642 0.0013805 0.0046927 0.0010118 0.0016648 0.0008265 0.0014524 -0.0010164 -0.0016473 -0.0002716 -0.0004557
-0.0055570 -0.0116097 0.0001747 0.0002934 -0.0017683 -0.0042833 -0.0032220 -0.0055717 0.0000788 0.0022427 0.0009710 0.0029938 0.0008569 0.0010779 0.0007441 0.0008134 -0.0008245 -0.0014006 -0.0003029 -0.0003582
-0.0223562 0.0042563 0.0001283 -0.0000021 -0.0016548 -0.0040744 -0.0028903 -0.0050708 -0.0001610 0.0017093 0.0005758 0.0013583 0.0006773 0.0005685 0.0004226 0.0001133 -0.0008646 -0.0013395 -0.0007011 -0.0007364
-0.0122963 -0.0074167 0.0001613 -0.0000307 -0.0013988 -0.0036619 -0.0024876 -0.0042346 -0.0003264 0.0014145 0.0003398 0.0004552 0.0005081 0.0000865 0.0002277 -0.0005142 -0.0007074 -0.0009420 -0.0005670 -0.0005295
-0.0048243 -0.0023802 0.0001913 -0.0000857 -0.0011860 -0.0031204 -0.0022795 -0.0036632 -0.0003102 0.0014465 0.0002455 0.0001283 0.0003861 -0.0001765 0.0002513 -0.0008548 -0.0003622 -0.0003200 -0.0001446 0.0000200
-0.0014736 0.0002287 0.0001875 -0.0002480 -0.0010535 -0.0027207 -0.0021315 -0.0034498 -0.0003229 0.0013041 0.0001857 -0.0001458 0.0003214 -0.0003854 0.0002002 -0.0012096 -0.0002591 -0.0002291 -0.0002474 -0.0001871
-0.0002340 0.0000738 0.0001909 -0.0003411 -0.0010322 -0.0028098 -0.0019822 -0.0034304 -0.0003856 0.0009929 0.0000515 -0.0007387 0.0002221 -0.0008703 0.0001178 -0.0016909 -0.0001309 -0.0001045 -0.0002683 -0.0003276
0.0011345 0.0025433 0.0002468 -0.0002527 -0.0010203 -0.0029288 -0.0017500 -0.0031513 -0.0003508 0.0010157 -0.0001018 -0.0013607 0.0001137 -0.0012704 0.0000150 -0.0019881 -0.0000930 -0.0000657 -0.0002607 -0.0003212
-0.0030984 0.0173349 0.0003070 -0.0001542 -0.0011259 -0.0032831 -0.0015400 -0.0030893 -0.0003460 0.0010795 -0.0001493 -0.0015187 0.0001637 -0.0011125 0.0000334 -0.0016999 0.0000567 0.0002923 -0.0002309 -0.0003963
-0.0051565 0.0184461 0.0003228 0.0000385 -0.0011609 -0.0033200 -0.0014602 -0.0031363 -0.0003438 0.0011398 -0.0001653 -0.0015180 0.0002115 -0.0008502 0.0000048 -0.0013242 0.0000533 0.0004055 -0.0001932 -0.0004618
-0.0007314 -0.0003000 0.0002781 0.0002558 -0.0011650 -0.0032298 -0.0014563 -0.0030205 -0.0002993 0.0013112 -0.0003100 -0.0019441 0.0000823 -0.0011109 -0.0001075 -0.0015304 0.0000655 0.0004907 -0.0001633 -0.0003705
-0.0004402 -0.0062909 0.0002230 0.0001932 -0.0012684 -0.0034571 -0.0014753 -0.0030703 -0.0003094 0.0012886 -0.0003882 -0.0022311 0.0000293 -0.0013119 0.0000375 -0.0014128 0.0004425 0.0012814 0.0004070 0.0013762
-0.0015031 0.0013256 0.0000832 -0.0001198 -0.0011228 -0.0028641 -0.0020134 -0.0035546 0.0000571 0.0019859 0.0000365 -0.0008557 0.0002349 -0.0006702 0.0003840 -0.0005194 0.0005795 0.0015997 0.0008485 0.0028448
-0.0024412 0.0109441 -0.0000456 -0.0004645 -0.0009998 -0.0023733 -0.0025762 -0.0041768 0.0002235 0.0023301 0.0003542 0.0001599 0.0004052 -0.0001040 0.0004845 -0.0000768 0.0003755 0.0008661 0.0005489 0.0017744
-0.0049373 0.0056870 0.0000159 -0.0004829 -0.0009931 -0.0024672 -0.0021606 -0.0037862 -0.0001782 0.0014535 0.0000928 -0.0008029 0.0002557 -0.0006238 0.0002342 -0.0006925 0.0002124 0.0002135 0.0002596 0.0006135
-0.0023958 -0.0085803 -0.0000454 -0.0005852 -0.0007821 -0.0019259 -0.0015291 -0.0029035 -0.0004875 0.0007873 -0.0001450 -0.0014998 0.0000811 -0.0011392 0.0000330 -0.0012184 0.0001754 0.0002346 0.0001821 0.0004759
-0.0028345 -0.0013514 -0.0002752 -0.0007412 -0.0005045 -0.0009468 -0.0012423 -0.0023962 -0.0005643 0.0006446 -0.0001966 -0.0015187 0.0000531 -0.0011957 -0.0000109 -0.0012655 0.0001249 0.0002117 0.0001307 0.0004564
-0.0051071 -0.0089333 -0.0003903 -0.0008285 -0.0004066 -0.0005356 -0.0012761 -0.0022048 -0.0005596 0.0005871 -0.0002332 -0.0016509 0.0000433 -0.0012831 -0.0000159 -0.0013653 0.0001099 0.0000928 0.0000804 0.0003180
0.0174513 -0.0489135 -0.0003876 -0.0009969 -0.0004491 -0.0007330 -0.0013792 -0.0022897 -0.0005748 0.0004014 -0.0002582 -0.0018537 0.0000154 -0.0014142 -0.0000219 -0.0015305 0.0001181 -0.0000314 0.0000539 0.0001228
0.0105637 -0.0275889 -0.0003796 -0.0010660 -0.0004874 -0.0009547 -0.0013468 -0.0024686 -0.0005981 0.0002442 -0.0002694 -0.0019724 -0.0000070 -0.0014946 -0.0000264 -0.0015497 0.0001204 -0.0000477 0.0000463 0.0000276
-0.0083694 0.0117061 -0.0003599 -0.0010165 -0.0005167 -0.0010706 -0.0012682 -0.0025929 -0.0006275 0.0001593 -0.0002662 -0.0019620 -0.0000131 -0.0015279 -0.0000486 -0.0015327 0.0001273 0.0000205 0.0000320 0.0000203
-0.0075402 0.0154894 -0.0003143 -0.0009104 -0.0005464 -0.0011554 -0.0012353 -0.0026601 -0.0006609 0.0001303 -0.0002640 -0.0019077 -0.0000142 -0.0014899 -0.0000681 -0.0014720 0.0001320 0.0001206 0.0000162 0.0001052
-0.0015755 0.0061574 -0.0002267 -0.0007020 -0.0005986 -0.0012824 -0.0012515 -0.0027206 -0.0006889 0.0001465 -0.0002582 -0.0018325 -0.0000118 -0.0014091 -0.0000783 -0.0013794 0.0001397 0.0002253 0.0000082 0.0001848
0.0007355 0.0057741 -0.0001475 -0.0005730 -0.0006486 -0.0013902 -0.0013011 -0.0027534 -0.0007017 0.0000802 -0.0002543 -0.0018323 -0.0000184 -0.0014055 -0.0000777 -0.0014297 0.0001522 0.0002058 0.0000010 0.0001193
-0.0013329 0.0067550 -0.0001089 -0.0005930 -0.0006752 -0.0015366 -0.0013553 -0.0028601 -0.0006956 -0.0000805 -0.0002561 -0.0019304 -0.0000249 -0.0014736 -0.0000609 -0.0015188 0.0001595 0.0001206 -0.0000016 0.0000145
-0.0101032 0.0045230 -0.0000797 -0.0005871 -0.0006874 -0.0016679 -0.0013804 -0.0029897 -0.0006988 -0.0001867 -0.0002631 -0.0019950 -0.0000388 -0.0015223 -0.0000631 -0.0015224 0.0001684 0.0001365 -0.0000005 -0.0000072
-0.0060357 -0.0179399 -0.0000628 -0.0005236 -0.0006974 -0.0016871 -0.0014167 -0.0029864 -0.0007183 -0.0002200 -0.0002693 -0.0019773 -0.0000583 -0.0015035 -0.0000822 -0.0014914 0.0001834 0.0002253 -0.0000008 0.0000174
-0.0024961 0.0035398 -0.0000562 -0.0004483 -0.0007106 -0.0016699 -0.0014173 -0.0029844 -0.0007319 -0.0002056 -0.0002729 -0.0019323 -0.0000673 -0.0014519 -0.0001029 -0.0014089 0.0001921 0.0003566 0.0000070 0.0000924
-0.0061439 0.0151566 -0.0000577 -0.0003497 -0.0007299 -0.0016350 -0.0013830 -0.0029561 -0.0007285 -0.0001481 -0.0002874 -0.0019046 -0.0000671 -0.0013488 -0.0001062 -0.0012548 0.0001793 0.0004472 0.0000014 0.0001471
-0.0085629 0.0038542 -0.0000819 -0.0003838 -0.0006979 -0.0014376 -0.0013640 -0.0029664 -0.0005586 0.0001762 -0.0002633 -0.0018230 -0.0000350 -0.0012323 -0.0000659 -0.0011926 0.0001543 0.0003333 -0.0000092 0.0000816
-0.0098403 0.0044244 -0.0000989 -0.0005979 -0.0007249 -0.0016010 -0.0013839 -0.0031689 -0.0004625 0.0002184 -0.0002776 -0.0019831 -0.0000396 -0.0014165 -0.0000589 -0.0013517 0.0001800 0.0002792 -0.0000185 -0.0000345
-0.0084046 0.0114260 -0.0000945 -0.0007077 -0.0008072 -0.0019841 -0.0014863 -0.0032955 -0.0004951 0.0000356 -0.0002360 -0.0019088 -0.0000102 -0.0013848 0.0000506 -0.0009726 0.0001942 0.0002745 0.0000343 0.0001018
-0.0007118 -0.0006835 -0.0000605 -0.0005949 -0.0008464 -0.0020281 -0.0016721 -0.0033824 -0.0002743 0.0006169 0.0000339 -0.0009680 0.0001116 -0.0008331 0.0002226 -0.0003016 0.0001479 0.0001409 0.0001243 0.0000468
0.0015310 -0.0031119 -0.0000394 -0.0004057 -0.0009195 -0.0021299 -0.0017969 -0.0035865 -0.0001313 0.0010937 0.0001915 -0.0004066 0.0001955 -0.0004125 0.0001906 -0.0000102 -0.0001004 -0.0001313 0.0000498 -0.0003729
-0.0012175 -0.0015636 -0.0000040 -0.0001472 -0.0010201 -0.0023531 -0.0018028 -0.0037402 -0.0001324 0.0012217 0.0003866 0.0002960 0.0003503 0.0001760 0.0002800 0.0007142 -0.0005236 -0.0006421 -0.0003840 -0.0005713
-0.0013988 -0.0051663 0.0001227 0.0001149 -0.0012133 -0.0028558 -0.0019909 -0.0040831 -0.0000089 0.0015376 0.0007275 0.0016097 0.0005032 0.0005760 0.0005505 0.0011369 -0.0003627 -0.0004106 0.0000254 0.0000500
0.0023741 -0.0016399 0.0001699 0.0000078 -0.0013912 -0.0033708 -0.0021737 -0.0044411 0.0000727 0.0016136 0.0008686 0.0022092 0.0005365 0.0004762 0.0006285 0.0010272 -0.0002304 -0.0003093 0.0003663 0.0003065
0.0018434 0.0014202 0.0001137 -0.0001809 -0.0014494 -0.0036078 -0.0022235 -0.0044847 -0.0000017 0.0013361 0.0006547 0.0013306 0.0004326 0.0001265 0.0004095 0.0006209 -0.0004221 -0.0005877 -0.0000636 -0.0001421
0.0008352 -0.0111709 0.0000706 -0.0002473 -0.0015416 -0.0039356 -0.0022944 -0.0045382 -0.0001101 0.0010651 0.0003217 0.0000686 0.0002840 -0.0002504 0.0001848 -0.0000188 -0.0003132 -0.0003212 -0.0001058 -0.0001662
0.0157380 -0.0475610 0.0000316 -0.0002942 -0.0015927 -0.0040533 -0.0022334 -0.0045154 -0.0001536 0.0009961 0.0001105 -0.0005611 0.0002047 -0.0003943 0.0000916 -0.0003508 -0.0002170 -0.0001579 -0.0000937 -0.0000774
0.0050826 -0.0304319 0.0000211 -0.0002537 -0.0015259 -0.0037593 -0.0021482 -0.0042870 -0.0001621 0.0010603 -0.0000161 -0.0008964 0.0001402 -0.0004301 -0.0000261 -0.0003990 -0.0003115 -0.0002829 -0.0002107 -0.0002438
-0.0133185 0.0040282 0.0000389 -0.0002354 -0.0015430 -0.0037935 -0.0020817 -0.0042694 -0.0001757 0.0009824 -0.0000989 -0.0012127 0.0000713 -0.0006676 -0.0001048 -0.0005517 -0.0003400 -0.0004054 -0.0002385 -0.0004639
-0.0055531 0.0021400 0.0000391 -0.0003502 -0.0015728 -0.0039559 -0.0020085 -0.0043109 -0.0001913 0.0007711 -0.0001669 -0.0015593 0.0000177 -0.0010269 -0.0001232 -0.0009569 -0.0002423 -0.0004085 -0.0001728 -0.0004982
-0.0041760 -0.0000834 0.0000169 -0.0004881 -0.0015346 -0.0039159 -0.0019408 -0.0041857 -0.0002689 0.0005217 -0.0002161 -0.0017444 -0.0000155 -0.0011615 -0.0001538 -0.0011821 -0.0002099 -0.0004220 -0.0002064 -0.0005342
-0.0047053 0.0105376 0.0000192 -0.0004458 -0.0014448 -0.0037317 -0.0018537 -0.0040211 -0.0003914 0.0002362 -0.0002736 -0.0019128 -0.0000618 -0.0012976 -0.0002007 -0.0013481 -0.0001799 -0.0003588 -0.0002378 -0.0005510
0.0081950 -0.0103066 0.0000376 -0.0003695 -0.0013525 -0.0034801 -0.0018430 -0.0038133 -0.0004460 0.0001573 -0.0002993 -0.0019504 -0.0001089 -0.0013919 -0.0002263 -0.0013884 -0.0001594 -0.0002606 -0.0002706 -0.0005374
0.0121533 -0.0163379 0.0000313 -0.0003649 -0.0013127 -0.0033179 -0.0018528 -0.0036345 -0.0004782 0.0001779 -0.0003559 -0.0020538 -0.0001658 -0.0014888 -0.0002176 -0.0015248 0.0000420 0.0001976 -0.0001650 -0.0003379
0.0046530 -0.0005357 -0.0000234 -0.0005553 -0.0011999 -0.0030535 -0.0017552 -0.0035395 -0.0005380 0.0000252 -0.0003937 -0.0021911 -0.0002574 -0.0018522 -0.0002022 -0.0018650 0.0002636 0.0005243 -0.0000312 -0.0001700
0.0007380 -0.0025624 -0.0000712 -0.0008040 -0.0010979 -0.0029230 -0.0016421 -0.0036379 -0.0005615 -0.0001945 -0.0004014 -0.0023122 -0.0003247 -0.0022454 -0.0002051 -0.0020509 0.0002949 0.0004422 -0.0000099 -0.0002154
-0.0022731 -0.0001888 -0.0001227 -0.0009419 -0.0010775 -0.0029667 -0.0015496 -0.0038090 -0.0005505 -0.0003215 -0.0004051 -0.0023370 -0.0003159 -0.0022880 -0.0001809 -0.0019683 0.0003032 0.0004726 -0.0000050 -0.0001441
0.0017637 -0.0118245 -0.0001422 -0.0009588 -0.0010637 -0.0029722 -0.0014993 -0.0038371 -0.0005602 -0.0003763 -0.0004040 -0.0022889 -0.0002802 -0.0021087 -0.0002101 -0.0017738 0.0003331 0.0005814 0.0001294 0.0003686
-0.0000998 -0.0060683 -0.0001229 -0.0009095 -0.0010714 -0.0030100 -0.0015419 -0.0037049 -0.0005726 -0.0003528 -0.0004485 -0.0023544 -0.0003163 -0.0021439 -0.0002590 -0.0018379 0.0004626 0.0010324 0.0002799 0.0009913
-0.0021284 0.0012561 -0.0001383 -0.0009029 -0.0010991 -0.0030744 -0.0015740 -0.0035754 -0.0005408 -0.0002187 -0.0005937 -0.0027628 -0.0004657 -0.0025706 -0.0003011 -0.0021551 0.0005999 0.0014866 0.0003042 0.0010732
0.0025094 -0.0001530 -0.0001235 -0.0009047 -0.0011369 -0.0032149 -0.0014777 -0.0035385 -0.0005134 -0.0001700 -0.0006894 -0.0030834 -0.0005178 -0.0027469 -0.0003790 -0.0023479 0.0006131 0.0013942 0.0002589 0.0005922
-0.0028470 0.0044172 -0.0000930 -0.0009543 -0.0011430 -0.0033349 -0.0013624 -0.0035522 -0.0005058 -0.0002577 -0.0006603 -0.0030403 -0.0004564 -0.0026098 -0.0003934 -0.0023138 0.0005547 0.0011305 0.0001980 0.0001687
-0.0201614 0.0111711 -0.0001093 -0.0010182 -0.0010687 -0.0031717 -0.0012807 -0.0036257 -0.0004564 -0.0002355 -0.0006328 -0.0029840 -0.0004239 -0.0025579 -0.0003849 -0.0021556 0.0004889 0.0009992 0.0001741 0.0001129
-0.0151393 0.0104779 -0.0001152 -0.0010043 -0.0010033 -0.0029485 -0.0012852 -0.0036646 -0.0003527 -0.0000319 -0.0005921 -0.0028257 -0.0003758 -0.0024055 -0.0003606 -0.0019410 0.0004388 0.0009435 0.0001614 0.0001618
-0.0057779 -0.0044756 -0.0000797 -0.0008713 -0.0009842 -0.0028354 -0.0013595 -0.0036211 -0.0002854 0.0001666 -0.0005626 -0.0026412 -0.0003557 -0.0022017 -0.0003489 -0.0017810 0.0003702 0.0008608 0.0001506 0.0002137
0.0043061 -0.0018513 -0.0000256 -0.0006814 -0.0010545 -0.0029600 -0.0014486 -0.0035797 -0.0003084 0.0002310 -0.0005083 -0.0023535 -0.0003118 -0.0019178 -0.0003009 -0.0015361 0.0002714 0.0007839 0.0001750 0.0003248
0.0002336 0.0167659 0.0000184 -0.0006535 -0.0011863 -0.0032405 -0.0015394 -0.0035544 -0.0003549 0.0001611 -0.0004318 -0.0020808 -0.0001978 -0.0015204 -0.0002729 -0.0013590 0.0000917 0.0003377 0.0002638 -0.0000428
-0.0013091 0.0102854 0.0000482 -0.0006829 -0.0012538 -0.0034714 -0.0015104 -0.0036305 -0.0003966 -0.0000012 -0.0004360 -0.0022017 -0.0002107 -0.0016659 -0.0002707 -0.0015551 0.0000672 0.0001164 0.0003221 -0.0001316
0.0029501 -0.0099512 0.0000296 -0.0008094 -0.0012336 -0.0034872 -0.0014466 -0.0036339 -0.0004034 -0.0000714 -0.0004905 -0.0024170 -0.0003107 -0.0021060 -0.0002643 -0.0018436 0.0001842 0.0003747 0.0002791 0.0001610
-0.0055329 0.0068921 -0.0000205 -0.0009191 -0.0011845 -0.0032905 -0.0014431 -0.0034923 -0.0003643 0.0000085 -0.0005146 -0.0024152 -0.0003410 -0.0021864 -0.0003032 -0.0019414 0.0001831 0.0003823 0.0002297 0.0000626
-0.0050517 0.0157821 -0.0000201 -0.0008304 -0.0011429 -0.0030981 -0.0013619 -0.0035098 -0.0003262 0.0001289 -0.0005002 -0.0022628 -0.0003257 -0.0020212 -0.0002906 -0.0017869 0.0001339 0.0003197 0.0002171 0.0001374
-0.0028339 0.0027494 0.0000001 -0.0007361 -0.0011239 -0.0029811 -0.0013493 -0.0034869 -0.0003180 0.0002146 -0.0004744 -0.0020423 -0.0003146 -0.0018150 -0.0002657 -0.0015963 0.0000924 0.0003016 0.0002045 0.0002771
0.0001166 -0.0099365 0.0000174 -0.0006523 -0.0010965 -0.0028291 -0.0014295 -0.0033189 -0.0003130 0.0002486 -0.0003939 -0.0017463 -0.0002787 -0.0016348 -0.0001947 -0.0014180 0.0000638 0.0001757 0.0002026 0.0002782
0.0047295 -0.0068529 0.0000309 -0.0006775 -0.0010425 -0.0027076 -0.0014497 -0.0032670 -0.0003165 0.0001568 -0.0003083 -0.0015172 -0.0002455 -0.0015759 -0.0001405 -0.0013399 0.0000308 -0.0000235 0.0002018 0.0002166
-0.0002838 0.0132803 0.0000389 -0.0007213 -0.0010020 -0.0026783 -0.0013843 -0.0033162 -0.0003307 0.0000654 -0.0002886 -0.0014558 -0.0002614 -0.0016479 -0.0001580 -0.0013795 0.0000126 -0.0000844 0.0002100 0.0001950
-0.0011180 0.0121656 0.0000307 -0.0006634 -0.0009820 -0.0026130 -0.0012965 -0.0033240 -0.0003410 0.0000704 -0.0003062 -0.0014497 -0.0002755 -0.0016763 -0.0001849 -0.0014116 0.0000167 -0.0000481 0.0002209 0.0002166
0.0063524 -0.0190916 0.0000224 -0.0005698 -0.0009811 -0.0025615 -0.0012577 -0.0032454 -0.0003559 0.0001183 -0.0003172 -0.0014034 -0.0002903 -0.0016486 -0.0002289 -0.0014208 0.0000159 0.0000233 0.0002085 0.0003091
-0.0115026 0.0123630 0.0000327 -0.0004469 -0.0009901 -0.0025228 -0.0012993 -0.0030781 -0.0003706 0.0001842 -0.0003096 -0.0012860 -0.0002950 -0.0015597 -0.0002438 -0.0013200 -0.0000070 0.0000504 0.0002218 0.0004146
-0.0134067 0.0180112 0.0000527 -0.0003189 -0.0009979 -0.0025465 -0.0014011 -0.0029252 -0.0003908 0.0001510 -0.0002797 -0.0011933 -0.0002554 -0.0013568 -0.0002705 -0.0011378 -0.0001610 -0.0002495 0.0002061 0.0001026
0.0011357 -0.0043774 0.0000531 -0.0003442 -0.0009781 -0.0025986 -0.0014280 -0.0028752 -0.0004011 0.0000509 -0.0002588 -0.0012023 -0.0002347 -0.0012859 -0.0002813 -0.0010997 -0.0002576 -0.0004987 0.0001453 -0.0002103
0.0026339 0.0026065 0.0000344 -0.0004997 -0.0008872 -0.0023940 -0.0013498 -0.0028924 -0.0003247 0.0001590 -0.0001605 -0.0008791 -0.0001857 -0.0011719 -0.0001842 -0.0009230 -0.0002342 -0.0005026 0.0001349 -0.0000848
-0.0028330 0.0102495 0.0000173 -0.0005488 -0.0008091 -0.0021255 -0.0012683 -0.0029378 -0.0002247 0.0004172 -0.0000141 -0.0003440 -0.0001044 -0.0009151 -0.0001267 -0.0007291 -0.0002512 -0.0005052 0.0001294 0.0000028
-0.0073571 -0.0000494 0.0000128 -0.0004567 -0.0007914 -0.0020164 -0.0012566 -0.0029312 -0.0001975 0.0005576 -0.0000227 -0.0003008 -0.0000923 -0.0008268 -0.0001540 -0.0007510 -0.0002373 -0.0003874 0.0000954 0.0000645
0.0005590 -0.0061403 0.0000234 -0.0003304 -0.0008261 -0.0020490 -0.0013389 -0.0027616 -0.0002363 0.0005503 -0.0001042 -0.0004946 -0.0001006 -0.0008008 -0.0001775 -0.0008111 -0.0002147 -0.0003273 0.0000834 0.0000475
0.0021832 -0.0029382 0.0000356 -0.0003254 -0.0008916 -0.0022523 -0.0014125 -0.0026915 -0.0002886 0.0003881 -0.0001366 -0.0006283 -0.0001169 -0.0008619 -0.0001905 -0.0009464 -0.0001884 -0.0003686 0.0000859 -0.0000401
-0.0072779 0.0104949 0.0000441 -0.0004035 -0.0009104 -0.0024035 -0.0013968 -0.0028036 -0.0003100 0.0002164 -0.0001488 -0.0007603 -0.0001438 -0.0009784 -0.0001968 -0.0010442 -0.0001689 -0.0003945 0.0000683 -0.0001259
-0.0063693 0.0065150 0.0000249 -0.0004320 -0.0008659 -0.0023216 -0.0013436 -0.0028494 -0.0002994 0.0002131 -0.0001384 -0.0007373 -0.0001422 -0.0009866 -0.0001857 -0.0010021 -0.0001665 -0.0003937 0.0000726 -0.0001353
0.0016804 -0.0100472 0.0000213 -0.0003850 -0.0008676 -0.0023176 -0.0012775 -0.0028506 -0.0003006 0.0002425 -0.0001339 -0.0006789 -0.0001188 -0.0008837 -0.0001860 -0.0008002 -0.0001934 -0.0004131 0.0001357 -0.0000765
-0.0052695 0.0140538 0.0000256 -0.0002807 -0.0008789 -0.0022986 -0.0012238 -0.0028272 -0.0003083 0.0002791 -0.0001439 -0.0006417 -0.0000998 -0.0007658 -0.0002250 -0.0006271 -0.0002527 -0.0003987 0.0001608 -0.0001473
-0.0046187 0.0134041 0.0000238 -0.0002293 -0.0008758 -0.0022178 -0.0012061 -0.0027468 -0.0003194 0.0002678 -0.0001727 -0.0007054 -0.0000973 -0.0007798 -0.0002474 -0.0007365 -0.0002426 -0.0003738 0.0001194 -0.0002434
-0.0019584 0.0015874 0.0000265 -0.0003067 -0.0009296 -0.0024472 -0.0012284 -0.0027664 -0.0003450 0.0001083 -0.0002014 -0.0008579 -0.0001066 -0.0008843 -0.0002348 -0.0009134 -0.0001793 -0.0003815 0.0000991 -0.0002434
-0.0092614 0.0144090 0.0000232 -0.0003917 -0.0009485 -0.0026475 -0.0012690 -0.0028153 -0.0003567 -0.0000285 -0.0001956 -0.0009015 -0.0001049 -0.0009291 -0.0002300 -0.0009264 -0.0001633 -0.0003750 0.0000900 -0.0002311
-0.0050261 0.0118405 0.0000151 -0.0003828 -0.0009066 -0.0025794 -0.0012970 -0.0027321 -0.0003680 -0.0000661 -0.0001728 -0.0008323 -0.0000931 -0.0008745 -0.0002282 -0.0008405 -0.0001686 -0.0003383 0.0000932 -0.0001848
-0.0042666 0.0116832 0.0000113 -0.0003276 -0.0008485 -0.0023947 -0.0012695 -0.0026436 -0.0003681 -0.0000241 -0.0001548 -0.0007539 -0.0000772 -0.0007641 -0.0002128 -0.0006605 -0.0001771 -0.0002624 0.0000945 -0.0001462
-0.0063464 0.0120427 0.0000122 -0.0002515 -0.0008123 -0.0022105 -0.0011883 -0.0025962 -0.0003442 0.0000863 -0.0001355 -0.0006329 -0.0000497 -0.0006163 -0.0001880 -0.0004471 -0.0001829 -0.0001674 0.0000772 -0.0001173
-0.0059087 -0.0013682 -0.0000094 -0.0002992 -0.0007956 -0.0021403 -0.0011367 -0.0025825 -0.0003229 0.0000711 -0.0000984 -0.0005293 -0.0000172 -0.0005760 -0.0001621 -0.0004418 -0.0001785 -0.0002077 0.0000653 -0.0001536
-0.0009233 -0.0265253 -0.0000238 -0.0004652 -0.0007752 -0.0022001 -0.0011248 -0.0027128 -0.0002891 -0.0000223 -0.0000021 -0.0003387 0.0000530 -0.0005353 -0.0000735 -0.0003082 -0.0001935 -0.0003552 0.0000673 -0.0001946
0.0035891 -0.0224799 -0.0000217 -0.0004913 -0.0007250 -0.0021319 -0.0012427 -0.0028542 -0.0001828 0.0001672 0.0002145 0.0002711 0.0001559 -0.0002640 0.0000327 0.0000737 -0.0002682 -0.0005322 0.0001234 -0.0001774
0.0021520 -0.0066097 -0.0000331 -0.0004696 -0.0007160 -0.0021110 -0.0013819 -0.0029094 -0.0001335 0.0003051 0.0002530 0.0003704 0.0001366 -0.0002829 0.0000361 0.0000172 -0.0002621 -0.0004999 0.0001473 -0.0001329
0.0041599 -0.0153755 -0.0000525 -0.0005361 -0.0007819 -0.0022778 -0.0013801 -0.0029668 -0.0001726 0.0002349 0.0001190 -0.0000556 0.0000670 -0.0004606 0.0000068 -0.0001482 -0.0002027 -0.0003044 0.0001129 -0.0000384
0.0097293 -0.0364577 -0.0000897 -0.0005280 -0.0008132 -0.0022632 -0.0013069 -0.0029958 -0.0001620 0.0003268 0.0000949 -0.0000916 0.0000918 -0.0003882 0.0000221 -0.0000887 -0.0002028 -0.0002661 0.0000976 -0.0000303
0.0084058 -0.0364014 -0.0001271 -0.0006438 -0.0008085 -0.0022468 -0.0012243 -0.0030927 -0.0001452 0.0002894 0.0001020 -0.0001283 0.0001193 -0.0004538 0.0000434 -0.0002041 -0.0001722 -0.0003081 0.0000998 -0.0000520
0.0099969 -0.0260548 -0.0001248 -0.0008218 -0.0008217 -0.0024294 -0.0011859 -0.0033015 -0.0001614 0.0000593 0.0001005 -0.0003004 0.0001090 -0.0006655 0.0000776 -0.0003587 -0.0000372 -0.0001411 0.0002103 0.0003843
-0.0021486 0.0058073 -0.0001521 -0.0009999 -0.0008320 -0.0025526 -0.0012634 -0.0033051 -0.0001886 -0.0001025 0.0000175 -0.0006466 -0.0000139 -0.0011148 0.0000646 -0.0006890 0.0001869 0.0003490 0.0002957 0.0007852
-0.0190102 0.0184883 -0.0001449 -0.0009977 -0.0008552 -0.0026529 -0.0013504 -0.0033151 -0.0002119 -0.0001670 -0.0000613 -0.0008903 -0.0000641 -0.0012439 0.0000293 -0.0008142 0.0002326 0.0003267 0.0003434 0.0005483
-0.0068967 0.0042736 -0.0001081 -0.0007674 -0.0008809 -0.0027636 -0.0013100 -0.0033731 -0.0002409 -0.0001841 -0.0001327 -0.0010890 -0.0000289 -0.0010927 -0.0000065 -0.0007442 0.0001609 0.0000990 0.0003833 0.0003066
-0.0076901 0.0087885 -0.0001037 -0.0006683 -0.0008980 -0.0028091 -0.0012157 -0.0032517 -0.0002844 -0.0002006 -0.0002732 -0.0015312 -0.0000774 -0.0012648 -0.0000810 -0.0010039 0.0001588 0.0001392 0.0003370 0.0001959
-0.0067970 0.0116467 -0.0000868 -0.0007878 -0.0009173 -0.0029353 -0.0011003 -0.0033455 -0.0002929 -0.0003086 -0.0003152 -0.0017734 -0.0000808 -0.0014336 -0.0001031 -0.0012516 0.0001453 -0.0000041 0.0002933 0.0000420
0.0030606 0.0081464 -0.0000705 -0.0009923 -0.0009355 -0.0031278 -0.0010722 -0.0034865 -0.0002775 -0.0004824 -0.0002741 -0.0017831 -0.0000240 -0.0014056 -0.0001255 -0.0010823 -0.0000712 -0.0004883 0.0002007 -0.0003692
0.0040790 0.0029427 -0.0000222 -0.0008761 -0.0009445 -0.0032671 -0.0011457 -0.0034443 -0.0002830 -0.0005958 -0.0001788 -0.0015475 0.0000456 -0.0011453 -0.0000707 -0.0005690 -0.0003296 -0.0008361 0.0001214 -0.0006040
0.0081842 -0.0049670 0.0000127 -0.0008279 -0.0009175 -0.0032062 -0.0011608 -0.0033302 -0.0002860 -0.0006284 -0.0001584 -0.0014654 0.0000269 -0.0011690 -0.0000447 -0.0006806 -0.0002682 -0.0006484 0.0001079 -0.0003964
0.0043275 0.0040153 0.0000192 -0.0009039 -0.0008696 -0.0030114 -0.0011200 -0.0031580 -0.0002848 -0.0005988 -0.0002089 -0.0015455 -0.0000378 -0.0013831 -0.0001556 -0.0011939 -0.0001419 -0.0004518 0.0000934 -0.0002471
-0.0071332 0.0212666 0.0000273 -0.0008078 -0.0008396 -0.0029034 -0.0010822 -0.0030823 -0.0002814 -0.0005357 -0.0001945 -0.0014439 -0.0000451 -0.0013923 -0.0002148 -0.0013368 -0.0001141 -0.0003893 0.0000887 -0.0002310
-0.0138122 0.0198558 0.0000203 -0.0008297 -0.0008249 -0.0029289 -0.0010260 -0.0031495 -0.0002457 -0.0005559 -0.0001615 -0.0014176 -0.0000344 -0.0014224 -0.0002122 -0.0014081 -0.0001033 -0.0004672 0.0000877 -0.0003339
-0.0088625 -0.0005436 0.0000162 -0.0009263 -0.0008172 -0.0030617 -0.0010204 -0.0032216 -0.0002184 -0.0007036 -0.0001600 -0.0015324 -0.0000258 -0.0015473 -0.0002136 -0.0015432 -0.0000900 -0.0005525 0.0000805 -0.0004229
0.0011727 -0.0111296 0.0000284 -0.0009420 -0.0008117 -0.0031579 -0.0010007 -0.0033041 -0.0002179 -0.0008122 -0.0001844 -0.0016309 -0.0000324 -0.0016167 -0.0002169 -0.0016049 -0.0000802 -0.0005487 0.0000540 -0.0004351
0.0049381 -0.0290592 0.0000352 -0.0008756 -0.0007835 -0.0031311 -0.0009631 -0.0033262 -0.0002088 -0.0008251 -0.0001850 -0.0016196 -0.0000396 -0.0015860 -0.0002112 -0.0015629 -0.0000790 -0.0004970 0.0000337 -0.0003779
-0.0048914 -0.0003189 0.0000373 -0.0007828 -0.0007499 -0.0030339 -0.0009810 -0.0032128 -0.0001968 -0.0007633 -0.0001716 -0.0015342 -0.0000470 -0.0015168 -0.0002183 -0.0014921 -0.0000774 -0.0004258 0.0000426 -0.0003070
-0.0047401 0.0159097 0.0000487 -0.0006751 -0.0007354 -0.0029538 -0.0010011 -0.0030770 -0.0001986 -0.0006840 -0.0001659 -0.0014332 -0.0000581 -0.0014119 -0.0002294 -0.0013981 -0.0000817 -0.0003658 0.0000593 -0.0002214
-0.0065694 0.0250203 0.0000650 -0.0005985 -0.0007133 -0.0028970 -0.0009253 -0.0030510 -0.0002117 -0.0007196 -0.0001521 -0.0014050 -0.0000431 -0.0013981 -0.0002251 -0.0014623 -0.0001111 -0.0005200 0.0000658 -0.0002592
0.0002310 0.0137848 0.0000798 -0.0005927 -0.0006644 -0.0028563 -0.0008339 -0.0030823 -0.0002544 -0.0009367 -0.0001607 -0.0015315 -0.0000197 -0.0014764 -0.0002258 -0.0016161 -0.0001345 -0.0007209 0.0000566 -0.0004152
0.0009858 0.0034077 0.0000804 -0.0005988 -0.0005893 -0.0027391 -0.0007752 -0.0030529 -0.0003005 -0.0011102 -0.0002103 -0.0017137 -0.0000397 -0.0015913 -0.0002748 -0.0016914 -0.0001363 -0.0007264 0.0000320 -0.0004905
-0.0154712 0.0184640 0.0000526 -0.0006190 -0.0004911 -0.0024634 -0.0007278 -0.0028788 -0.0003190 -0.0011403 -0.0002364 -0.0017720 -0.0000733 -0.0016998 -0.0003148 -0.0017321 -0.0001374 -0.0006700 0.0000075 -0.0004789
-0.0051743 0.0098833 0.0000340 -0.0004813 -0.0004237 -0.0022734 -0.0007873 -0.0026873 -0.0003366 -0.0011145 -0.0002102 -0.0016569 -0.0000540 -0.0014947 -0.0003180 -0.0014084 -0.0002295 -0.0006677 0.0001437 -0.0002832
0.0007641 0.0054433 0.0000625 -0.0003537 -0.0003563 -0.0020476 -0.0008252 -0.0024498 -0.0002969 -0.0009470 -0.0002426 -0.0017125 -0.0001134 -0.0015669 -0.0002423 -0.0013632 0.0000036 -0.0000403 0.0003497 0.0002198
-0.0061997 0.0121972 0.0000904 -0.0004526 -0.0002711 -0.0017269 -0.0006983 -0.0022546 -0.0002379 -0.0008189 -0.0003134 -0.0019577 -0.0001872 -0.0018967 -0.0001572 -0.0016981 0.0002378 0.0002086 0.0003434 0.0002932
-0.0148950 0.0224768 0.0001091 -0.0005030 -0.0002549 -0.0017438 -0.0005826 -0.0023616 -0.0002301 -0.0008818 -0.0003207 -0.0020562 -0.0001462 -0.0018930 -0.0001547 -0.0017220 0.0001353 -0.0002689 0.0002399 -0.0000357
-0.0113724 0.0125583 0.0001225 -0.0003456 -0.0002633 -0.0018828 -0.0005663 -0.0024869 -0.0002340 -0.0009432 -0.0002313 -0.0017648 -0.0000025 -0.0014148 -0.0002163 -0.0012377 -0.0003376 -0.0010372 -0.0003440 -0.0007541
0.0054912 -0.0122207 0.0001098 -0.0001655 -0.0002433 -0.0018428 -0.0006141 -0.0023878 -0.0001990 -0.0008882 -0.0001955 -0.0016008 0.0000188 -0.0013324 -0.0001913 -0.0011874 -0.0001709 -0.0004619 -0.0001457 0.0000542
0.0096168 -0.0216879 0.0000408 -0.0004050 -0.0002197 -0.0016514 -0.0006407 -0.0022016 -0.0001393 -0.0007177 -0.0002695 -0.0017788 -0.0001080 -0.0016944 -0.0001148 -0.0015412 0.0003558 0.0004631 0.0004990 0.0010041
0.0044444 -0.0269889 0.0000231 -0.0005934 -0.0002350 -0.0015692 -0.0006535 -0.0020880 -0.0001144 -0.0005472 -0.0003109 -0.0018309 -0.0001203 -0.0016024 -0.0001220 -0.0014610 0.0002234 0.0000396 0.0003933 0.0005015
0.0004266 -0.0082319 0.0000737 -0.0004478 -0.0002663 -0.0016123 -0.0006081 -0.0020887 -0.0001218 -0.0005180 -0.0003337 -0.0019059 -0.0001064 -0.0015736 -0.0001333 -0.0015493 0.0001380 -0.0002215 0.0003237 0.0002744
0.0011050 -0.0013601 0.0000348 -0.0005898 -0.0002525 -0.0016076 -0.0005400 -0.0021522 -0.0001132 -0.0006037 -0.0003203 -0.0019671 -0.0001014 -0.0016642 -0.0001283 -0.0016915 0.0000987 -0.0004918 0.0002919 0.0000477
0.0109230 -0.0087395 0.0000889 -0.0006097 -0.0002755 -0.0017955 -0.0005024 -0.0023238 -0.0000971 -0.0006712 -0.0002363 -0.0017545 -0.0000039 -0.0014044 -0.0001951 -0.0014017 -0.0003074 -0.0011645 0.0000337 -0.0004136
0.0119850 -0.0152377 0.0001486 -0.0003176 -0.0003625 -0.0020992 -0.0005097 -0.0023915 -0.0000986 -0.0006726 -0.0002100 -0.0016453 0.0000466 -0.0012084 -0.0002383 -0.0012124 -0.0005414 -0.0014507 -0.0000600 -0.0007256
0.0087088 -0.0311150 0.0000620 -0.0003815 -0.0003749 -0.0020264 -0.0005193 -0.0022164 -0.0001006 -0.0005893 -0.0003015 -0.0018569 0.0000091 -0.0012701 -0.0001906 -0.0013299 -0.0003375 -0.0011269 0.0001034 -0.0005179
-0.0038430 -0.0044155 -0.0000068 -0.0005589 -0.0003206 -0.0016869 -0.0005227 -0.0020231 -0.0001016 -0.0004796 -0.0003165 -0.0018091 0.0000116 -0.0011747 -0.0001609 -0.0012029 -0.0002987 -0.0010154 0.0000783 -0.0003824
-0.0070394 0.0071740 -0.0000197 -0.0005016 -0.0003008 -0.0015210 -0.0006105 -0.0018680 -0.0001025 -0.0004326 -0.0002655 -0.0016444 -0.0000026 -0.0011723 -0.0001508 -0.0011945 -0.0002635 -0.0009552 0.0000701 -0.0004329
0.0009492 0.0046423 0.0000156 -0.0005551 -0.0003114 -0.0016160 -0.0006394 -0.0019280 -0.0001012 -0.0005064 -0.0002485 -0.0016944 -0.0000241 -0.0013181 -0.0001576 -0.0013496 -0.0002163 -0.0009697 0.0000760 -0.0005630
0.0066584 -0.0102841 0.0000101 -0.0007102 -0.0003422 -0.0018202 -0.0005354 -0.0020853 -0.0001035 -0.0006189 -0.0002388 -0.0017325 -0.0000291 -0.0014376 -0.0001685 -0.0014214 -0.0001616 -0.0008948 0.0000907 -0.0005947
0.0064465 -0.0183159 0.0000096 -0.0007720 -0.0003957 -0.0020077 -0.0004509 -0.0021536 -0.0001078 -0.0006239 -0.0002676 -0.0018017 -0.0000600 -0.0015582 -0.0002128 -0.0014937 -0.0001002 -0.0007183 0.0001045 -0.0005267
-0.0010581 -0.0039087 0.0000524 -0.0007131 -0.0004482 -0.0021272 -0.0004462 -0.0022013 -0.0000990 -0.0005552 -0.0002999 -0.0018228 -0.0000777 -0.0015963 -0.0002366 -0.0014660 -0.0000662 -0.0005811 0.0000983 -0.0004354
-0.0056059 -0.0027544 0.0000543 -0.0006152 -0.0004461 -0.0020050 -0.0005348 -0.0020457 -0.0000839 -0.0004500 -0.0002764 -0.0016394 -0.0000508 -0.0013996 -0.0002024 -0.0012369 -0.0000653 -0.0005222 0.0000940 -0.0002646
-0.0024172 0.0075604 0.0000067 -0.0006139 -0.0003755 -0.0016791 -0.0006257 -0.0018026 -0.0000779 -0.0003908 -0.0002457 -0.0014987 -0.0000383 -0.0012449 -0.0001751 -0.0011812 -0.0000762 -0.0006088 0.0001048 -0.0002083
-0.0015242 0.0054159 -0.0000530 -0.0007845 -0.0003144 -0.0015229 -0.0006076 -0.0017944 -0.0000762 -0.0004577 -0.0002431 -0.0015542 -0.0000455 -0.0013066 -0.0001828 -0.0013567 -0.0000821 -0.0007612 0.0001095 -0.0003171
0.0081076 -0.0298312 -0.0001065 -0.0009609 -0.0002894 -0.0015334 -0.0005376 -0.0018772 -0.0000701 -0.0005082 -0.0002526 -0.0016217 -0.0000501 -0.0013747 -0.0001943 -0.0014302 -0.0000895 -0.0008224 0.0001195 -0.0003279
0.0043059 -0.0092465 -0.0001214 -0.0009796 -0.0002803 -0.0015129 -0.0004531 -0.0018777 -0.0000678 -0.0004912 -0.0002584 -0.0016030 -0.0000567 -0.0013662 -0.0002101 -0.0014236 -0.0000971 -0.0008189 0.0001187 -0.0002915
-0.0021471 0.0202911 -0.0001089 -0.0009121 -0.0002826 -0.0014856 -0.0004139 -0.0018415 -0.0000726 -0.0004560 -0.0002625 -0.0015590 -0.0000589 -0.0013256 -0.0002248 -0.0013667 -0.0000994 -0.0007653 0.0001035 -0.0002471
-0.0038268 0.0244257 -0.0000912 -0.0008224 -0.0002827 -0.0014092 -0.0004672 -0.0016913 -0.0000898 -0.0004051 -0.0002700 -0.0014940 -0.0000644 -0.0012494 -0.0002311 -0.0012854 -0.0001049 -0.0007020 0.0000961 -0.0001897
0.0024491 0.0014495 -0.0000712 -0.0007894 -0.0002692 -0.0013262 -0.0005017 -0.0015618 -0.0000996 -0.0004194 -0.0002769 -0.0015358 -0.0000714 -0.0012298 -0.0002275 -0.0013458 -0.0001104 -0.0007711 0.0000831 -0.0002607
0.0062249 -0.0155072 -0.0000678 -0.0008710 -0.0002569 -0.0013782 -0.0004912 -0.0015872 -0.0000992 -0.0004990 -0.0002792 -0.0016350 -0.0000772 -0.0012894 -0.0002315 -0.0014941 -0.0001130 -0.0008742 0.0000758 -0.0003856
0.0076347 -0.0161981 -0.0000733 -0.0009581 -0.0002500 -0.0014463 -0.0005067 -0.0015749 -0.0001106 -0.0005467 -0.0002877 -0.0016600 -0.0000920 -0.0013179 -0.0002452 -0.0015343 -0.0001096 -0.0008512 0.0000742 -0.0003991
0.0177096 -0.0371179 -0.0000777 -0.0009443 -0.0002356 -0.0013881 -0.0004655 -0.0015484 -0.0001344 -0.0005555 -0.0002948 -0.0016493 -0.0000958 -0.0013000 -0.0002552 -0.0015041 -0.0000934 -0.0007469 0.0000732 -0.0003436
0.0015481 0.0000336 -0.0000784 -0.0009066 -0.0002139 -0.0012652 -0.0003831 -0.0014704 -0.0001695 -0.0005713 -0.0002989 -0.0015983 -0.0001017 -0.0012579 -0.0002688 -0.0014178 -0.0000778 -0.0006064 0.0000905 -0.0002437
0.0045095 -0.0034933 -0.0001032 -0.0008523 -0.0001759 -0.0010695 -0.0003234 -0.0013199 -0.0001982 -0.0005704 -0.0003063 -0.0015180 -0.0001190 -0.0011989 -0.0002726 -0.0013499 -0.0000645 -0.0005090 0.0000954 -0.0001890
0.0018541 -0.0045070 -0.0001150 -0.0009307 -0.0001468 -0.0009954 -0.0002998 -0.0013196 -0.0002072 -0.0006541 -0.0003107 -0.0015623 -0.0001266 -0.0012804 -0.0002709 -0.0014746 -0.0000480 -0.0005583 0.0000688 -0.0002496
-0.0070548 0.0057493 -0.0001127 -0.0011303 -0.0001290 -0.0010795 -0.0003548 -0.0013590 -0.0002054 -0.0008103 -0.0003064 -0.0016764 -0.0001185 -0.0014097 -0.0002607 -0.0016036 -0.0000415 -0.0006603 0.0000668 -0.0003212
-0.0108388 0.0109779 -0.0001146 -0.0012252 -0.0001028 -0.0010954 -0.0004056 -0.0013444 -0.0002052 -0.0008801 -0.0002976 -0.0016874 -0.0001181 -0.0014066 -0.0002432 -0.0015754 -0.0000438 -0.0006770 0.0000870 -0.0003111
-0.0151791 0.0113218 -0.0001191 -0.0011988 -0.0000739 -0.0010003 -0.0003908 -0.0013163 -0.0001998 -0.0008604 -0.0002914 -0.0016464 -0.0001227 -0.0013491 -0.0002270 -0.0014972 -0.0000517 -0.0006630 0.0000997 -0.0002611
0.0117925 -0.0382537 -0.0001177 -0.0011238 -0.0000464 -0.0008656 -0.0003364 -0.0012546 -0.0001948 -0.0007643 -0.0002926 -0.0015864 -0.0001159 -0.0012599 -0.0002187 -0.0013838 -0.0000622 -0.0006177 0.0001040 -0.0001830
-0.0047236 0.0080261 -0.0001036 -0.0010364 -0.0000321 -0.0007516 -0.0002486 -0.0012249 -0.0001905 -0.0006651 -0.0002985 -0.0015559 -0.0001070 -0.0012090 -0.0002116 -0.0013849 -0.0000638 -0.0006453 0.0000915 -0.0001837
-0.0078276 0.0151255 -0.0000941 -0.0011015 -0.0000287 -0.0007894 -0.0002403 -0.0012809 -0.0001798 -0.0007245 -0.0003013 -0.0016233 -0.0000995 -0.0012687 -0.0002037 -0.0015147 -0.0000587 -0.0007604 0.0000768 -0.0002837
0.0109114 -0.0218437 -0.0000859 -0.0012509 -0.0000256 -0.0008979 -0.0003001 -0.0013142 -0.0001736 -0.0008383 -0.0003012 -0.0016866 -0.0000960 -0.0013208 -0.0001935 -0.0015669 -0.0000509 -0.0007936 0.0000855 -0.0003234
0.0101653 -0.0230698 -0.0000778 -0.0012897 -0.0000234 -0.0009195 -0.0003383 -0.0012879 -0.0001741 -0.0008523 -0.0003005 -0.0016721 -0.0001017 -0.0013082 -0.0001938 -0.0015385 -0.0000426 -0.0007253 0.0001059 -0.0002897
0.0010832 0.0031891 -0.0000798 -0.0012567 -0.0000251 -0.0008928 -0.0003544 -0.0012384 -0.0001770 -0.0008063 -0.0003002 -0.0016215 -0.0001124 -0.0012456 -0.0002023 -0.0014738 -0.0000383 -0.0006372 0.0001169 -0.0002267
-0.0045999 0.0091397 -0.0000775 -0.0011786 -0.0000278 -0.0008107 -0.0003400 -0.0011423 -0.0001793 -0.0007110 -0.0002964 -0.0015445 -0.0001145 -0.0011430 -0.0002004 -0.0013653 -0.0000364 -0.0005401 0.0001208 -0.0001368
-0.0020593 0.0019325 -0.0000677 -0.0011412 -0.0000331 -0.0007341 -0.0002730 -0.0011396 -0.0001835 -0.0006800 -0.0002948 -0.0015557 -0.0001053 -0.0011471 -0.0001995 -0.0014049 -0.0000329 -0.0005589 0.0001130 -0.0001533
-0.0000961 -0.0042093 -0.0000750 -0.0012494 -0.0000359 -0.0007925 -0.0002486 -0.0012005 -0.0001857 -0.0007685 -0.0002981 -0.0016546 -0.0000916 -0.0012497 -0.0002034 -0.0015418 -0.0000236 -0.0006404 0.0001002 -0.0002353
-0.0028992 -0.0116708 -0.0000776 -0.0013724 -0.0000299 -0.0008555 -0.0002910 -0.0011894 -0.0001952 -0.0008535 -0.0002998 -0.0016975 -0.0000918 -0.0012749 -0.0002009 -0.0015658 -0.0000113 -0.0006127 0.0001029 -0.0002427
0.0045536 -0.0058739 -0.0000695 -0.0013717 -0.0000198 -0.0008152 -0.0002870 -0.0011577 -0.0002174 -0.0008768 -0.0002984 -0.0016670 -0.0000941 -0.0012391 -0.0001921 -0.0015118 0.0000031 -0.0005235 0.0001048 -0.0001827
-0.0059422 0.0153216 -0.0000706 -0.0013258 -0.0000002 -0.0007187 -0.0003095 -0.0010625 -0.0002362 -0.0008447 -0.0002952 -0.0016060 -0.0000970 -0.0011854 -0.0001875 -0.0014265 0.0000142 -0.0004172 0.0000950 -0.0000796
-0.0115430 0.0247646 -0.0000653 -0.0012424 0.0000225 -0.0005811 -0.0003493 -0.0009419 -0.0002470 -0.0007630 -0.0002938 -0.0015384 -0.0000984 -0.0011061 -0.0001812 -0.0013722 0.0000166 -0.0003677 0.0001122 -0.0000614
-0.0014515 0.0047196 -0.0000474 -0.0013061 0.0000304 -0.0005750 -0.0003135 -0.0009870 -0.0002463 -0.0008013 -0.0002948 -0.0015977 -0.0000920 -0.0011589 -0.0001792 -0.0014615 0.0000192 -0.0004444 0.0001298 -0.0001491
-0.0050952 0.0077606 -0.0000467 -0.0014598 0.0000264 -0.0006883 -0.0002754 -0.0011010 -0.0002425 -0.0009327 -0.0002956 -0.0017087 -0.0000817 -0.0012680 -0.0001744 -0.0015614 0.0000298 -0.0005126 0.0001260 -0.0002075
-0.0078281 0.0113995 -0.0000529 -0.0014884 0.0000292 -0.0007341 -0.0002264 -0.0012063 -0.0002446 -0.0009790 -0.0002983 -0.0017341 -0.0000733 -0.0012968 -0.0001671 -0.0015512 0.0000370 -0.0004882 0.0001156 -0.0001922
-0.0098456 0.0026563 -0.0000510 -0.0014577 0.0000364 -0.0006974 -0.0002061 -0.0012393 -0.0002460 -0.0009567 -0.0003044 -0.0017130 -0.0000765 -0.0012664 -0.0001594 -0.0014722 0.0000405 -0.0004256 0.0001049 -0.0001310
-0.0064822 0.0098242 -0.0000478 -0.0013779 0.0000455 -0.0006092 -0.0002555 -0.0011318 -0.0002492 -0.0008933 -0.0003044 -0.0016565 -0.0000843 -0.0012019 -0.0001496 -0.0013740 0.0000450 -0.0003390 0.0001034 -0.0000470
-0.0122386 0.0128049 -0.0000341 -0.0012956 0.0000575 -0.0005118 -0.0003017 -0.0010270 -0.0002479 -0.0008277 -0.0003042 -0.0016586 -0.0000991 -0.0012199 -0.0001557 -0.0014561 0.0000504 -0.0003517 0.0001067 -0.0001217
-0.0038877 0.0040808 -0.0000217 -0.0013999 0.0000592 -0.0005707 -0.0002782 -0.0011011 -0.0002414 -0.0009026 -0.0003112 -0.0017816 -0.0001098 -0.0013496 -0.0001588 -0.0016384 0.0000577 -0.0004674 0.0001188 -0.0002803
0.0099817 -0.0173657 -0.0000242 -0.0015668 0.0000622 -0.0007114 -0.0002277 -0.0012429 -0.0002398 -0.0010404 -0.0003173 -0.0018895 -0.0001075 -0.0014586 -0.0001503 -0.0017026 0.0000575 -0.0005221 0.0001204 -0.0003391
0.0083369 -0.0154937 -0.0000280 -0.0015897 0.0000730 -0.0007394 -0.0001703 -0.0013445 -0.0002408 -0.0010782 -0.0003198 -0.0019138 -0.0001036 -0.0014945 -0.0001455 -0.0016665 0.0000571 -0.0004913 0.0001039 -0.0003444
0.0022567 -0.0025343 -0.0000348 -0.0015777 0.0000790 -0.0006848 -0.0001724 -0.0013200 -0.0002357 -0.0010471 -0.0003208 -0.0018932 -0.0001065 -0.0014999 -0.0001475 -0.0016029 0.0000631 -0.0004126 0.0000818 -0.0003106
-0.0046350 0.0124059 -0.0000785 -0.0015853 0.0000924 -0.0005588 -0.0002467 -0.0011817 -0.0002250 -0.0009754 -0.0003232 -0.0018465 -0.0001219 -0.0014665 -0.0001454 -0.0015263 0.0000758 -0.0002955 0.0000778 -0.0002286
0.0033661 0.0094225 -0.0001194 -0.0016032 0.0000983 -0.0004637 -0.0002642 -0.0011110 -0.0002201 -0.0009504 -0.0003170 -0.0018513 -0.0001323 -0.0014955 -0.0001373 -0.0015905 0.0000964 -0.0002672 0.0000886 -0.0002597
0.0036409 0.0023241 -0.0001481 -0.0018150 0.0001025 -0.0005228 -0.0002462 -0.0011342 -0.0002196 -0.0010555 -0.0003119 -0.0019484 -0.0001344 -0.0016395 -0.0001235 -0.0017560 0.0001212 -0.0003248 0.0000949 -0.0003755
-0.0076642 0.0080759 -0.0001582 -0.0019961 0.0001059 -0.0006602 -0.0002126 -0.0012844 -0.0002182 -0.0011600 -0.0003144 -0.0020367 -0.0001308 -0.0017686 -0.0001244 -0.0017938 0.0001365 -0.0003134 0.0000986 -0.0004152
0.0023007 -0.0161958 -0.0001469 -0.0019442 0.0000983 -0.0007173 -0.0001653 -0.0013661 -0.0002123 -0.0011471 -0.0003208 -0.0020592 -0.0001272 -0.0017898 -0.0001308 -0.0017207 0.0001326 -0.0002523 0.0000903 -0.0003999
0.0030545 -0.0056697 -0.0001427 -0.0018847 0.0001048 -0.0006402 -0.0001590 -0.0012854 -0.0002040 -0.0010687 -0.0003246 -0.0020231 -0.0001200 -0.0017391 -0.0001257 -0.0016089 0.0001231 -0.0002029 0.0000855 -0.0003516
-0.0018681 0.0061675 -0.0001520 -0.0018194 0.0001319 -0.0004500 -0.0001361 -0.0011845 -0.0001915 -0.0009513 -0.0003299 -0.0019543 -0.0001164 -0.0016513 -0.0001188 -0.0014915 0.0001171 -0.0001354 0.0000729 -0.0002730
-0.0013513 0.0011965 -0.0001799 -0.0017750 0.0001603 -0.0002614 -0.0001083 -0.0010965 -0.0001796 -0.0008906 -0.0003340 -0.0019589 -0.0001259 -0.0016591 -0.0001122 -0.0015520 0.0001181 -0.0001684 0.0000433 -0.0003144
0.0001090 0.0002684 -0.0002059 -0.0018937 0.0001786 -0.0002522 -0.0001246 -0.0010868 -0.0001677 -0.0009363 -0.0003325 -0.0020507 -0.0001325 -0.0017986 -0.0001178 -0.0017824 0.0001309 -0.0002581 0.0000221 -0.0004525
-0.0068840 0.0042741 -0.0002320 -0.0020270 0.0001975 -0.0003025 -0.0001322 -0.0011416 -0.0001500 -0.0009692 -0.0003401 -0.0021302 -0.0001676 -0.0019510 -0.0001537 -0.0019799 0.0001809 -0.0001551 0.0000306 -0.0004088
-0.0108553 0.0130480 -0.0002573 -0.0020387 0.0002269 -0.0002186 -0.0000782 -0.0011367 -0.0001400 -0.0009296 -0.0003668 -0.0021907 -0.0002265 -0.0021486 -0.0001904 -0.0021405 0.0002855 0.0001847 0.0001158 -0.0001071
-0.0110106 0.0040811 -0.0002823 -0.0020236 0.0002530 -0.0000702 -0.0000339 -0.0010399 -0.0001387 -0.0008476 -0.0004026 -0.0022415 -0.0002667 -0.0022814 -0.0001938 -0.0021692 0.0003859 0.0005648 0.0002371 0.0003543
-0.0140462 0.0019875 -0.0002896 -0.0019508 0.0002630 0.0000506 -0.0000212 -0.0009281 -0.0001379 -0.0007463 -0.0004210 -0.0022162 -0.0002853 -0.0022492 -0.0001906 -0.0020877 0.0004310 0.0007894 0.0002761 0.0006518
-0.0148681 0.0130709 -0.0002837 -0.0019529 0.0002728 0.0001211 -0.0000376 -0.0008714 -0.0001324 -0.0007475 -0.0004257 -0.0022568 -0.0002979 -0.0023222 -0.0001933 -0.0022017 0.0004597 0.0008215 0.0002880 0.0006627
-0.0023130 0.0010489 -0.0002882 -0.0020879 0.0002930 0.0001188 -0.0000870 -0.0008720 -0.0001267 -0.0008344 -0.0004385 -0.0024081 -0.0003398 -0.0025525 -0.0002009 -0.0024384 0.0005190 0.0009275 0.0003631 0.0007361
0.0025896 0.0094178 -0.0003266 -0.0022105 0.0003205 0.0001409 -0.0001001 -0.0008391 -0.0001234 -0.0008610 -0.0004770 -0.0025649 -0.0004269 -0.0028291 -0.0002241 -0.0026422 0.0006237 0.0013240 0.0004994 0.0011137
-0.0013153 0.0113358 -0.0003718 -0.0022305 0.0003546 0.0002720 -0.0000601 -0.0007742 -0.0001246 -0.0008124 -0.0005121 -0.0026633 -0.0004921 -0.0030156 -0.0002337 -0.0027273 0.0007080 0.0016869 0.0006159 0.0014893
-0.0090034 0.0103579 -0.0003828 -0.0021500 0.0003747 0.0003988 -0.0000109 -0.0007288 -0.0001296 -0.0007249 -0.0005306 -0.0026560 -0.0004898 -0.0030070 -0.0002236 -0.0026266 0.0007241 0.0018978 0.0006795 0.0017442
-0.0126784 0.0097036 -0.0003743 -0.0020226 0.0003708 0.0004798 0.0000185 -0.0006555 -0.0001323 -0.0006191 -0.0005437 -0.0026043 -0.0004829 -0.0029305 -0.0002198 -0.0025143 0.0007265 0.0020699 0.0007244 0.0019968
-0.0034860 -0.0059888 -0.0003432 -0.0020063 0.0003661 0.0004907 -0.0000057 -0.0005987 -0.0001303 -0.0006199 -0.0005481 -0.0026391 -0.0004800 -0.0029546 -0.0002109 -0.0025952 0.0007323 0.0020267 0.0007513 0.0020786
0.0056673 -0.0176696 -0.0003226 -0.0021067 0.0003721 0.0003904 -0.0000378 -0.0006652 -0.0001257 -0.0007281 -0.0005476 -0.0027495 -0.0004836 -0.0030717 -0.0001988 -0.0027793 0.0007579 0.0019688 0.0007667 0.0020552
0.0125164 -0.0534177 -0.0003303 -0.0021277 0.0003893 0.0003296 -0.0000326 -0.0007306 -0.0001161 -0.0007610 -0.0005488 -0.0028076 -0.0004972 -0.0031288 -0.0001823 -0.0028353 0.0007865 0.0020209 0.0007841 0.0020805
-0.0146704 -0.0063013 -0.0003351 -0.0020736 0.0004095 0.0003866 -0.0000223 -0.0006755 -0.0001173 -0.0007300 -0.0005452 -0.0027770 -0.0004932 -0.0030965 -0.0001816 -0.0027767 0.0007862 0.0020007 0.0007766 0.0020849
-0.0043037 0.0053396 -0.0003219 -0.0019900 0.0004377 0.0005207 -0.0000014 -0.0005518 -0.0001331 -0.0006754 -0.0005315 -0.0026508 -0.0004710 -0.0029291 -0.0002060 -0.0025768 0.0007592 0.0019406 0.0007297 0.0020448
0.0057124 0.0022168 -0.0003070 -0.0018955 0.0004629 0.0006855 0.0000520 -0.0004446 -0.0001400 -0.0005930 -0.0005256 -0.0025399 -0.0004472 -0.0027724 -0.0002115 -0.0024002 0.0007338 0.0019202 0.0006943 0.0019820
0.0044985 -0.0085420 -0.0003110 -0.0018800 0.0004750 0.0007619 0.0000693 -0.0003911 -0.0001383 -0.0006125 -0.0005295 -0.0025704 -0.0004365 -0.0027711 -0.0002093 -0.0024677 0.0007244 0.0017667 0.0006779 0.0018392
-0.0087816 -0.0028418 -0.0002941 -0.0019448 0.0004818 0.0006912 0.0000533 -0.0004270 -0.0001409 -0.0007267 -0.0005254 -0.0026318 -0.0004139 -0.0027627 -0.0002049 -0.0025798 0.0007003 0.0014087 0.0006673 0.0016951
-0.0160388 0.0251278 -0.0002378 -0.0019360 0.0004798 0.0005849 0.0000479 -0.0004890 -0.0001513 -0.0007847 -0.0005133 -0.0026003 -0.0003815 -0.0027115 -0.0001874 -0.0025645 0.0006783 0.0012009 0.0006420 0.0016358
-0.0197509 0.0334364 -0.0002152 -0.0018923 0.0004893 0.0006154 0.0000028 -0.0004112 -0.0001572 -0.0007596 -0.0005110 -0.0025600 -0.0003988 -0.0026930 -0.0001997 -0.0025282 0.0006785 0.0012201 0.0006293 0.0016405
0.0009042 0.0119435 -0.0002522 -0.0018756 0.0005049 0.0007526 -0.0000088 -0.0002980 -0.0001549 -0.0006832 -0.0005211 -0.0025480 -0.0004376 -0.0026970 -0.0002249 -0.0024700 0.0006806 0.0013237 0.0006656 0.0017910
0.0120474 -0.0083077 -0.0002780 -0.0018349 0.0005178 0.0009225 0.0000528 -0.0002354 -0.0001505 -0.0005834 -0.0005326 -0.0025160 -0.0004653 -0.0027047 -0.0002359 -0.0024021 0.0006858 0.0014760 0.0007529 0.0020930
-0.0022345 0.0023881 -0.0003063 -0.0018808 0.0005395 0.0010771 0.0001129 -0.0001887 -0.0001359 -0.0005660 -0.0005690 -0.0026344 -0.0005286 -0.0029036 -0.0002095 -0.0024947 0.0007916 0.0017878 0.0011892 0.0029397
-0.0070368 0.0212713 -0.0003415 -0.0019935 0.0005455 0.0010564 0.0001137 -0.0002340 -0.0001200 -0.0006536 -0.0006127 -0.0028545 -0.0005740 -0.0031820 -0.0001761 -0.0026196 0.0009024 0.0019859 0.0015068 0.0036358
0.0009975 0.0054763 -0.0003884 -0.0021159 0.0005553 0.0010431 0.0000290 -0.0002021 -0.0001140 -0.0006894 -0.0006226 -0.0029243 -0.0005987 -0.0033170 -0.0001843 -0.0026947 0.0009272 0.0019412 0.0014332 0.0036957
0.0093635 -0.0331558 -0.0004809 -0.0022353 0.0005867 0.0012125 -0.0000344 -0.0000585 -0.0001046 -0.0006490 -0.0006278 -0.0029295 -0.0006519 -0.0034005 -0.0002051 -0.0027605 0.0009800 0.0020318 0.0014811 0.0038193
0.0131449 -0.0392008 -0.0005547 -0.0022550 0.0006159 0.0014088 -0.0000128 0.0000406 -0.0000989 -0.0005759 -0.0006258 -0.0028799 -0.0006759 -0.0033773 -0.0002102 -0.0028703 0.0010597 0.0023522 0.0015278 0.0036966
0.0057788 -0.0142575 -0.0005421 -0.0021115 0.0006346 0.0015426 0.0000807 0.0001637 -0.0001085 -0.0004845 -0.0006050 -0.0027207 -0.0006225 -0.0031508 -0.0002206 -0.0029615 0.0010957 0.0026521 0.0014585 0.0033061
0.0010414 0.0007814 -0.0005095 -0.0020133 0.0006779 0.0017321 0.0002224 0.0002370 -0.0001167 -0.0004853 -0.0005976 -0.0026912 -0.0005782 -0.0030230 -0.0002546 -0.0030891 0.0010738 0.0025955 0.0013999 0.0029970
0.0020195 0.0065027 -0.0005004 -0.0020706 0.0007076 0.0017949 0.0002811 0.0001723 -0.0001137 -0.0005761 -0.0006042 -0.0028037 -0.0005777 -0.0031211 -0.0002789 -0.0032808 0.0010316 0.0023660 0.0013678 0.0027539
0.0038123 0.0075927 -0.0004816 -0.0020970 0.0006915 0.0016780 0.0001829 0.0001927 -0.0001140 -0.0006173 -0.0006091 -0.0028149 -0.0005938 -0.0031603 -0.0002946 -0.0033346 0.0010184 0.0023077 0.0013707 0.0027575
-0.0011521 0.0072778 -0.0004648 -0.0020892 0.0006822 0.0016745 0.0001068 0.0002783 -0.0001212 -0.0005891 -0.0006101 -0.0027623 -0.0006331 -0.0031602 -0.0003115 -0.0033428 0.0010331 0.0023744 0.0014178 0.0029457
-0.0041015 0.0027175 -0.0004649 -0.0020311 0.0006797 0.0017325 0.0001093 0.0003173 -0.0001258 -0.0005235 -0.0006262 -0.0027663 -0.0006740 -0.0031569 -0.0003087 -0.0032434 0.0010323 0.0024773 0.0014358 0.0030795
0.0054947 -0.0217204 -0.0004688 -0.0019320 0.0006773 0.0018104 0.0001206 0.0004023 -0.0001403 -0.0004406 -0.0006339 -0.0027029 -0.0006852 -0.0030559 -0.0002931 -0.0030640 0.0010224 0.0025714 0.0014244 0.0031132
-0.0093229 0.0068280 -0.0004667 -0.0019357 0.0006726 0.0018424 0.0001478 0.0004023 -0.0001473 -0.0004514 -0.0006239 -0.0027023 -0.0006738 -0.0030469 -0.0002966 -0.0030911 0.0010059 0.0024625 0.0014059 0.0030154
-0.0084219 0.0154130 -0.0004445 -0.0020118 0.0006604 0.0017665 0.0001699 0.0003255 -0.0001392 -0.0005248 -0.0006326 -0.0028133 -0.0006699 -0.0031198 -0.0003151 -0.0031699 0.0009888 0.0022869 0.0013747 0.0029191
-0.0033930 0.0039701 -0.0004260 -0.0020282 0.0006554 0.0017198 0.0001775 0.0003208 -0.0001346 -0.0005239 -0.0006473 -0.0028344 -0.0006709 -0.0030597 -0.0003121 -0.0030438 0.0009803 0.0022477 0.0013458 0.0028777
-0.0047963 0.0043691 -0.0004402 -0.0019619 0.0006613 0.0017778 0.0001544 0.0003754 -0.0001332 -0.0004784 -0.0006477 -0.0027778 -0.0006625 -0.0029616 -0.0002974 -0.0028915 0.0009717 0.0022622 0.0013031 0.0028206
-0.0094469 0.0174235 -0.0004483 -0.0018731 0.0006616 0.0018570 0.0000875 0.0005013 -0.0001454 -0.0004172 -0.0006457 -0.0027046 -0.0006580 -0.0028679 -0.0003004 -0.0027491 0.0009665 0.0023664 0.0012720 0.0028007
-0.0109918 0.0154741 -0.0004387 -0.0017888 0.0006509 0.0019266 0.0000700 0.0005905 -0.0001587 -0.0003160 -0.0006496 -0.0026516 -0.0006552 -0.0027738 -0.0003127 -0.0027190 0.0009466 0.0023588 0.0012596 0.0027113
-0.0042971 0.0035494 -0.0004401 -0.0018217 0.0006653 0.0019905 0.0001038 0.0006158 -0.0001599 -0.0003409 -0.0006433 -0.0026475 -0.0006512 -0.0027638 -0.0003364 -0.0028568 0.0009321 0.0022390 0.0012237 0.0025074
-0.0021115 0.0064397 -0.0004611 -0.0019141 0.0007584 0.0022250 0.0001889 0.0007758 -0.0001480 -0.0004076 -0.0006319 -0.0026423 -0.0006360 -0.0027880 -0.0003644 -0.0029628 0.0009154 0.0021433 0.0011778 0.0023328
-0.0032071 0.0014869 -0.0004907 -0.0018893 0.0008370 0.0024762 0.0003031 0.0008722 -0.0001441 -0.0003897 -0.0006187 -0.0025522 -0.0006288 -0.0027441 -0.0003843 -0.0029797 0.0008947 0.0021228 0.0011401 0.0022767
-0.0030571 -0.0189416 -0.0005083 -0.0018195 0.0008359 0.0025458 0.0003050 0.0008866 -0.0001520 -0.0003347 -0.0006234 -0.0024985 -0.0006572 -0.0027227 -0.0004044 -0.0029397 0.0009096 0.0022241 0.0011648 0.0024449
-0.0137271 0.0011903 -0.0005039 -0.0017512 0.0008208 0.0025960 0.0002438 0.0010079 -0.0001513 -0.0002307 -0.0006398 -0.0024511 -0.0006946 -0.0026757 -0.0004067 -0.0028240 0.0009375 0.0023750 0.0012241 0.0026668
-0.0010815 -0.0105400 -0.0005187 -0.0017115 0.0007996 0.0026146 0.0002318 0.0010341 -0.0001480 -0.0002225 -0.0006403 -0.0024565 -0.0007116 -0.0026501 -0.0003930 -0.0028240 0.0009401 0.0023126 0.0012631 0.0026509
0.0028775 -0.0051167 -0.0005468 -0.0017721 0.0008032 0.0026167 0.0002828 0.0009598 -0.0001500 -0.0002995 -0.0006204 -0.0024692 -0.0006916 -0.0026257 -0.0003632 -0.0027979 0.0009187 0.0020985 0.0012989 0.0026824
-0.0031386 0.0102925 -0.0005580 -0.0018298 0.0008298 0.0026648 0.0003076 0.0009101 -0.0001640 -0.0003868 -0.0005794 -0.0023266 -0.0006169 -0.0023867 -0.0003258 -0.0024535 0.0008356 0.0018088 0.0011652 0.0025652
0.0007488 -0.0003882 -0.0005265 -0.0017423 0.0008223 0.0026107 0.0003111 0.0008509 -0.0001979 -0.0004724 -0.0005226 -0.0020752 -0.0005090 -0.0020143 -0.0002710 -0.0020593 0.0006792 0.0011769 0.0008559 0.0019815
-0.0157881 0.0217793 -0.0004121 -0.0015772 0.0007926 0.0024439 0.0002468 0.0008237 -0.0002373 -0.0005269 -0.0004834 -0.0018899 -0.0004434 -0.0017417 -0.0001991 -0.0017889 0.0005536 0.0005370 0.0006670 0.0014010
-0.0196054 0.0276791 -0.0002929 -0.0013680 0.0007667 0.0023476 0.0001440 0.0008417 -0.0002385 -0.0004522 -0.0004632 -0.0017986 -0.0004201 -0.0015631 -0.0001262 -0.0016407 0.0004861 0.0001314 0.0006290 0.0010128
0.0000210 0.0046535 -0.0002517 -0.0014007 0.0007340 0.0021740 0.0000904 0.0007541 -0.0002018 -0.0004536 -0.0004478 -0.0018560 -0.0003905 -0.0014928 -0.0000671 -0.0016861 0.0004343 -0.0004565 0.0006294 0.0003502
0.0009890 0.0017945 -0.0001978 -0.0015038 0.0006568 0.0017755 0.0000635 0.0005620 -0.0001975 -0.0006163 -0.0004274 -0.0019389 -0.0003412 -0.0014696 -0.0000300 -0.0017306 0.0003902 -0.0009671 0.0006345 -0.0002326
0.0006637 -0.0058150 -0.0001374 -0.0014796 0.0005976 0.0015175 0.0000570 0.0004176 -0.0002161 -0.0007044 -0.0004269 -0.0019737 -0.0003059 -0.0014377 -0.0000103 -0.0016697 0.0003553 -0.0010919 0.0006067 -0.0003655
-0.0000446 -0.0119095 -0.0001141 -0.0015047 0.0005769 0.0014598 0.0000752 0.0003028 -0.0001989 -0.0006524 -0.0004403 -0.0020071 -0.0002987 -0.0014549 -0.0000113 -0.0016057 0.0003352 -0.0011080 0.0005727 -0.0004234
-0.0101972 0.0081358 -0.0001075 -0.0014624 0.0005443 0.0014024 0.0000090 0.0003254 -0.0001938 -0.0005885 -0.0004225 -0.0019174 -0.0003021 -0.0014311 -0.0000105 -0.0015514 0.0003307 -0.0010736 0.0005417 -0.0004446
-0.0022193 0.0009477 -0.0001013 -0.0014215 0.0005190 0.0013632 -0.0000741 0.0003647 -0.0002128 -0.0006643 -0.0004133 -0.0019393 -0.0003033 -0.0014206 0.0000111 -0.0016103 0.0003320 -0.0012280 0.0005563 -0.0006674
0.0052581 -0.0134245 -0.0000365 -0.0012960 0.0004656 0.0010736 -0.0000961 0.0001659 -0.0002489 -0.0008741 -0.0003440 -0.0018703 -0.0002221 -0.0012127 -0.0000250 -0.0014474 0.0000564 -0.0018802 0.0006180 -0.0010452
0.0036348 -0.0135636 0.0000043 -0.0012818 0.0004460 0.0008735 -0.0000896 0.0000440 -0.0002665 -0.0010234 -0.0003162 -0.0018654 -0.0001963 -0.0011982 -0.0000355 -0.0014516 -0.0000413 -0.0021282 0.0005975 -0.0011787
0.0078441 -0.0220588 -0.0000055 -0.0014800 0.0004690 0.0009449 -0.0000495 0.0000640 -0.0002494 -0.0010127 -0.0003668 -0.0020314 -0.0002594 -0.0014399 0.0000351 -0.0017015 0.0001812 -0.0018033 0.0005079 -0.0011501
0.0010577 0.0074466 0.0000126 -0.0015129 0.0004466 0.0009148 0.0000031 0.0000084 -0.0002500 -0.0009754 -0.0003974 -0.0021229 -0.0002653 -0.0014751 0.0000615 -0.0016921 0.0002075 -0.0017023 0.0004762 -0.0011407
-0.0072476 0.0191805 0.0000288 -0.0014165 0.0004323 0.0009403 -0.0000258 0.0000596 -0.0002502 -0.0009264 -0.0004213 -0.0021620 -0.0002597 -0.0014542 0.0000631 -0.0017074 0.0001976 -0.0017150 0.0004789 -0.0011808
-0.0149833 0.0184852 0.0000392 -0.0014637 0.0004312 0.0008995 -0.0000624 0.0000719 -0.0002446 -0.0009862 -0.0004056 -0.0021987 -0.0002605 -0.0015060 0.0000554 -0.0018620 0.0001978 -0.0018386 0.0004651 -0.0013125
-0.0063511 0.0050687 0.0000662 -0.0015606 0.0004305 0.0007672 -0.0000482 -0.0000169 -0.0002372 -0.0011230 -0.0003864 -0.0022864 -0.0002560 -0.0015910 0.0000523 -0.0019752 0.0001863 -0.0019879 0.0004388 -0.0014212
-0.0071947 0.0080805 0.0000776 -0.0015593 0.0004622 0.0008046 -0.0000944 0.0000169 -0.0002357 -0.0011848 -0.0003691 -0.0022724 -0.0002380 -0.0015289 0.0000686 -0.0018795 0.0001590 -0.0020437 0.0004240 -0.0014467
0.0015707 -0.0006755 0.0000741 -0.0014599 0.0004837 0.0008740 -0.0001161 0.0000290 -0.0002460 -0.0011757 -0.0003523 -0.0022082 -0.0002137 -0.0014237 0.0000849 -0.0017182 0.0001304 -0.0020367 0.0004207 -0.0014196
0.0133177 -0.0247203 0.0000904 -0.0013195 0.0004832 0.0009187 -0.0000642 0.0000183 -0.0002461 -0.0011127 -0.0003396 -0.0021243 -0.0001971 -0.0013340 0.0000897 -0.0015736 0.0001069 -0.0019941 0.0004188 -0.0013409
0.0006285 -0.0080822 0.0001178 -0.0011877 0.0004791 0.0009831 -0.0000124 0.0000679 -0.0002383 -0.0010359 -0.0003260 -0.0020230 -0.0001928 -0.0012301 0.0001038 -0.0015298 0.0000919 -0.0020282 0.0004036 -0.0013305
-0.0107740 0.0072398 0.0001496 -0.0012165 0.0004768 0.0009392 0.0000024 -0.0000271 -0.0002290 -0.0010988 -0.0002964 -0.0019801 -0.0001669 -0.0012059 0.0001431 -0.0015660 0.0000902 -0.0021560 0.0004096 -0.0013590
-0.0164986 0.0176945 0.0001818 -0.0012068 0.0004800 0.0008069 -0.0000949 -0.0001096 -0.0002156 -0.0012176 -0.0002537 -0.0019332 -0.0001339 -0.0012322 0.0001785 -0.0015641 0.0000876 -0.0022406 0.0004374 -0.0012998
-0.0047702 0.0031514 0.0001918 -0.0010213 0.0004843 0.0007401 -0.0002057 -0.0000762 -0.0002099 -0.0012367 -0.0002082 -0.0018011 -0.0000876 -0.0010282 0.0001771 -0.0012923 -0.0000399 -0.0024162 0.0004492 -0.0014228
-0.0008612 -0.0081214 0.0002076 -0.0009448 0.0004899 0.0007745 -0.0002053 -0.0001079 -0.0001687 -0.0011211 -0.0001516 -0.0016032 -0.0000496 -0.0008106 0.0002045 -0.0010279 -0.0001296 -0.0024851 0.0004301 -0.0014997
-0.0064683 0.0046685 0.0002521 -0.0009014 0.0004743 0.0008150 -0.0001652 -0.0001167 -0.0001284 -0.0009629 -0.0001192 -0.0014366 -0.0000453 -0.0007471 0.0002413 -0.0009561 -0.0000913 -0.0023150 0.0003819 -0.0013358
0.0035055 -0.0071183 0.0002643 -0.0007972 0.0004504 0.0008545 -0.0000995 -0.0000882 -0.0001371 -0.0008967 -0.0001132 -0.0013637 -0.0000416 -0.0006966 0.0002450 -0.0009318 -0.0000826 -0.0022757 0.0003344 -0.0012933
0.0154816 -0.0395359 0.0002559 -0.0008440 0.0004316 0.0007771 -0.0000833 -0.0001733 -0.0001455 -0.0009851 -0.0001036 -0.0013852 -0.0000478 -0.0007665 0.0002466 -0.0010491 -0.0000818 -0.0023693 0.0003059 -0.0013721
-0.0036704 0.0019522 0.0002543 -0.0009729 0.0004261 0.0006615 -0.0001710 -0.0001951 -0.0001468 -0.0011169 -0.0000905 -0.0014153 -0.0000518 -0.0008368 0.0002499 -0.0011079 -0.0000804 -0.0024109 0.0002962 -0.0014167
-0.0145673 0.0198096 0.0002424 -0.0009896 0.0004262 0.0006451 -0.0002184 -0.0001551 -0.0001502 -0.0011345 -0.0000802 -0.0013769 -0.0000579 -0.0008374 0.0002580 -0.0010609 -0.0000787 -0.0023664 0.0002947 -0.0013833
-0.0141587 0.0191253 0.0002480 -0.0009544 0.0004201 0.0006745 -0.0001889 -0.0001560 -0.0001579 -0.0011022 -0.0000834 -0.0013273 -0.0000713 -0.0008024 0.0002477 -0.0009866 -0.0000709 -0.0022494 0.0003014 -0.0013114
-0.0151021 0.0208027 0.0002557 -0.0008712 0.0004250 0.0007728 -0.0001549 -0.0000505 -0.0001742 -0.0010311 -0.0000945 -0.0012687 -0.0000795 -0.0007531 0.0002285 -0.0009053 -0.0000495 -0.0020928 0.0003165 -0.0012025
-0.0106556 0.0097229 0.0002689 -0.0007698 0.0004206 0.0008283 -0.0001202 0.0000055 -0.0001886 -0.0009583 -0.0001064 -0.0012541 -0.0000876 -0.0007372 0.0002232 -0.0009345 -0.0000330 -0.0020522 0.0003210 -0.0011804
-0.0109259 0.0024809 0.0002849 -0.0008132 0.0004254 0.0008068 -0.0001200 0.0000169 -0.0001884 -0.0010233 -0.0001126 -0.0013149 -0.0000840 -0.0008034 0.0002261 -0.0010500 -0.0000165 -0.0021156 0.0003097 -0.0012457
0.0016331 -0.0067807 0.0002798 -0.0009071 0.0004435 0.0007508 -0.0001346 0.0000131 -0.0001845 -0.0011341 -0.0001077 -0.0013503 -0.0000861 -0.0008822 0.0002288 -0.0011093 -0.0000025 -0.0021411 0.0003066 -0.0012579
0.0061651 0.0042756 0.0002838 -0.0008856 0.0004586 0.0007504 -0.0001459 0.0000294 -0.0001853 -0.0011406 -0.0001078 -0.0013291 -0.0000994 -0.0008611 0.0002259 -0.0010894 0.0000078 -0.0020939 0.0003114 -0.0012107
-0.0040949 0.0189040 0.0002893 -0.0008012 0.0004752 0.0008307 -0.0001363 0.0001277 -0.0001936 -0.0011069 -0.0001102 -0.0012904 -0.0001035 -0.0008062 0.0002214 -0.0010086 0.0000188 -0.0019852 0.0003265 -0.0011259
-0.0058208 0.0170346 0.0002961 -0.0006988 0.0004889 0.0009291 -0.0000971 0.0001972 -0.0002034 -0.0010308 -0.0001212 -0.0012434 -0.0001054 -0.0007439 0.0002130 -0.0008894 0.0000252 -0.0018527 0.0003362 -0.0010232
-0.0005382 0.0009321 0.0002994 -0.0005983 0.0005024 0.0010528 -0.0000632 0.0002839 -0.0002059 -0.0009578 -0.0001329 -0.0012312 -0.0001045 -0.0007116 0.0002142 -0.0009089 0.0000350 -0.0018455 0.0003354 -0.0010240
-0.0081811 0.0040928 0.0002923 -0.0006359 0.0005041 0.0010212 -0.0000991 0.0003145 -0.0002057 -0.0010093 -0.0001438 -0.0013193 -0.0001019 -0.0007837 0.0002144 -0.0010668 0.0000487 -0.0019485 0.0003319 -0.0011292
0.0026819 -0.0043776 0.0003000 -0.0007616 0.0005052 0.0008993 -0.0000909 0.0001991 -0.0002087 -0.0011048 -0.0001611 -0.0014135 -0.0001052 -0.0008453 0.0002099 -0.0011274 0.0000658 -0.0019639 0.0003198 -0.0011442
0.0151590 -0.0335577 0.0003104 -0.0007691 0.0005073 0.0008809 -0.0000863 0.0001804 -0.0002174 -0.0011252 -0.0001747 -0.0014345 -0.0001180 -0.0008331 0.0002152 -0.0010908 0.0000787 -0.0019046 0.0003255 -0.0011003
0.0111414 -0.0242339 0.0003111 -0.0007223 0.0005077 0.0009309 -0.0001137 0.0002516 -0.0002390 -0.0011029 -0.0001845 -0.0014120 -0.0001292 -0.0007808 0.0002127 -0.0010236 0.0000860 -0.0018177 0.0003344 -0.0010475
0.0133072 -0.0328426 0.0003069 -0.0006352 0.0005175 0.0010373 -0.0000791 0.0003165 -0.0002537 -0.0010368 -0.0001843 -0.0013349 -0.0001353 -0.0006892 0.0002048 -0.0009042 0.0000868 -0.0017166 0.0003300 -0.0009452
0.0066442 0.0020432 0.0003040 -0.0005418 0.0005205 0.0011232 -0.0000194 0.0003426 -0.0002533 -0.0010001 -0.0001801 -0.0013201 -0.0001277 -0.0006921 0.0002027 -0.0009528 0.0000820 -0.0017765 0.0003278 -0.0010130
0.0080627 0.0037331 0.0002874 -0.0006417 0.0005219 0.0010676 0.0000064 0.0002689 -0.0002513 -0.0010779 -0.0001787 -0.0014097 -0.0001205 -0.0008065 0.0002126 -0.0011423 0.0000861 -0.0019432 0.0003333 -0.0011830
0.0147088 -0.0372395 0.0002786 -0.0008146 0.0005211 0.0009205 -0.0000042 0.0001847 -0.0002445 -0.0011678 -0.0001697 -0.0014414 -0.0001282 -0.0008859 0.0002210 -0.0012095 0.0000858 -0.0020188 0.0003227 -0.0012212
-0.0042156 -0.0088190 0.0002771 -0.0008507 0.0005187 0.0008610 -0.0000500 0.0001860 -0.0002377 -0.0011714 -0.0001590 -0.0014030 -0.0001356 -0.0008839 0.0002266 -0.0011730 0.0000888 -0.0019997 0.0003161 -0.0012066
-0.0073023 0.0063650 0.0002645 -0.0008232 0.0005156 0.0008743 -0.0001094 0.0002583 -0.0002401 -0.0011251 -0.0001565 -0.0013549 -0.0001460 -0.0008443 0.0002298 -0.0010964 0.0000949 -0.0019349 0.0003307 -0.0011405
-0.0023946 0.0063364 0.0002583 -0.0007487 0.0005017 0.0008827 -0.0001125 0.0002961 -0.0002475 -0.0010506 -0.0001538 -0.0012811 -0.0001522 -0.0007714 0.0002281 -0.0009973 0.0000951 -0.0018496 0.0003490 -0.0010602
0.0055257 -0.0086621 0.0002558 -0.0006818 0.0004912 0.0009197 -0.0000754 0.0003002 -0.0002536 -0.0010321 -0.0001508 -0.0012924 -0.0001423 -0.0007678 0.0002397 -0.0010507 0.0000937 -0.0019160 0.0003567 -0.0011354
0.0121718 -0.0365316 0.0002530 -0.0008074 0.0004752 0.0007869 -0.0000500 0.0002070 -0.0002554 -0.0011353 -0.0001477 -0.0013918 -0.0001296 -0.0008795 0.0002499 -0.0012448 0.0000782 -0.0021376 0.0003437 -0.0012802
-0.0039101 -0.0107690 0.0002443 -0.0009660 0.0004868 0.0006489 -0.0000495 0.0000925 -0.0002409 -0.0012261 -0.0001393 -0.0014360 -0.0001073 -0.0009432 0.0002598 -0.0013079 0.0000599 -0.0022626 0.0003279 -0.0013474
-0.0033504 -0.0012009 0.0002351 -0.0009846 0.0005256 0.0007103 -0.0000876 0.0001303 -0.0002260 -0.0012087 -0.0001256 -0.0014168 -0.0000878 -0.0009044 0.0002870 -0.0012169 0.0000538 -0.0022766 0.0003180 -0.0013423
-0.0048311 0.0090787 0.0002292 -0.0009672 0.0005254 0.0007046 -0.0001393 0.0001748 -0.0002080 -0.0011070 -0.0001188 -0.0013868 -0.0000934 -0.0008339 0.0002903 -0.0011450 0.0000470 -0.0022465 0.0003293 -0.0012971
-0.0070981 0.0041695 0.0002281 -0.0008882 0.0005070 0.0006919 -0.0001499 0.0001937 -0.0001811 -0.0009732 -0.0001160 -0.0013288 -0.0000982 -0.0007660 0.0002741 -0.0011210 0.0000419 -0.0021879 0.0003427 -0.0012412
0.0037759 -0.0120239 0.0002367 -0.0008017 0.0004968 0.0007181 -0.0000679 0.0002077 -0.0001753 -0.0009271 -0.0001003 -0.0013009 -0.0000833 -0.0007707 0.0002786 -0.0012187 0.0000312 -0.0022815 0.0003451 -0.0012912
0.0022601 0.0035182 0.0002372 -0.0009103 0.0004948 0.0006166 0.0000171 0.0000952 -0.0001766 -0.0010350 -0.0000818 -0.0013595 -0.0000578 -0.0008678 0.0002857 -0.0014194 0.0000247 -0.0024678 0.0003276 -0.0013933
-0.0005702 0.0029801 0.0002345 -0.0010745 0.0004985 0.0004765 0.0000374 -0.0000684 -0.0001772 -0.0011562 -0.0000804 -0.0014325 -0.0000468 -0.0009454 0.0002744 -0.0015318 0.0000415 -0.0024824 0.0003192 -0.0014246
0.0051525 -0.0140773 0.0002400 -0.0010644 0.0004956 0.0004309 -0.0000340 -0.0000360 -0.0001742 -0.0011669 -0.0000908 -0.0014603 -0.0000478 -0.0009151 0.0002697 -0.0015317 0.0000580 -0.0024064 0.0003418 -0.0013936
0.0136114 -0.0388916 0.0002547 -0.0009675 0.0005081 0.0004938 -0.0001062 0.0000614 -0.0001710 -0.0011305 -0.0000933 -0.0014246 -0.0000483 -0.0008147 0.0002734 -0.0014251 0.0000578 -0.0023277 0.0003444 -0.0013005
0.0040634 -0.0263282 0.0002548 -0.0008489 0.0005485 0.0006816 -0.0000464 0.0001135 -0.0001729 -0.0010668 -0.0000848 -0.0013325 -0.0000453 -0.0006819 0.0002709 -0.0012951 0.0000401 -0.0022422 0.0003284 -0.0012447
0.0005772 -0.0012139 0.0002486 -0.0007380 0.0005694 0.0008226 -0.0000026 0.0002223 -0.0001685 -0.0009841 -0.0000817 -0.0013028 -0.0000350 -0.0006178 0.0002628 -0.0013525 0.0000170 -0.0022846 0.0003091 -0.0013596
0.0074491 -0.0086310 0.0002599 -0.0007931 0.0005664 0.0007492 0.0000133 0.0001138 -0.0001467 -0.0010017 -0.0000932 -0.0014484 -0.0000218 -0.0007213 0.0002617 -0.0015089 -0.0000056 -0.0024376 0.0002743 -0.0015634
0.0067796 -0.0036769 0.0002692 -0.0009130 0.0005457 0.0005585 -0.0000120 -0.0000912 -0.0000987 -0.0010017 -0.0001080 -0.0015995 -0.0000076 -0.0008038 0.0002760 -0.0015407 -0.0000554 -0.0025718 0.0002436 -0.0016425
0.0057106 -0.0062792 0.0002628 -0.0009153 0.0005193 0.0004642 -0.0000711 -0.0000818 -0.0000945 -0.0010028 -0.0000831 -0.0015020 0.0000029 -0.0007338 0.0003050 -0.0014213 -0.0001371 -0.0026843 0.0002134 -0.0016275
0.0076679 -0.0019442 0.0002528 -0.0008934 0.0005279 0.0005260 -0.0000685 0.0000090 -0.0001304 -0.0010357 -0.0000496 -0.0013324 -0.0000138 -0.0007248 0.0003149 -0.0013365 -0.0002081 -0.0027322 0.0001818 -0.0015830
-0.0004426 0.0128893 0.0002389 -0.0008355 0.0005396 0.0006279 -0.0000485 0.0001365 -0.0001470 -0.0009439 -0.0000553 -0.0012804 -0.0000579 -0.0008215 0.0003093 -0.0013107 -0.0002762 -0.0027740 0.0001707 -0.0015113
0.0001124 -0.0071449 0.0002372 -0.0007569 0.0005389 0.0007144 -0.0000328 0.0001887 -0.0001491 -0.0008705 -0.0000594 -0.0012884 -0.0000703 -0.0008913 0.0003262 -0.0013049 -0.0003306 -0.0029177 0.0001834 -0.0015646
0.0292345 -0.0584796 0.0002486 -0.0008233 0.0005121 0.0006070 -0.0000663 -0.0000405 -0.0001015 -0.0008317 0.0000093 -0.0011652 -0.0000094 -0.0008176 0.0004003 -0.0011696 -0.0003720 -0.0031367 0.0001985 -0.0016581
0.0165239 -0.0255205 0.0002396 -0.0008783 0.0003326 0.0000799 -0.0002111 -0.0004514 0.0000476 -0.0005311 0.0002063 -0.0005705 0.0001151 -0.0005233 0.0005075 -0.0008270 -0.0004258 -0.0032880 0.0002039 -0.0016353
-0.0036958 0.0170289 0.0002317 -0.0007763 0.0000629 -0.0005371 -0.0003201 -0.0008505 0.0002635 0.0000740 0.0004390 0.0002433 0.0002469 -0.0000695 0.0006371 -0.0003609 -0.0004683 -0.0033757 0.0001980 -0.0015661
-0.0115571 0.0229096 0.0002423 -0.0006466 -0.0002910 -0.0013946 -0.0007215 -0.0016433 0.0007289 0.0013911 0.0008112 0.0015206 0.0004337 0.0006854 0.0008104 0.0003093 -0.0004583 -0.0033349 0.0002213 -0.0014087
-0.0042952 -0.0024735 0.0002659 -0.0004584 -0.0006671 -0.0023092 -0.0013107 -0.0023420 0.0010346 0.0022782 0.0009181 0.0018990 0.0004914 0.0009895 0.0008413 0.0005515 -0.0003688 -0.0030500 0.0002604 -0.0012757
-0.0056046 0.0048504 0.0002709 -0.0003179 -0.0008145 -0.0026452 -0.0015065 -0.0025734 0.0009773 0.0021338 0.0006240 0.0008763 0.0003872 0.0006842 0.0007440 0.0001593 -0.0002339 -0.0028028 0.0002777 -0.0013475
0.0023156 0.0100657 0.0002582 -0.0004898 -0.0008784 -0.0029656 -0.0014353 -0.0029370 0.0009296 0.0018807 0.0003888 -0.0000406 0.0003344 0.0004039 0.0006766 -0.0003025 -0.0001388 -0.0027540 0.0002975 -0.0014826
0.0067941 -0.0017668 0.0002727 -0.0006535 -0.0009144 -0.0032454 -0.0013302 -0.0031791 0.0008699 0.0016259 0.0002818 -0.0004410 0.0003088 0.0001898 0.0006215 -0.0005790 -0.0001006 -0.0027132 0.0003023 -0.0014974
-0.0158839 0.0130382 0.0002880 -0.0006110 -0.0009849 -0.0034695 -0.0012985 -0.0032301 0.0007616 0.0013998 0.0002300 -0.0005668 0.0002717 0.0000309 0.0005354 -0.0008370 -0.0000068 -0.0024656 0.0003291 -0.0013389
-0.0382603 0.0366368 0.0003088 -0.0004804 -0.0010856 -0.0037567 -0.0013128 -0.0030271 0.0005627 0.0010170 0.0000810 -0.0010103 0.0001613 -0.0003385 0.0004101 -0.0012430 0.0001265 -0.0020439 0.0003475 -0.0012107
-0.0043717 0.0068549 0.0002876 -0.0004452 -0.0008721 -0.0031643 -0.0012312 -0.0022253 0.0002520 0.0004244 -0.0001021 -0.0015450 -0.0000008 -0.0007800 0.0002805 -0.0016407 0.0001934 -0.0017344 0.0003388 -0.0011424
0.0085662 0.0031478 0.0002050 -0.0006134 -0.0006400 -0.0024206 -0.0010672 -0.0016074 0.0000409 0.0000082 -0.0002159 -0.0019116 -0.0001128 -0.0010984 0.0001679 -0.0020526 0.0002430 -0.0016528 0.0003579 -0.0011121
0.0028488 0.0053039 0.0001657 -0.0008239 -0.0006750 -0.0025402 -0.0009248 -0.0016541 -0.0000067 -0.0001808 -0.0002676 -0.0021758 -0.0001358 -0.0012988 0.0001263 -0.0023612 0.0003015 -0.0016702 0.0003985 -0.0011762
-0.0068784 0.0043468 0.0001428 -0.0010436 -0.0007027 -0.0027200 -0.0007887 -0.0017730 -0.0000596 -0.0003630 -0.0002889 -0.0022860 -0.0001203 -0.0013509 0.0001444 -0.0023587 0.0003240 -0.0016773 0.0004441 -0.0011344
-0.0054957 0.0035610 0.0001700 -0.0010102 -0.0006432 -0.0025350 -0.0007506 -0.0017534 -0.0000843 -0.0004026 -0.0002843 -0.0022313 -0.0001064 -0.0013552 0.0001579 -0.0022559 0.0003220 -0.0016828 0.0004540 -0.0010409
-0.0028849 -0.0042997 0.0002091 -0.0008367 -0.0006097 -0.0023894 -0.0008303 -0.0016325 -0.0000920 -0.0003668 -0.0002796 -0.0021587 -0.0001002 -0.0013403 0.0001559 -0.0021963 0.0003034 -0.0016766 0.0004364 -0.0010032
0.0069399 -0.0129777 0.0002029 -0.0007504 -0.0006545 -0.0024136 -0.0008855 -0.0014916 -0.0001277 -0.0003279 -0.0002752 -0.0020561 -0.0001134 -0.0012319 0.0001690 -0.0020664 0.0002728 -0.0016340 0.0004200 -0.0009364
0.0007338 -0.0056902 0.0002057 -0.0006498 -0.0006707 -0.0023411 -0.0008532 -0.0014249 -0.0001690 -0.0003285 -0.0002579 -0.0019633 -0.0001115 -0.0011478 0.0002076 -0.0020053 0.0002385 -0.0017338 0.0004206 -0.0009810
-0.0088015 0.0033928 0.0002096 -0.0006897 -0.0006354 -0.0022989 -0.0007940 -0.0014850 -0.0002009 -0.0004623 -0.0002392 -0.0019653 -0.0000908 -0.0011945 0.0002317 -0.0020696 0.0002087 -0.0019351 0.0004167 -0.0011331
0.0058100 -0.0080775 0.0002198 -0.0007946 -0.0006104 -0.0023739 -0.0007601 -0.0015601 -0.0002247 -0.0006045 -0.0002132 -0.0019089 -0.0000742 -0.0011920 0.0002485 -0.0020091 0.0001910 -0.0020022 0.0004072 -0.0011604
0.0028052 0.0164934 0.0002225 -0.0007412 -0.0006004 -0.0023932 -0.0007182 -0.0016306 -0.0002460 -0.0006548 -0.0001949 -0.0018100 -0.0000674 -0.0011666 0.0002517 -0.0019267 0.0001854 -0.0019589 0.0004127 -0.0011065
-0.0023974 0.0198678 0.0002236 -0.0006529 -0.0005962 -0.0023751 -0.0006900 -0.0016238 -0.0002614 -0.0006584 -0.0001977 -0.0017431 -0.0000658 -0.0011388 0.0002473 -0.0018389 0.0001746 -0.0018963 0.0004137 -0.0010147
-0.0105141 0.0132299 0.0002301 -0.0005626 -0.0005681 -0.0022367 -0.0007103 -0.0014692 -0.0002816 -0.0006365 -0.0001990 -0.0016549 -0.0000621 -0.0010299 0.0002593 -0.0016919 0.0001550 -0.0018254 0.0004022 -0.0009023
-0.0115161 0.0091747 0.0002223 -0.0004713 -0.0005195 -0.0020289 -0.0007812 -0.0012957 -0.0003077 -0.0006264 -0.0001842 -0.0015804 -0.0000490 -0.0009446 0.0002768 -0.0016664 0.0001423 -0.0018611 0.0004000 -0.0009069
-0.0053443 0.0057979 0.0001939 -0.0005682 -0.0004666 -0.0019712 -0.0008428 -0.0012333 -0.0003201 -0.0007334 -0.0001732 -0.0016104 -0.0000426 -0.0009774 0.0002891 -0.0017629 0.0001389 -0.0019809 0.0004018 -0.0009711
-0.0021881 0.0103063 0.0001850 -0.0007232 -0.0004357 -0.0020429 -0.0008238 -0.0012902 -0.0003225 -0.0008709 -0.0001613 -0.0016371 -0.0000430 -0.0010340 0.0002993 -0.0017688 0.0001350 -0.0020030 0.0004091 -0.0009440
0.0047933 -0.0107778 0.0001861 -0.0007048 -0.0004233 -0.0020582 -0.0007371 -0.0013574 -0.0003263 -0.0008953 -0.0001405 -0.0015493 -0.0000314 -0.0009843 0.0003174 -0.0016364 0.0001235 -0.0019528 0.0004238 -0.0008530
0.0070167 -0.0113412 0.0001838 -0.0006358 -0.0003982 -0.0020044 -0.0006726 -0.0013411 -0.0003290 -0.0008699 -0.0001275 -0.0014281 -0.0000251 -0.0008996 0.0003183 -0.0014755 0.0001155 -0.0018567 0.0004223 -0.0007372
-0.0072779 0.0107188 0.0001795 -0.0005555 -0.0003663 -0.0018936 -0.0006389 -0.0012739 -0.0003282 -0.0008055 -0.0001288 -0.0013356 -0.0000191 -0.0008309 0.0003228 -0.0013416 0.0001157 -0.0017358 0.0004120 -0.0006121
-0.0103995 0.0076230 0.0001624 -0.0005022 -0.0003352 -0.0017533 -0.0006853 -0.0011485 -0.0003173 -0.0007557 -0.0001281 -0.0013067 -0.0000163 -0.0008039 0.0003308 -0.0013657 0.0001131 -0.0017560 0.0004023 -0.0006078
0.0115147 -0.0133043 0.0001504 -0.0006472 -0.0003062 -0.0017548 -0.0007667 -0.0010710 -0.0003029 -0.0008425 -0.0001283 -0.0013705 -0.0000389 -0.0008502 0.0003259 -0.0014985 0.0001165 -0.0018478 0.0003998 -0.0006857
0.0084438 -0.0076646 0.0001293 -0.0007941 -0.0002731 -0.0018184 -0.0007491 -0.0011311 -0.0002961 -0.0009560 -0.0001295 -0.0014189 -0.0000496 -0.0008971 0.0003321 -0.0015123 0.0001243 -0.0018336 0.0004138 -0.0006772
0.0086127 -0.0124788 0.0001180 -0.0008119 -0.0002459 -0.0017894 -0.0006940 -0.0011619 -0.0002907 -0.0009571 -0.0001293 -0.0013866 -0.0000388 -0.0008760 0.0003319 -0.0014379 0.0001226 -0.0017752 0.0004160 -0.0006275
0.0141443 -0.0208649 0.0001006 -0.0008065 -0.0002241 -0.0016995 -0.0006376 -0.0011351 -0.0002865 -0.0009091 -0.0001343 -0.0013210 -0.0000354 -0.0007948 0.0003274 -0.0013252 0.0001220 -0.0016808 0.0004127 -0.0005346
0.0088868 0.0009780 0.0000735 -0.0007393 -0.0002083 -0.0015966 -0.0005801 -0.0010926 -0.0002813 -0.0008322 -0.0001484 -0.0012736 -0.0000320 -0.0007224 0.0003229 -0.0011979 0.0001210 -0.0015744 0.0004161 -0.0004537
0.0046296 0.0086020 0.0000715 -0.0007517 -0.0001742 -0.0014800 -0.0005747 -0.0010019 -0.0002746 -0.0008520 -0.0001685 -0.0013364 -0.0000306 -0.0007358 0.0003294 -0.0012517 0.0001227 -0.0016259 0.0004066 -0.0005102
-0.0061615 0.0152235 0.0000659 -0.0008806 -0.0001081 -0.0013882 -0.0005938 -0.0009714 -0.0002649 -0.0009645 -0.0001747 -0.0014254 -0.0000369 -0.0008040 0.0003477 -0.0013514 0.0001244 -0.0017319 0.0004082 -0.0005816
-0.0141941 0.0235171 0.0000488 -0.0009568 -0.0000640 -0.0013832 -0.0006033 -0.0010021 -0.0002544 -0.0010033 -0.0001659 -0.0014217 -0.0000438 -0.0008203 0.0003504 -0.0013489 0.0001166 -0.0017451 0.0004062 -0.0005835
-0.0125734 0.0131689 0.0000304 -0.0009397 -0.0000572 -0.0013747 -0.0006113 -0.0009688 -0.0002569 -0.0009745 -0.0001578 -0.0013580 -0.0000405 -0.0007557 0.0003613 -0.0012593 0.0001102 -0.0017039 0.0004152 -0.0005171
0.0080274 -0.0207013 0.0000308 -0.0008911 -0.0000464 -0.0012870 -0.0005822 -0.0009465 -0.0002545 -0.0009093 -0.0001495 -0.0012569 -0.0000418 -0.0006822 0.0003551 -0.0011369 0.0001016 -0.0016206 0.0004294 -0.0004364
0.0203800 -0.0431792 0.0000248 -0.0008232 -0.0000351 -0.0011610 -0.0005271 -0.0008815 -0.0002436 -0.0007987 -0.0001450 -0.0011561 -0.0000455 -0.0006014 0.0003444 -0.0010999 0.0000971 -0.0015826 0.0004231 -0.0004343
0.0068890 -0.0247003 0.0000002 -0.0008988 -0.0000278 -0.0011452 -0.0004878 -0.0008404 -0.0002345 -0.0008238 -0.0001429 -0.0011834 -0.0000426 -0.0006324 0.0003542 -0.0011922 0.0001008 -0.0016729 0.0004177 -0.0004921
-0.0071965 0.0007308 -0.0000078 -0.0010530 -0.0000068 -0.0012122 -0.0004840 -0.0009036 -0.0002206 -0.0009452 -0.0001331 -0.0012625 -0.0000281 -0.0007493 0.0003579 -0.0013309 0.0000977 -0.0017875 0.0004038 -0.0005644
-0.0101108 0.0077710 -0.0000094 -0.0010955 0.0000088 -0.0012418 -0.0005404 -0.0008927 -0.0002094 -0.0009727 -0.0001224 -0.0012464 -0.0000113 -0.0007659 0.0003690 -0.0013156 0.0001008 -0.0017849 0.0004043 -0.0005454
-0.0005872 0.0053054 -0.0000136 -0.0010556 0.0000195 -0.0012097 -0.0006105 -0.0008007 -0.0002047 -0.0009415 -0.0001136 -0.0011985 -0.0000226 -0.0007290 0.0003624 -0.0012457 0.0001003 -0.0017238 0.0004211 -0.0004964
0.0054596 0.0023633 -0.0000183 -0.0009846 0.0000431 -0.0011064 -0.0005919 -0.0007504 -0.0002031 -0.0008786 -0.0001099 -0.0011449 -0.0000307 -0.0006724 0.0003581 -0.0011620 0.0000992 -0.0016440 0.0004321 -0.0004404
0.0100734 -0.0177918 -0.0000236 -0.0008931 0.0000663 -0.0009394 -0.0005069 -0.0006885 -0.0002073 -0.0008016 -0.0001145 -0.0011024 -0.0000216 -0.0006425 0.0003643 -0.0011714 0.0001016 -0.0016450 0.0004278 -0.0004579
0.0099404 -0.0229575 -0.0000342 -0.0009570 0.0000983 -0.0008732 -0.0004308 -0.0007007 -0.0002090 -0.0008791 -0.0001173 -0.0011804 -0.0000124 -0.0007228 0.0003602 -0.0013217 0.0001017 -0.0017481 0.0004116 -0.0005761
0.0023011 0.0066812 -0.0000399 -0.0011097 0.0001296 -0.0009327 -0.0003853 -0.0008312 -0.0002049 -0.0010299 -0.0001142 -0.0012888 -0.0000012 -0.0008275 0.0003657 -0.0013935 0.0001077 -0.0018070 0.0004100 -0.0006229
0.0006030 0.0124949 -0.0000283 -0.0011299 0.0001478 -0.0009340 -0.0004198 -0.0008148 -0.0001991 -0.0010630 -0.0001133 -0.0013075 -0.0000027 -0.0008516 0.0003674 -0.0013776 0.0000996 -0.0017965 0.0004097 -0.0006236
-0.0083673 0.0072053 -0.0000183 -0.0010841 0.0001661 -0.0008579 -0.0004675 -0.0007299 -0.0001916 -0.0010444 -0.0001127 -0.0012802 -0.0000058 -0.0008104 0.0003710 -0.0013044 0.0000977 -0.0017338 0.0004024 -0.0005779
-0.0036721 -0.0017033 -0.0000054 -0.0009950 0.0001661 -0.0007935 -0.0004599 -0.0006888 -0.0001869 -0.0009864 -0.0001093 -0.0012174 -0.0000108 -0.0007427 0.0003784 -0.0011951 0.0001025 -0.0016411 0.0004017 -0.0004846
0.0046831 -0.0011038 0.0000336 -0.0008659 0.0001568 -0.0007640 -0.0004730 -0.0006033 -0.0001938 -0.0009264 -0.0001082 -0.0011994 -0.0000226 -0.0007117 0.0003780 -0.0012385 0.0001047 -0.0016541 0.0004069 -0.0005027
0.0043982 0.0073809 0.0000662 -0.0008925 0.0001590 -0.0008435 -0.0004346 -0.0006956 -0.0002017 -0.0010186 -0.0001051 -0.0012957 -0.0000156 -0.0007965 0.0003787 -0.0013955 0.0001124 -0.0017653 0.0004169 -0.0005972
0.0043717 -0.0036198 0.0000753 -0.0010191 0.0001722 -0.0009454 -0.0003741 -0.0008347 -0.0001985 -0.0011675 -0.0001016 -0.0014012 -0.0000053 -0.0008976 0.0003748 -0.0014666 0.0001151 -0.0018076 0.0004224 -0.0006385
0.0181239 -0.0552920 0.0000812 -0.0010321 0.0001931 -0.0009253 -0.0003590 -0.0008011 -0.0002037 -0.0012252 -0.0001009 -0.0014105 -0.0000043 -0.0008863 0.0003681 -0.0014439 0.0001266 -0.0017355 0.0004195 -0.0005943
0.0153679 -0.0358141 0.0000860 -0.0009835 0.0002357 -0.0007781 -0.0003025 -0.0007548 -0.0002155 -0.0012389 -0.0000973 -0.0013704 0.0000018 -0.0008621 0.0003608 -0.0013998 0.0001405 -0.0016166 0.0004110 -0.0005083
0.0026734 -0.0053358 0.0000950 -0.0009212 0.0002771 -0.0005913 -0.0003114 -0.0006469 -0.0002170 -0.0011789 -0.0001020 -0.0013270 0.0000016 -0.0008199 0.0003550 -0.0013079 0.0001467 -0.0014889 0.0004031 -0.0004097
-0.0034506 0.0036000 0.0000871 -0.0008201 0.0002923 -0.0004618 -0.0003937 -0.0004970 -0.0002179 -0.0011093 -0.0001005 -0.0012961 -0.0000009 -0.0007721 0.0003618 -0.0013016 0.0001515 -0.0014846 0.0004152 -0.0003935
0.0052977 -0.0082502 0.0000719 -0.0008699 0.0003157 -0.0004463 -0.0003819 -0.0005292 -0.0002126 -0.0011922 -0.0000861 -0.0013561 -0.0000010 -0.0008391 0.0003620 -0.0014554 0.0001491 -0.0016045 0.0004136 -0.0005037
0.0051289 -0.0006377 0.0000791 -0.0010218 0.0003361 -0.0005305 -0.0002930 -0.0006676 -0.0002031 -0.0013052 -0.0000820 -0.0014343 0.0000101 -0.0009060 0.0003688 -0.0015085 0.0001511 -0.0016411 0.0004092 -0.0005257
0.0001517 0.0098340 0.0000852 -0.0010326 0.0003473 -0.0005312 -0.0002047 -0.0007390 -0.0002020 -0.0013218 -0.0000803 -0.0014130 0.0000198 -0.0008956 0.0003690 -0.0014469 0.0001504 -0.0015927 0.0003999 -0.0004573
0.0013183 0.0115128 0.0000668 -0.0009654 0.0003617 -0.0004494 -0.0001530 -0.0007503 -0.0001940 -0.0012935 -0.0000778 -0.0013596 0.0000254 -0.0008571 0.0003566 -0.0013715 0.0001445 -0.0015101 0.0003873 -0.0003954
0.0039812 0.0032771 0.0000528 -0.0008732 0.0003658 -0.0003688 -0.0001946 -0.0006445 -0.0001840 -0.0012305 -0.0000762 -0.0012808 0.0000283 -0.0007730 0.0003624 -0.0012551 0.0001495 -0.0013929 0.0003897 -0.0002833
0.0116808 -0.0228456 0.0000447 -0.0007862 0.0004035 -0.0001929 -0.0002364 -0.0004732 -0.0001828 -0.0011967 -0.0000783 -0.0012644 0.0000157 -0.0007529 0.0003597 -0.0013142 0.0001576 -0.0013870 0.0003809 -0.0002900
0.0170425 -0.0392282 0.0000438 -0.0009122 0.0004406 -0.0001609 -0.0002159 -0.0004608 -0.0001720 -0.0012767 -0.0000841 -0.0013772 0.0000138 -0.0008229 0.0003692 -0.0014451 0.0001664 -0.0014663 0.0003889 -0.0003638
0.0070105 -0.0144445 0.0000157 -0.0010705 0.0004606 -0.0002189 -0.0001986 -0.0005084 -0.0001601 -0.0013612 -0.0000779 -0.0014319 0.0000176 -0.0008492 0.0003733 -0.0014416 0.0001655 -0.0014757 0.0003950 -0.0003670
0.0021355 0.0044387 -0.0000419 -0.0010747 0.0005111 -0.0000839 -0.0001206 -0.0004992 -0.0001523 -0.0013410 -0.0000748 -0.0014103 0.0000246 -0.0008200 0.0003656 -0.0013623 0.0001492 -0.0014471 0.0003859 -0.0003545
-0.0019887 0.0109679 -0.0000839 -0.0010853 0.0005510 0.0000926 -0.0000219 -0.0004916 -0.0001446 -0.0012903 -0.0000747 -0.0013670 0.0000358 -0.0007325 0.0003808 -0.0011866 0.0001312 -0.0014021 0.0003854 -0.0002727
-0.0024497 0.0110345 -0.0000914 -0.0010225 0.0005734 0.0002416 0.0000053 -0.0004260 -0.0001364 -0.0012095 -0.0000577 -0.0012311 0.0000459 -0.0005888 0.0003856 -0.0010047 0.0000992 -0.0013669 0.0003692 -0.0002119
-0.0067617 0.0128421 -0.0000576 -0.0009074 0.0005676 0.0002997 -0.0000323 -0.0004391 -0.0001015 -0.0011158 0.0000785 -0.0007524 0.0001334 -0.0002979 0.0004629 -0.0007323 0.0000334 -0.0015688 0.0003603 -0.0002225
-0.0142772 0.0164027 -0.0000552 -0.0009312 0.0005234 0.0001535 -0.0001953 -0.0006516 0.0000557 -0.0009639 0.0004023 0.0002341 0.0003529 0.0003331 0.0006720 -0.0000745 -0.0001166 -0.0020561 0.0002830 -0.0003961
-0.0035573 0.0009421 -0.0000636 -0.0009905 0.0004790 -0.0000099 -0.0005369 -0.0010175 0.0004666 -0.0000859 0.0011121 0.0025072 0.0006458 0.0012824 0.0009645 0.0008590 -0.0003205 -0.0025452 0.0001690 -0.0005535
0.0021796 -0.0159776 0.0000015 -0.0009415 0.0002866 -0.0004792 -0.0010850 -0.0019145 0.0008917 0.0011146 0.0017533 0.0049754 0.0008307 0.0018749 0.0011733 0.0014403 -0.0003861 -0.0026762 0.0001526 -0.0005302
0.0077168 -0.0236173 0.0001074 -0.0008145 0.0000440 -0.0010879 -0.0014963 -0.0028162 0.0010499 0.0016392 0.0018259 0.0057282 0.0008842 0.0020184 0.0012369 0.0015787 -0.0003453 -0.0025779 0.0001763 -0.0003968
0.0030855 -0.0041755 0.0001751 -0.0006000 -0.0000875 -0.0014463 -0.0015354 -0.0030803 0.0009988 0.0015555 0.0016079 0.0050273 0.0008525 0.0019455 0.0012061 0.0014502 -0.0003082 -0.0024381 0.0001890 -0.0002598
-0.0001451 0.0117290 0.0001996 -0.0004284 -0.0002008 -0.0017687 -0.0014485 -0.0029782 0.0008482 0.0011945 0.0014106 0.0040230 0.0007460 0.0016200 0.0011177 0.0010805 -0.0002696 -0.0023530 0.0001861 -0.0003117
0.0062759 0.0023551 0.0002212 -0.0004653 -0.0002500 -0.0019895 -0.0013612 -0.0027285 0.0006676 0.0006291 0.0013106 0.0033178 0.0006558 0.0012337 0.0010432 0.0006122 -0.0002187 -0.0023902 0.0001790 -0.0004323
0.0067440 -0.0109422 0.0002236 -0.0005927 -0.0001401 -0.0018964 -0.0012656 -0.0025203 0.0003983 -0.0002433 0.0011657 0.0026093 0.0005734 0.0008878 0.0009598 0.0002455 -0.0001881 -0.0023923 0.0001509 -0.0005552
0.0045867 -0.0243815 0.0001953 -0.0006435 0.0001312 -0.0012852 -0.0011242 -0.0022862 0.0001052 -0.0010906 0.0010226 0.0021164 0.0005183 0.0007406 0.0008836 0.0000974 -0.0002003 -0.0023597 0.0001154 -0.0006574
-0.0083836 -0.0120497 0.0001699 -0.0006509 0.0003642 -0.0006447 -0.0010373 -0.0020931 -0.0000232 -0.0014535 0.0009503 0.0019536 0.0004943 0.0007380 0.0008398 0.0000885 -0.0002057 -0.0022769 0.0001026 -0.0006729
0.0003316 0.0033350 0.0001596 -0.0006207 0.0004567 -0.0003104 -0.0009829 -0.0019812 -0.0000383 -0.0014386 0.0008747 0.0017961 0.0004715 0.0007352 0.0008039 0.0001385 -0.0002074 -0.0021581 0.0000846 -0.0006363
0.0064651 -0.0069447 0.0001501 -0.0005660 0.0004685 -0.0001600 -0.0009364 -0.0019023 -0.0000276 -0.0013528 0.0008336 0.0017376 0.0004717 0.0007619 0.0008075 0.0001747 -0.0002020 -0.0021273 0.0000841 -0.0006367
0.0058338 -0.0275898 0.0001168 -0.0006460 0.0004933 -0.0000691 -0.0008624 -0.0019070 -0.0000215 -0.0014363 0.0007645 0.0014546 0.0004634 0.0006493 0.0008062 0.0000326 -0.0001841 -0.0022084 0.0000897 -0.0007250
0.0076227 -0.0201233 0.0000871 -0.0008491 0.0005816 0.0001126 -0.0007607 -0.0019791 -0.0000112 -0.0015970 0.0007014 0.0011168 0.0004528 0.0004506 0.0007893 -0.0001271 -0.0001603 -0.0022322 0.0000863 -0.0007573
0.0070570 -0.0120647 0.0000730 -0.0009328 0.0006537 0.0002988 -0.0008133 -0.0018967 0.0000029 -0.0016534 0.0007062 0.0011086 0.0004466 0.0003737 0.0007808 -0.0001380 -0.0001563 -0.0021890 0.0000804 -0.0007332
0.0128508 -0.0291315 0.0000737 -0.0008962 0.0006687 0.0003624 -0.0009123 -0.0017730 0.0000063 -0.0016569 0.0007170 0.0012057 0.0004306 0.0004276 0.0007758 -0.0000547 -0.0001593 -0.0020996 0.0000720 -0.0006741
0.0213984 -0.0571337 0.0000764 -0.0008005 0.0006773 0.0004329 -0.0008635 -0.0017608 0.0000045 -0.0015998 0.0007043 0.0012474 0.0004122 0.0005051 0.0007694 0.0000482 -0.0001606 -0.0019926 0.0000638 -0.0006029
0.0118006 -0.0335520 0.0000776 -0.0006875 0.0006858 0.0005481 -0.0008074 -0.0017013 -0.0000095 -0.0015269 0.0006894 0.0012808 0.0004100 0.0005586 0.0007626 0.0000873 -0.0001634 -0.0019327 0.0000569 -0.0005890
0.0043241 -0.0124153 0.0000871 -0.0007067 0.0006977 0.0005891 -0.0007488 -0.0016918 -0.0000245 -0.0015757 0.0006827 0.0012352 0.0004197 0.0005349 0.0007538 0.0000166 -0.0001738 -0.0020157 0.0000389 -0.0006691
-0.0004054 0.0093397 0.0000985 -0.0007810 0.0007301 0.0005759 -0.0006580 -0.0017544 -0.0000220 -0.0016734 0.0006610 0.0010723 0.0004360 0.0004967 0.0007537 -0.0000240 -0.0001904 -0.0021266 0.0000269 -0.0007494
0.0032444 0.0035353 0.0000912 -0.0007578 0.0007823 0.0006940 -0.0006202 -0.0016933 -0.0000135 -0.0016772 0.0006509 0.0010536 0.0004443 0.0005231 0.0007498 -0.0000075 -0.0001858 -0.0020811 0.0000255 -0.0007158
0.0092858 -0.0153297 0.0000878 -0.0007361 0.0008218 0.0008393 -0.0006159 -0.0015648 -0.0000014 -0.0016343 0.0006384 0.0010909 0.0004257 0.0005209 0.0007161 -0.0000312 -0.0001676 -0.0019440 0.0000129 -0.0006383
0.0003272 -0.0009128 0.0000951 -0.0006864 0.0008259 0.0009220 -0.0006527 -0.0014425 0.0000089 -0.0015473 0.0006160 0.0011067 0.0004154 0.0005909 0.0007061 0.0000426 -0.0001502 -0.0018017 0.0000189 -0.0005246
0.0007354 0.0024875 0.0000914 -0.0005812 0.0008261 0.0010201 -0.0007063 -0.0013042 0.0000081 -0.0014400 0.0005869 0.0010967 0.0003963 0.0007106 0.0006986 0.0001160 -0.0001475 -0.0016881 0.0000248 -0.0004548
0.0088424 -0.0038997 0.0000894 -0.0005701 0.0008347 0.0010659 -0.0007258 -0.0012351 0.0000143 -0.0014395 0.0005078 0.0008041 0.0003819 0.0006790 0.0006946 0.0000020 -0.0001342 -0.0017121 0.0000459 -0.0004824
0.0012823 0.0044444 0.0000824 -0.0006537 0.0008481 0.0010360 -0.0006665 -0.0012565 0.0000089 -0.0015679 0.0004508 0.0005115 0.0003774 0.0005320 0.0006860 -0.0001631 -0.0001068 -0.0017564 0.0000656 -0.0005068
-0.0099579 0.0075441 0.0000716 -0.0006674 0.0008886 0.0011052 -0.0005183 -0.0012618 -0.0000140 -0.0016471 0.0004654 0.0005349 0.0003721 0.0004647 0.0006597 -0.0001909 -0.0000913 -0.0016803 0.0000630 -0.0004779
-0.0067403 0.0029239 0.0000759 -0.0006300 0.0009257 0.0012223 -0.0004491 -0.0011908 -0.0000237 -0.0016236 0.0004967 0.0006799 0.0003775 0.0004722 0.0006478 -0.0001355 -0.0000862 -0.0015939 0.0000563 -0.0004089
0.0000722 -0.0107283 0.0000822 -0.0005711 0.0009285 0.0012816 -0.0005033 -0.0010549 -0.0000248 -0.0015403 0.0005256 0.0008565 0.0003775 0.0005367 0.0006481 -0.0000424 -0.0000876 -0.0014984 0.0000447 -0.0003170
0.0087931 -0.0119456 0.0000746 -0.0004873 0.0009293 0.0013751 -0.0005507 -0.0009208 -0.0000289 -0.0014413 0.0005376 0.0009986 0.0003583 0.0006122 0.0006443 0.0000006 -0.0000755 -0.0014031 0.0000387 -0.0002630
0.0063248 -0.0011145 0.0000718 -0.0005308 0.0009261 0.0013634 -0.0005277 -0.0009142 -0.0000290 -0.0014801 0.0005322 0.0009644 0.0003408 0.0005429 0.0006405 -0.0001481 -0.0000414 -0.0014155 0.0000463 -0.0003227
0.0029576 -0.0141191 0.0000623 -0.0006398 0.0009251 0.0012415 -0.0004833 -0.0009823 -0.0000296 -0.0016048 0.0005226 0.0008254 0.0003369 0.0003978 0.0006335 -0.0003358 -0.0000081 -0.0014601 0.0000530 -0.0004144
0.0098779 -0.0203446 0.0000594 -0.0006758 0.0009309 0.0011732 -0.0004428 -0.0010135 -0.0000361 -0.0016471 0.0005181 0.0007970 0.0003355 0.0003577 0.0006225 -0.0003447 0.0000001 -0.0014435 0.0000533 -0.0004131
0.0064358 0.0070037 0.0000723 -0.0006516 0.0009277 0.0011670 -0.0003850 -0.0010161 -0.0000413 -0.0016332 0.0005189 0.0008567 0.0003461 0.0003685 0.0006126 -0.0002966 -0.0000076 -0.0013959 0.0000491 -0.0003801
0.0052441 0.0042732 0.0000742 -0.0005885 0.0009222 0.0012032 -0.0003431 -0.0009660 -0.0000432 -0.0015687 0.0005237 0.0009580 0.0003537 0.0004326 0.0006098 -0.0002162 -0.0000047 -0.0013085 0.0000555 -0.0003164
0.0056451 -0.0127542 0.0000771 -0.0005239 0.0009182 0.0012638 -0.0003532 -0.0008816 -0.0000459 -0.0014828 0.0005215 0.0010472 0.0003369 0.0004851 0.0006031 -0.0001868 -0.0000095 -0.0012894 0.0000411 -0.0003011
0.0034142 -0.0087911 0.0000794 -0.0005688 0.0009204 0.0012437 -0.0003891 -0.0008741 -0.0000374 -0.0015241 0.0005188 0.0009968 0.0003398 0.0004164 0.0006110 -0.0002988 -0.0000147 -0.0014131 0.0000193 -0.0004099
-0.0005150 0.0011801 0.0000658 -0.0006815 0.0009217 0.0011089 -0.0004602 -0.0009500 -0.0000236 -0.0016471 0.0005236 0.0008732 0.0003403 0.0002947 0.0006220 -0.0004221 -0.0000081 -0.0015318 0.0000274 -0.0005077
0.0073676 -0.0001686 0.0000561 -0.0007118 0.0009176 0.0010037 -0.0005020 -0.0009766 -0.0000154 -0.0016802 0.0005185 0.0008084 0.0003304 0.0002351 0.0006099 -0.0004594 -0.0000072 -0.0015415 0.0000241 -0.0005255
0.0096541 -0.0111342 0.0000585 -0.0006913 0.0009087 0.0009753 -0.0004565 -0.0009769 -0.0000141 -0.0016523 0.0005059 0.0007826 0.0003396 0.0002313 0.0006053 -0.0004166 -0.0000078 -0.0014981 0.0000295 -0.0004816
-0.0068292 0.0096433 0.0000680 -0.0006281 0.0009038 0.0010011 -0.0003932 -0.0010017 -0.0000242 -0.0015903 0.0004949 0.0008027 0.0003452 0.0002670 0.0005916 -0.0003515 -0.0000090 -0.0014096 0.0000390 -0.0004265
-0.0052996 0.0137931 0.0000692 -0.0005471 0.0009040 0.0010516 -0.0003867 -0.0009611 -0.0000199 -0.0015051 0.0004824 0.0008299 0.0003506 0.0003286 0.0005899 -0.0003081 -0.0000102 -0.0013751 0.0000320 -0.0004092
-0.0028000 0.0147360 0.0000721 -0.0006090 0.0009051 0.0010128 -0.0004212 -0.0009492 -0.0000094 -0.0015547 0.0004714 0.0007244 0.0003550 0.0002469 0.0006004 -0.0004220 -0.0000108 -0.0014908 0.0000232 -0.0004950
-0.0012366 0.0065360 0.0000783 -0.0007469 0.0009065 0.0008735 -0.0004104 -0.0010784 0.0000042 -0.0016896 0.0004664 0.0005760 0.0003572 0.0001130 0.0006035 -0.0005568 -0.0000057 -0.0016007 0.0000114 -0.0005782
-0.0047091 -0.0139084 0.0000782 -0.0007888 0.0009079 0.0007845 -0.0003711 -0.0011860 0.0000142 -0.0017340 0.0004631 0.0005155 0.0003520 0.0000734 0.0006078 -0.0005685 -0.0000081 -0.0016151 0.0000067 -0.0005808
-0.0085327 -0.0070453 0.0000788 -0.0007533 0.0009136 0.0007863 -0.0003841 -0.0011667 0.0000112 -0.0017034 0.0004617 0.0005160 0.0003482 0.0000856 0.0006077 -0.0005280 -0.0000137 -0.0015727 0.0000070 -0.0005456
0.0080427 -0.0221117 0.0000741 -0.0006697 0.0009157 0.0008367 -0.0004142 -0.0011084 0.0000106 -0.0016395 0.0004642 0.0005628 0.0003439 0.0001528 0.0006020 -0.0004195 -0.0000127 -0.0014814 0.0000129 -0.0004568
0.0080765 -0.0054593 0.0000830 -0.0005701 0.0009162 0.0009161 -0.0003851 -0.0010693 0.0000115 -0.0015582 0.0004700 0.0006352 0.0003502 0.0002122 0.0006035 -0.0003642 -0.0000326 -0.0014950 0.0000087 -0.0004715
0.0014472 0.0092687 0.0000916 -0.0006153 0.0009205 0.0008949 -0.0003169 -0.0011485 0.0000132 -0.0016075 0.0004707 0.0005810 0.0003646 0.0001546 0.0006189 -0.0004307 -0.0000555 -0.0016539 0.0000065 -0.0005880
0.0006462 0.0047960 0.0000860 -0.0007350 0.0009309 0.0007929 -0.0002979 -0.0012685 0.0000251 -0.0017329 0.0004649 0.0004377 0.0003751 0.0000415 0.0006171 -0.0005155 -0.0000567 -0.0017408 -0.0000018 -0.0006438
0.0013216 -0.0065550 0.0000877 -0.0007665 0.0009332 0.0007360 -0.0003240 -0.0012942 0.0000424 -0.0017474 0.0004604 0.0003838 0.0003904 0.0000184 0.0006238 -0.0004985 -0.0000533 -0.0017131 -0.0000182 -0.0006167
-0.0200374 0.0114087 0.0000813 -0.0007099 0.0009339 0.0007536 -0.0003653 -0.0012693 0.0000487 -0.0017134 0.0004556 0.0003787 0.0003803 0.0000554 0.0006272 -0.0004306 -0.0000551 -0.0016444 -0.0000249 -0.0005685
-0.0063705 0.0131680 0.0000767 -0.0006302 0.0009366 0.0008080 -0.0004045 -0.0012041 0.0000549 -0.0016483 0.0004550 0.0004184 0.0003669 0.0001474 0.0006222 -0.0003344 -0.0000564 -0.0015434 -0.0000254 -0.0004870
0.0021655 0.0090490 0.0000843 -0.0005440 0.0009359 0.0008717 -0.0004611 -0.0010698 0.0000634 -0.0015590 0.0004687 0.0004835 0.0003953 0.0002538 0.0006796 -0.0002010 -0.0000853 -0.0016614 0.0000021 -0.0004196
0.0055690 -0.0025599 0.0001181 -0.0004812 0.0009962 0.0009858 -0.0004769 -0.0011373 0.0002328 -0.0012687 0.0010591 0.0025402 0.0007579 0.0012569 0.0010346 0.0007213 -0.0002304 -0.0021723 0.0000277 -0.0004167
-0.0004810 0.0033580 0.0001244 -0.0005800 0.0008880 0.0005736 -0.0006074 -0.0016205 0.0005281 -0.0006996 0.0015075 0.0042216 0.0010291 0.0020275 0.0012071 0.0012759 -0.0002124 -0.0021184 0.0000521 -0.0003929
-0.0011084 0.0136598 0.0001014 -0.0006974 0.0006424 -0.0001507 -0.0007275 -0.0019810 0.0006556 -0.0004019 0.0013060 0.0035809 0.0009446 0.0017594 0.0010407 0.0009195 -0.0000363 -0.0015841 0.0000908 -0.0003084
0.0012730 0.0090777 0.0000959 -0.0006668 0.0005442 -0.0004266 -0.0006708 -0.0020247 0.0006290 -0.0004723 0.0011034 0.0028143 0.0008752 0.0015767 0.0009531 0.0007618 0.0000304 -0.0013354 0.0001092 -0.0001913
-0.0049007 0.0101830 0.0000938 -0.0006206 0.0005389 -0.0003718 -0.0006260 -0.0020040 0.0005646 -0.0005857 0.0008828 0.0020969 0.0007820 0.0014196 0.0008420 0.0006475 0.0000742 -0.0010578 0.0000591 -0.0001489
-0.0044489 0.0038743 0.0000930 -0.0005439 0.0006083 -0.0000686 -0.0006673 -0.0017391 0.0003963 -0.0008740 0.0006684 0.0013695 0.0007065 0.0012729 0.0008096 0.0005187 -0.0000036 -0.0012436 0.0000253 -0.0001386
-0.0026926 -0.0048955 0.0001197 -0.0004618 0.0008251 0.0004445 -0.0006067 -0.0014628 0.0002234 -0.0012720 0.0005644 0.0008929 0.0006907 0.0011382 0.0008373 0.0003009 -0.0001175 -0.0017165 0.0000186 -0.0002394
0.0014845 0.0071366 0.0001383 -0.0005757 0.0009904 0.0007172 -0.0004246 -0.0014772 0.0001747 -0.0015137 0.0004941 0.0004985 0.0006365 0.0008137 0.0007809 0.0000134 -0.0001049 -0.0017461 -0.0000169 -0.0003913
0.0000531 0.0143956 0.0001246 -0.0006929 0.0009972 0.0006931 -0.0003707 -0.0014838 0.0001513 -0.0016144 0.0004401 0.0002455 0.0005663 0.0005470 0.0007273 -0.0001509 -0.0000751 -0.0016365 -0.0000258 -0.0004200
-0.0037801 0.0036538 0.0001398 -0.0006682 0.0010194 0.0007604 -0.0003187 -0.0014449 0.0001240 -0.0016520 0.0004350 0.0002379 0.0005501 0.0004951 0.0007115 -0.0001227 -0.0000695 -0.0015613 -0.0000250 -0.0003777
-0.0026417 0.0029484 0.0001451 -0.0005843 0.0010454 0.0008906 -0.0002547 -0.0013747 0.0001036 -0.0016429 0.0004199 0.0002334 0.0005244 0.0004349 0.0006800 -0.0000829 -0.0000640 -0.0014319 -0.0000401 -0.0003129
0.0023176 -0.0023576 0.0001413 -0.0004950 0.0010570 0.0010035 -0.0002630 -0.0012079 0.0000963 -0.0015918 0.0003899 0.0001832 0.0004946 0.0003963 0.0006714 -0.0001135 -0.0000569 -0.0013983 -0.0000524 -0.0003250
0.0107493 -0.0161860 0.0001398 -0.0005731 0.0010729 0.0009905 -0.0002546 -0.0012072 0.0000990 -0.0016547 0.0003715 0.0000375 0.0004743 0.0002327 0.0006859 -0.0002514 -0.0000525 -0.0015276 -0.0000623 -0.0004200
0.0062007 -0.0056097 0.0001313 -0.0007241 0.0010922 0.0008929 -0.0002709 -0.0012874 0.0001046 -0.0017782 0.0003498 -0.0001581 0.0004583 0.0000207 0.0006876 -0.0003625 -0.0000481 -0.0016185 -0.0000693 -0.0004863
0.0055835 -0.0084709 0.0001319 -0.0007454 0.0011005 0.0008456 -0.0003112 -0.0012819 0.0001141 -0.0017789 0.0003339 -0.0002570 0.0004392 -0.0000557 0.0006869 -0.0003584 -0.0000485 -0.0016129 -0.0000568 -0.0004791
