-0.0000000 -0.0000000 -0.0000000 -0.0000000 -0.0000000 -0.0000000 -0.0000000 -0.0000000 -0.0000000 -0.0000000 -0.0000000 -0.0000000 -0.0000000 -0.0000000 -0.0000000 -0.0000000 -0.0000000 -0.0000000 -0.0000000 -0.0000000
-0.0000000 -0.0000000 -0.0000000 -0.0000000 -0.0000000 -0.0000000 -0.0000000 -0.0000000 -0.0000000 -0.0000000 -0.0000000 -0.0000000 -0.0000000 -0.0000000 -0.0000000 -0.0000000 -0.0000000 -0.0000000 -0.0000000 -0.0000000
0.0000060 0.0000788 0.0000020 0.0000327 -0.0000025 0.0000872 -0.0000039 0.0000860 -0.0000055 0.0000850 -0.0000218 0.0000242 -0.0000122 0.0000791 -0.0000098 0.0000070 -0.0000093 -0.0000103 -0.0000766 -0.0001371
-0.0000348 -0.0000699 0.0000252 0.0000267 0.0000062 0.0000629 -0.0000114 -0.0000469 0.0000028 -0.0000137 -0.0000590 -0.0001520 -0.0000496 -0.0000844 0.0000164 -0.0000390 -0.0000098 -0.0000601 -0.0001324 -0.0003454
-0.0000453 -0.0000497 0.0000891 0.0001606 0.0000201 0.0000687 0.0000115 -0.0000476 0.0000076 -0.0000869 -0.0000930 -0.0001592 -0.0001177 -0.0001746 0.0000178 0.0000407 -0.0000111 0.0000263 -0.0000403 -0.0000256
0.0000219 0.0002659 0.0000687 0.0001618 -0.0000205 0.0001050 -0.0000178 0.0000077 0.0000094 0.0000538 -0.0001076 -0.0000597 -0.0001118 0.0000321 -0.0000195 0.0000931 -0.0000243 0.0001178 -0.0000075 0.0002879
0.0000131 0.0004186 0.0000574 0.0002503 -0.0000412 0.0002081 -0.0000089 0.0002811 -0.0000151 0.0002067 -0.0001158 0.0001492 -0.0001388 0.0001857 -0.0000224 0.0001170 -0.0000294 0.0001674 -0.0000311 0.0003527
-0.0000006 0.0004245 0.0000377 0.0002506 -0.0000497 0.0002112 -0.0000319 0.0002496 -0.0000345 0.0001720 -0.0001200 0.0001692 -0.0001628 0.0001531 -0.0000127 0.0000532 -0.0000387 0.0000956 -0.0001005 0.0001580
-0.0000400 0.0002375 0.0000248 0.0001396 -0.0000541 0.0000887 -0.0000502 0.0000664 -0.0000478 0.0000205 -0.0001250 0.0000847 -0.0001922 0.0000333 -0.0000303 0.0000032 -0.0000429 0.0000652 -0.0000894 0.0002012
-0.0000509 0.0001889 0.0000021 0.0001224 -0.0000698 0.0000967 -0.0000362 0.0002085 -0.0000617 0.0001199 -0.0001313 0.0002054 -0.0002258 0.0001571 -0.0000438 0.0000555 -0.0000414 0.0001036 -0.0000753 0.0004180
-0.0000561 0.0002639 -0.0000232 0.0001644 -0.0000968 0.0002023 -0.0000402 0.0004311 -0.0000804 0.0002569 -0.0001572 0.0003627 -0.0002638 0.0003166 -0.0000519 0.0001176 -0.0000590 0.0001982 -0.0001118 0.0006543
-0.0000852 0.0003827 -0.0000501 0.0002070 -0.0001285 0.0003083 -0.0000661 0.0005744 -0.0001124 0.0003600 -0.0001916 0.0004041 -0.0003004 0.0003329 -0.0000433 0.0001042 -0.0000733 0.0001721 -0.0002070 0.0005144
-0.0001182 0.0003196 -0.0000718 0.0001439 -0.0001564 0.0001925 -0.0001046 0.0004174 -0.0001324 0.0002674 -0.0002257 0.0002682 -0.0003598 0.0001952 -0.0000541 0.0000780 -0.0000788 0.0000894 -0.0003051 0.0002448
-0.0001586 0.0002123 -0.0000520 0.0001188 -0.0001676 0.0000459 -0.0000512 0.0004794 -0.0001183 0.0002683 -0.0002263 0.0003545 -0.0003864 0.0002498 0.0000300 0.0003630 -0.0000463 0.0002551 -0.0004362 0.0000591
-0.0002128 0.0003363 -0.0000061 0.0003612 -0.0001628 0.0001677 0.0000491 0.0009101 -0.0001185 0.0004944 -0.0002241 0.0005715 -0.0003543 0.0005581 0.0000593 0.0004638 -0.0000498 0.0003806 -0.0004661 0.0002470
-0.0002727 0.0004670 -0.0000119 0.0005035 -0.0001963 0.0003073 0.0000120 0.0010791 -0.0001815 0.0005748 -0.0001982 0.0008098 -0.0003297 0.0007849 -0.0000250 0.0003033 -0.0000705 0.0003136 -0.0004015 0.0004953
-0.0003285 0.0004294 -0.0000157 0.0004718 -0.0002286 0.0002310 -0.0000593 0.0009153 -0.0002417 0.0003873 -0.0001676 0.0009015 -0.0003765 0.0006428 -0.0000182 0.0002997 -0.0000629 0.0002470 -0.0004463 0.0002485
-0.0003803 0.0003288 0.0000289 0.0004561 -0.0002173 0.0001073 -0.0000638 0.0007607 -0.0002559 0.0001996 -0.0001711 0.0008257 -0.0004003 0.0005187 0.0000052 0.0002637 -0.0000429 0.0002238 -0.0004278 0.0002824
-0.0003828 0.0003469 0.0000343 0.0004655 -0.0002107 0.0001620 -0.0000450 0.0008926 -0.0002484 0.0002874 -0.0001662 0.0009344 -0.0003790 0.0006838 0.0000257 0.0003295 -0.0000322 0.0003048 -0.0004033 0.0004560
-0.0003789 0.0004946 0.0000203 0.0005700 -0.0002076 0.0003080 -0.0000351 0.0011149 -0.0002720 0.0004737 -0.0001938 0.0010439 -0.0003989 0.0008605 0.0000082 0.0004454 -0.0000332 0.0003792 -0.0004345 0.0005391
-0.0003758 0.0006044 0.0000237 0.0005653 -0.0002114 0.0003397 -0.0000808 0.0010163 -0.0003080 0.0004085 -0.0002359 0.0009168 -0.0004230 0.0007648 0.0000131 0.0003963 -0.0000470 0.0003181 -0.0004871 0.0004160
-0.0003783 0.0005413 0.0000513 0.0004708 -0.0002056 0.0001944 -0.0001267 0.0006973 -0.0003202 0.0001790 -0.0002418 0.0007141 -0.0004015 0.0005684 0.0000270 0.0003005 -0.0000454 0.0002345 -0.0004440 0.0003230
-0.0003477 0.0004745 0.0000786 0.0004843 -0.0001811 0.0001507 -0.0001077 0.0006959 -0.0003186 0.0001941 -0.0002306 0.0007097 -0.0003461 0.0007132 0.0001017 0.0005455 0.0000142 0.0003091 -0.0003691 0.0005598
-0.0002098 0.0011481 0.0002863 0.0009945 -0.0001176 0.0004504 -0.0000786 0.0008303 -0.0002632 0.0004260 -0.0003123 0.0005162 -0.0002680 0.0009600 0.0001188 0.0007526 -0.0000037 0.0003933 -0.0001303 0.0015557
0.0001034 0.0023734 0.0004495 0.0014710 -0.0001058 0.0007365 -0.0003461 0.0002186 -0.0003291 0.0002702 -0.0003657 0.0003857 -0.0002683 0.0008953 0.0000528 0.0006365 -0.0000902 0.0002260 0.0000312 0.0019936
0.0002408 0.0026219 0.0004541 0.0014646 -0.0001956 0.0003250 -0.0004803 -0.0002900 -0.0003990 -0.0000127 -0.0004182 0.0001622 -0.0004560 0.0002330 0.0000208 0.0003385 -0.0001139 -0.0000173 -0.0000732 0.0013293
0.0001426 0.0017976 0.0003478 0.0010332 -0.0002433 -0.0002826 -0.0003507 -0.0002435 -0.0003664 -0.0000615 -0.0004989 -0.0002094 -0.0005804 -0.0004093 -0.0001126 -0.0001142 -0.0001127 -0.0001623 -0.0000747 0.0009946
0.0001375 0.0009536 0.0000561 0.0001941 -0.0002056 -0.0003812 -0.0004105 -0.0004942 -0.0003246 0.0001124 -0.0005624 -0.0005706 -0.0004646 -0.0004014 -0.0002567 -0.0004692 -0.0001774 -0.0003509 0.0000314 0.0011428
0.0002545 0.0009116 0.0000687 0.0000862 -0.0001103 -0.0000895 -0.0004642 -0.0006694 -0.0003178 0.0000623 -0.0007615 -0.0011917 -0.0004239 -0.0000711 0.0001087 0.0005470 -0.0001619 0.0000435 0.0001421 0.0014703
0.0006450 0.0022648 0.0002691 0.0004050 -0.0000567 0.0002592 -0.0007028 -0.0014994 -0.0002136 0.0001443 -0.0009144 -0.0018945 -0.0002913 0.0003211 0.0004256 0.0013008 -0.0000624 0.0004105 0.0001471 0.0010680
0.0007684 0.0022852 0.0002258 0.0001692 -0.0001517 -0.0001526 -0.0007852 -0.0020662 -0.0000986 0.0003761 -0.0009747 -0.0024529 -0.0001526 0.0002287 0.0003361 0.0009295 -0.0001033 0.0001712 0.0002157 0.0008491
0.0006934 0.0014464 0.0001555 -0.0000994 -0.0002301 -0.0006766 -0.0005504 -0.0015679 -0.0000489 0.0004092 -0.0009374 -0.0024145 -0.0001215 0.0001147 0.0003728 0.0010916 -0.0001376 0.0001776 0.0003633 0.0012925
0.0008639 0.0021975 0.0002217 0.0001305 -0.0001008 -0.0001893 -0.0006353 -0.0017739 -0.0000077 0.0005070 -0.0008356 -0.0021969 0.0000661 0.0006412 0.0004646 0.0013415 -0.0000489 0.0004011 0.0003702 0.0013147
0.0008962 0.0025369 0.0003195 0.0004713 -0.0000388 0.0000720 -0.0006120 -0.0016086 0.0000022 0.0005355 -0.0007457 -0.0019753 0.0001166 0.0006874 0.0005499 0.0014313 -0.0000130 0.0004501 0.0003895 0.0012503
0.0008935 0.0030296 0.0005365 0.0011106 0.0000868 0.0004381 -0.0004606 -0.0013655 0.0001170 0.0006236 -0.0006085 -0.0017987 0.0001552 0.0005804 0.0006023 0.0014695 0.0000118 0.0004571 0.0004102 0.0010781
0.0009346 0.0035703 0.0006946 0.0015922 0.0002119 0.0007478 -0.0004382 -0.0015504 0.0001216 0.0004522 -0.0004562 -0.0015247 0.0001906 0.0005004 0.0005501 0.0013887 -0.0000746 0.0002990 0.0004887 0.0012382
0.0008968 0.0033440 0.0006797 0.0015513 0.0000827 0.0002653 -0.0002252 -0.0008237 0.0001277 0.0006285 -0.0002817 -0.0008992 0.0001875 0.0004513 0.0003533 0.0008410 -0.0001621 0.0000235 0.0004679 0.0012498
0.0009201 0.0030331 0.0005421 0.0012225 -0.0000234 -0.0000558 -0.0002062 -0.0005201 0.0001584 0.0008729 -0.0001946 -0.0005396 0.0002810 0.0006874 0.0000987 0.0000778 -0.0000969 -0.0000755 0.0001887 0.0003807
0.0008284 0.0019613 0.0002865 0.0004311 -0.0001221 -0.0005715 -0.0001535 -0.0003715 0.0001637 0.0009544 -0.0001874 -0.0006245 0.0002810 0.0003508 -0.0001896 -0.0008571 -0.0001015 -0.0003919 0.0001420 -0.0000916
0.0006843 0.0006443 0.0000367 -0.0003773 -0.0001339 -0.0009753 -0.0001220 -0.0005467 0.0001398 0.0008004 -0.0001204 -0.0007125 0.0002951 0.0000691 -0.0003296 -0.0013815 -0.0000387 -0.0004715 0.0001845 -0.0001035
0.0006511 0.0002076 -0.0001031 -0.0006753 -0.0000696 -0.0009425 -0.0002144 -0.0009650 0.0001246 0.0006085 -0.0001075 -0.0008208 0.0003458 0.0000314 -0.0003686 -0.0014199 0.0000023 -0.0003523 0.0002798 0.0001316
0.0005736 0.0001167 -0.0000692 -0.0005733 -0.0000852 -0.0010049 -0.0000757 -0.0005078 0.0001573 0.0006706 -0.0000746 -0.0006230 0.0003476 0.0001000 -0.0004145 -0.0014486 -0.0000074 -0.0002891 0.0003110 0.0002594
0.0005373 0.0000660 -0.0001471 -0.0007318 -0.0001046 -0.0009049 -0.0001481 -0.0005938 0.0001158 0.0006303 -0.0000330 -0.0004743 0.0003718 0.0001511 -0.0003988 -0.0014701 0.0000185 -0.0002982 0.0001412 -0.0002174
0.0004161 -0.0003252 -0.0002250 -0.0009779 -0.0000875 -0.0009998 -0.0001449 -0.0007616 0.0001211 0.0005389 -0.0000340 -0.0006325 0.0003721 -0.0000974 -0.0004458 -0.0017033 -0.0000220 -0.0005353 0.0001267 -0.0004253
0.0003064 -0.0008607 -0.0002790 -0.0012443 -0.0000571 -0.0011838 -0.0000822 -0.0008289 0.0001651 0.0004444 0.0000203 -0.0006033 0.0003751 -0.0001679 -0.0004436 -0.0017039 -0.0000081 -0.0006074 0.0001441 -0.0004282
0.0002975 -0.0010222 -0.0003297 -0.0013547 -0.0000124 -0.0010674 -0.0001281 -0.0009582 0.0001549 0.0004187 0.0000122 -0.0006359 0.0004030 -0.0001338 -0.0004412 -0.0016579 -0.0000129 -0.0006351 0.0002133 -0.0001932
0.0002901 -0.0009478 -0.0002996 -0.0012497 -0.0000062 -0.0009856 -0.0000562 -0.0006388 0.0001617 0.0005400 0.0000152 -0.0005059 0.0003937 -0.0000427 -0.0004477 -0.0016156 -0.0000714 -0.0006848 0.0002516 -0.0000576
0.0003299 -0.0008019 -0.0003219 -0.0012642 0.0000021 -0.0008436 -0.0000801 -0.0006118 0.0001497 0.0005108 0.0000139 -0.0005179 0.0003690 -0.0001012 -0.0004565 -0.0016714 -0.0000971 -0.0007805 0.0001976 -0.0004057
0.0003357 -0.0009703 -0.0003527 -0.0013941 0.0000189 -0.0009872 -0.0001328 -0.0010065 0.0001350 0.0002057 0.0000083 -0.0008162 0.0003723 -0.0004279 -0.0004753 -0.0018634 -0.0000653 -0.0009216 0.0002658 -0.0006317
0.0003416 -0.0012863 -0.0003752 -0.0015392 0.0000367 -0.0012744 -0.0001429 -0.0013806 0.0001379 -0.0000609 0.0000560 -0.0009681 0.0004136 -0.0005616 -0.0004508 -0.0018831 0.0000233 -0.0008696 0.0003583 -0.0006182
0.0003609 -0.0014168 -0.0003603 -0.0016074 0.0000707 -0.0013250 -0.0000758 -0.0012915 0.0001619 -0.0001249 0.0000986 -0.0009425 0.0004384 -0.0005269 -0.0004230 -0.0018189 0.0000634 -0.0007811 0.0004280 -0.0004010
0.0003870 -0.0014244 -0.0003536 -0.0016747 0.0000937 -0.0012718 -0.0000482 -0.0011645 0.0001453 -0.0001111 0.0001059 -0.0008717 0.0004698 -0.0004049 -0.0003747 -0.0016574 0.0000459 -0.0006310 0.0005090 0.0000130
0.0004231 -0.0012432 -0.0003244 -0.0016036 0.0000916 -0.0011847 -0.0000589 -0.0010222 0.0001302 -0.0000757 0.0001192 -0.0007616 0.0004893 -0.0003682 -0.0003401 -0.0015737 0.0000372 -0.0005856 0.0005132 -0.0001045
0.0003727 -0.0013724 -0.0002993 -0.0016927 0.0000938 -0.0013100 -0.0000571 -0.0011507 0.0001411 -0.0002116 0.0001663 -0.0007607 0.0004677 -0.0006284 -0.0003496 -0.0016899 0.0000490 -0.0007290 0.0004886 -0.0004592
0.0003237 -0.0017260 -0.0003103 -0.0019052 0.0001218 -0.0015267 -0.0000303 -0.0013989 0.0001620 -0.0003677 0.0002015 -0.0008569 0.0004709 -0.0008444 -0.0003641 -0.0017489 0.0000707 -0.0007811 0.0005181 -0.0004174
0.0003434 -0.0018008 -0.0003256 -0.0019691 0.0001480 -0.0015267 0.0000105 -0.0013217 0.0001972 -0.0003600 0.0002078 -0.0008325 0.0004893 -0.0008235 -0.0003528 -0.0017329 0.0000768 -0.0007209 0.0005515 -0.0002055
0.0003682 -0.0016888 -0.0003457 -0.0019353 0.0001520 -0.0013979 0.0000179 -0.0011267 0.0001832 -0.0002319 0.0001936 -0.0007099 0.0004918 -0.0006807 -0.0003478 -0.0016595 0.0000560 -0.0006207 0.0005782 0.0000785
0.0003969 -0.0014595 -0.0003600 -0.0018596 0.0001301 -0.0012149 -0.0000233 -0.0009887 0.0001558 -0.0001628 0.0001462 -0.0007630 0.0004816 -0.0006472 -0.0003592 -0.0016624 0.0000406 -0.0006446 0.0005162 -0.0000913
0.0003765 -0.0015335 -0.0003694 -0.0020059 0.0001100 -0.0013180 -0.0000577 -0.0012334 0.0001713 -0.0003034 0.0001353 -0.0009992 0.0005093 -0.0007636 -0.0003604 -0.0016745 0.0000567 -0.0007267 0.0004135 -0.0005339
0.0003123 -0.0018588 -0.0003571 -0.0021451 0.0001267 -0.0014946 -0.0000488 -0.0015151 0.0001835 -0.0004759 0.0001204 -0.0012080 0.0005067 -0.0008869 -0.0003518 -0.0016136 0.0000664 -0.0006891 0.0004393 -0.0005588
0.0002598 -0.0018961 -0.0003222 -0.0020335 0.0001496 -0.0014097 -0.0000335 -0.0014253 0.0001472 -0.0005391 0.0000855 -0.0011868 0.0004414 -0.0009550 -0.0003513 -0.0015494 0.0000615 -0.0005903 0.0004887 -0.0002218
0.0002611 -0.0016557 -0.0003057 -0.0018335 0.0001430 -0.0012400 -0.0000296 -0.0011696 0.0001171 -0.0004250 0.0000936 -0.0009348 0.0004276 -0.0008085 -0.0003529 -0.0014238 0.0000637 -0.0004654 0.0004854 0.0000679
0.0002850 -0.0015139 -0.0002962 -0.0017796 0.0001305 -0.0011389 -0.0000566 -0.0011236 0.0001083 -0.0004538 0.0000861 -0.0009298 0.0004203 -0.0008746 -0.0003633 -0.0014548 0.0000514 -0.0005081 0.0004452 -0.0001058
0.0002571 -0.0016522 -0.0003047 -0.0018760 0.0001195 -0.0012895 -0.0000955 -0.0014255 0.0001012 -0.0007072 0.0000938 -0.0011080 0.0003852 -0.0011884 -0.0003638 -0.0015942 0.0000493 -0.0006416 0.0004455 -0.0003082
0.0002180 -0.0017858 -0.0003176 -0.0018697 0.0001175 -0.0014107 -0.0000974 -0.0015606 0.0000940 -0.0008336 0.0001086 -0.0011178 0.0003583 -0.0012653 -0.0003502 -0.0015950 0.0000367 -0.0005997 0.0004882 -0.0001420
0.0002220 -0.0017051 -0.0003209 -0.0017786 0.0001154 -0.0013041 -0.0000789 -0.0013821 0.0000918 -0.0007672 0.0001064 -0.0009735 0.0003349 -0.0011463 -0.0003671 -0.0014652 0.0000209 -0.0004915 0.0004991 0.0001275
0.0002080 -0.0015141 -0.0003350 -0.0016327 0.0001024 -0.0011148 -0.0000822 -0.0011221 0.0000728 -0.0005919 0.0000866 -0.0007861 0.0003105 -0.0009880 -0.0003617 -0.0013965 -0.0000010 -0.0004222 0.0004689 0.0001486
0.0001762 -0.0014741 -0.0003251 -0.0016510 0.0000888 -0.0011145 -0.0001217 -0.0012390 0.0000499 -0.0006568 0.0000689 -0.0008769 0.0002896 -0.0011139 -0.0003481 -0.0014712 -0.0000099 -0.0004902 0.0004413 -0.0001207
0.0001583 -0.0016202 -0.0003185 -0.0017510 0.0000816 -0.0012786 -0.0001445 -0.0015391 0.0000469 -0.0008620 0.0000740 -0.0010683 0.0002774 -0.0013287 -0.0003563 -0.0015020 0.0000010 -0.0005490 0.0004441 -0.0001337
0.0001491 -0.0016616 -0.0003313 -0.0017167 0.0000728 -0.0012832 -0.0001259 -0.0014679 0.0000662 -0.0008435 0.0000842 -0.0009974 0.0002751 -0.0012755 -0.0003838 -0.0013953 0.0000010 -0.0004733 0.0004603 0.0000963
0.0001428 -0.0015812 -0.0003412 -0.0016371 0.0000492 -0.0011560 -0.0001092 -0.0012010 0.0000653 -0.0006960 0.0000779 -0.0008139 0.0002369 -0.0010981 -0.0004095 -0.0012600 -0.0000081 -0.0003435 0.0004599 0.0003752
0.0001248 -0.0014124 -0.0003603 -0.0015126 0.0000155 -0.0009679 -0.0001189 -0.0009258 0.0000270 -0.0005454 0.0000607 -0.0006780 0.0002034 -0.0010312 -0.0004017 -0.0012756 -0.0000160 -0.0003342 0.0003770 0.0002647
0.0000771 -0.0014838 -0.0003729 -0.0015562 -0.0000074 -0.0010233 -0.0001600 -0.0010957 0.0000087 -0.0006797 0.0000550 -0.0007606 0.0001750 -0.0012231 -0.0004003 -0.0013507 -0.0000351 -0.0004170 0.0003285 -0.0000303
0.0000312 -0.0016826 -0.0003771 -0.0016592 -0.0000147 -0.0011897 -0.0001774 -0.0013585 0.0000111 -0.0008735 0.0000677 -0.0008159 0.0001493 -0.0013540 -0.0004001 -0.0013124 -0.0000378 -0.0003960 0.0003681 0.0000650
0.0000211 -0.0016264 -0.0003828 -0.0015943 -0.0000174 -0.0011170 -0.0001619 -0.0012191 0.0000115 -0.0008198 0.0000777 -0.0006768 0.0001364 -0.0012491 -0.0004051 -0.0012078 -0.0000312 -0.0003103 0.0003882 0.0002866
0.0000114 -0.0014565 -0.0003871 -0.0014778 -0.0000292 -0.0009435 -0.0001556 -0.0009796 0.0000035 -0.0006626 0.0000676 -0.0004998 0.0001266 -0.0010554 -0.0004071 -0.0011208 -0.0000390 -0.0002505 0.0003365 0.0003354
-0.0000106 -0.0014150 -0.0003921 -0.0014587 -0.0000422 -0.0009105 -0.0001899 -0.0010778 -0.0000220 -0.0007412 0.0000468 -0.0005893 0.0000977 -0.0011718 -0.0003889 -0.0011178 -0.0000497 -0.0002998 0.0003184 0.0001893
-0.0000070 -0.0014608 -0.0003791 -0.0015043 -0.0000327 -0.0010066 -0.0002365 -0.0014409 -0.0000454 -0.0010172 0.0000501 -0.0007884 0.0000655 -0.0014555 -0.0004015 -0.0011177 -0.0000670 -0.0003642 0.0003603 0.0001653
0.0000192 -0.0014408 -0.0003535 -0.0014314 -0.0000078 -0.0009578 -0.0002374 -0.0015063 -0.0000587 -0.0011129 0.0000678 -0.0007460 0.0000581 -0.0014710 -0.0004085 -0.0011090 -0.0000628 -0.0003625 0.0003775 0.0003245
0.0000276 -0.0013580 -0.0003432 -0.0012904 0.0000061 -0.0007794 -0.0002282 -0.0013356 -0.0000836 -0.0010566 0.0000737 -0.0005722 0.0000492 -0.0013438 -0.0004117 -0.0010605 -0.0000739 -0.0002812 0.0004022 0.0005528
0.0000193 -0.0011653 -0.0003288 -0.0011539 0.0000081 -0.0005618 -0.0002488 -0.0012406 -0.0001088 -0.0010576 0.0000718 -0.0005075 0.0000339 -0.0013498 -0.0004356 -0.0010690 -0.0001007 -0.0003017 0.0003381 0.0003842
0.0000043 -0.0012621 -0.0003118 -0.0011917 0.0000118 -0.0006294 -0.0002800 -0.0015240 -0.0001118 -0.0012642 0.0000777 -0.0006664 0.0000185 -0.0015681 -0.0004316 -0.0011792 -0.0000970 -0.0004335 0.0003172 0.0000618
0.0000102 -0.0014935 -0.0003129 -0.0012549 0.0000251 -0.0008108 -0.0002729 -0.0017995 -0.0000838 -0.0014522 0.0001005 -0.0007423 0.0000440 -0.0016691 -0.0004143 -0.0011981 -0.0000680 -0.0004638 0.0003877 0.0001378
0.0000408 -0.0014512 -0.0002974 -0.0012173 0.0000416 -0.0007602 -0.0002338 -0.0017096 -0.0000556 -0.0014195 0.0001116 -0.0006406 0.0000724 -0.0015654 -0.0004116 -0.0011251 -0.0000636 -0.0003866 0.0004233 0.0003169
0.0000455 -0.0012711 -0.0002921 -0.0011439 0.0000452 -0.0006215 -0.0002054 -0.0014767 -0.0000545 -0.0012535 0.0001015 -0.0004786 0.0000698 -0.0013843 -0.0004044 -0.0010514 -0.0000727 -0.0003186 0.0004021 0.0003376
0.0000382 -0.0011992 -0.0003036 -0.0011152 0.0000437 -0.0006063 -0.0002131 -0.0015527 -0.0000485 -0.0013010 0.0000932 -0.0005396 0.0000709 -0.0014648 -0.0004014 -0.0010877 -0.0000693 -0.0003975 0.0003763 0.0001057
0.0000407 -0.0013383 -0.0002901 -0.0011925 0.0000505 -0.0007588 -0.0002159 -0.0018517 -0.0000209 -0.0014948 0.0001031 -0.0007122 0.0000874 -0.0016446 -0.0003967 -0.0011241 -0.0000568 -0.0004574 0.0004186 0.0000053
0.0000531 -0.0013630 -0.0002794 -0.0011468 0.0000622 -0.0007799 -0.0001801 -0.0018445 0.0000026 -0.0015071 0.0001131 -0.0006661 0.0001037 -0.0015673 -0.0003865 -0.0010606 -0.0000566 -0.0003745 0.0004492 0.0001927
0.0001015 -0.0012134 -0.0002649 -0.0010228 0.0000698 -0.0006512 -0.0001494 -0.0016352 0.0000067 -0.0013848 0.0001042 -0.0005192 0.0001063 -0.0013961 -0.0003745 -0.0009777 -0.0000549 -0.0002520 0.0004769 0.0004727
0.0001370 -0.0009861 -0.0002457 -0.0008963 0.0000637 -0.0004809 -0.0001429 -0.0013830 -0.0000089 -0.0011971 0.0000811 -0.0004001 0.0001051 -0.0012459 -0.0003545 -0.0009227 -0.0000580 -0.0001873 0.0004345 0.0004811
0.0000976 -0.0009031 -0.0002385 -0.0008882 0.0000508 -0.0005136 -0.0001709 -0.0015249 -0.0000154 -0.0012631 0.0000634 -0.0005045 0.0001087 -0.0013288 -0.0003713 -0.0009273 -0.0000727 -0.0002375 0.0003717 0.0002559
0.0000664 -0.0010321 -0.0002367 -0.0009473 0.0000491 -0.0006828 -0.0001814 -0.0018089 -0.0000008 -0.0014312 0.0000701 -0.0006210 0.0001070 -0.0014459 -0.0003806 -0.0009429 -0.0000663 -0.0002798 0.0003993 0.0002465
0.0000924 -0.0010618 -0.0002266 -0.0009188 0.0000547 -0.0006732 -0.0001554 -0.0017473 0.0000187 -0.0014177 0.0000815 -0.0005263 0.0001110 -0.0013772 -0.0003661 -0.0009259 -0.0000567 -0.0002337 0.0004571 0.0003616
0.0001136 -0.0009544 -0.0002144 -0.0008648 0.0000524 -0.0005643 -0.0001388 -0.0015533 0.0000242 -0.0013118 0.0000742 -0.0003733 0.0001060 -0.0012291 -0.0003476 -0.0008960 -0.0000565 -0.0001663 0.0004427 0.0005067
0.0001031 -0.0008528 -0.0002308 -0.0008547 0.0000425 -0.0005109 -0.0001494 -0.0015393 0.0000135 -0.0012721 0.0000638 -0.0003942 0.0001035 -0.0012674 -0.0003462 -0.0009300 -0.0000780 -0.0002176 0.0003776 0.0003380
0.0000780 -0.0009816 -0.0002309 -0.0009437 0.0000360 -0.0006414 -0.0001637 -0.0017794 0.0000106 -0.0014008 0.0000654 -0.0005485 0.0001078 -0.0014510 -0.0003437 -0.0010018 -0.0000709 -0.0003211 0.0003721 0.0001073
0.0000909 -0.0011363 -0.0002141 -0.0009811 0.0000379 -0.0007387 -0.0001413 -0.0018523 0.0000285 -0.0014395 0.0000764 -0.0005470 0.0001250 -0.0014433 -0.0003396 -0.0009811 -0.0000510 -0.0002929 0.0003979 0.0002247
0.0001132 -0.0010802 -0.0002062 -0.0009340 0.0000470 -0.0006630 -0.0001075 -0.0016838 0.0000403 -0.0013176 0.0000803 -0.0004220 0.0001382 -0.0012849 -0.0003338 -0.0009247 -0.0000538 -0.0002016 0.0003990 0.0003973
0.0001146 -0.0009460 -0.0002183 -0.0008298 0.0000438 -0.0005232 -0.0000822 -0.0014176 0.0000341 -0.0011278 0.0000626 -0.0002570 0.0001211 -0.0011168 -0.0003090 -0.0008987 -0.0000632 -0.0001459 0.0003581 0.0003334
0.0001005 -0.0009570 -0.0002364 -0.0008122 0.0000387 -0.0005557 -0.0001016 -0.0015391 0.0000414 -0.0012116 0.0000429 -0.0003674 0.0001203 -0.0012309 -0.0003204 -0.0009327 -0.0000675 -0.0002380 0.0003173 0.0000406
0.0000818 -0.0011773 -0.0002268 -0.0009242 0.0000505 -0.0007491 -0.0001062 -0.0018713 0.0000683 -0.0014185 0.0000582 -0.0005578 0.0001525 -0.0014260 -0.0003196 -0.0009786 -0.0000505 -0.0003224 0.0003442 -0.0000098
0.0001077 -0.0012549 -0.0002157 -0.0009421 0.0000684 -0.0007767 -0.0000719 -0.0018878 0.0000857 -0.0013896 0.0000760 -0.0005079 0.0001701 -0.0013951 -0.0003033 -0.0009579 -0.0000423 -0.0002515 0.0004049 0.0001827
0.0001492 -0.0011153 -0.0002123 -0.0008526 0.0000855 -0.0006548 -0.0000604 -0.0017470 0.0000892 -0.0012970 0.0000664 -0.0003971 0.0001665 -0.0012413 -0.0003187 -0.0008857 -0.0000555 -0.0001493 0.0004284 0.0004185
0.0001679 -0.0009326 -0.0002078 -0.0007332 0.0000857 -0.0004813 -0.0000519 -0.0014834 0.0000821 -0.0011439 0.0000675 -0.0002048 0.0001863 -0.0010607 -0.0003297 -0.0008256 -0.0000701 -0.0001226 0.0003791 0.0003431
0.0001422 -0.0009451 -0.0002006 -0.0007398 0.0000786 -0.0005042 -0.0000681 -0.0015838 0.0000655 -0.0012223 0.0000651 -0.0002686 0.0001906 -0.0011733 -0.0003167 -0.0008994 -0.0000643 -0.0002081 0.0003591 0.0000085
0.0001140 -0.0011439 -0.0001921 -0.0008398 0.0000830 -0.0006789 -0.0000772 -0.0018954 0.0000697 -0.0014430 0.0000658 -0.0004565 0.0001887 -0.0013704 -0.0003128 -0.0009511 -0.0000560 -0.0002419 0.0004015 -0.0000297
0.0001259 -0.0011813 -0.0001843 -0.0008247 0.0000950 -0.0006800 -0.0000545 -0.0018690 0.0000833 -0.0014165 0.0000782 -0.0004051 0.0002159 -0.0013010 -0.0002925 -0.0009070 -0.0000487 -0.0001725 0.0004378 0.0001555
0.0001511 -0.0010460 -0.0001825 -0.0007212 0.0001005 -0.0005443 -0.0000413 -0.0016801 0.0000770 -0.0012792 0.0000743 -0.0002734 0.0002192 -0.0011592 -0.0002764 -0.0008478 -0.0000409 -0.0000821 0.0004617 0.0003883
0.0001701 -0.0008617 -0.0001838 -0.0006158 0.0000905 -0.0003679 -0.0000515 -0.0014940 0.0000591 -0.0012105 0.0000641 -0.0001933 0.0001934 -0.0011300 -0.0002798 -0.0008469 -0.0000608 -0.0000796 0.0004318 0.0002882
0.0001530 -0.0008895 -0.0001688 -0.0006586 0.0000811 -0.0004081 -0.0000801 -0.0016581 0.0000445 -0.0013405 0.0000621 -0.0002903 0.0001709 -0.0012691 -0.0002969 -0.0009023 -0.0000651 -0.0001734 0.0004001 0.0000576
0.0001414 -0.0010469 -0.0001656 -0.0007053 0.0000844 -0.0005368 -0.0000876 -0.0018871 0.0000415 -0.0014613 0.0000760 -0.0003515 0.0001673 -0.0013435 -0.0003046 -0.0008999 -0.0000509 -0.0001851 0.0004423 0.0001369
0.0001572 -0.0010110 -0.0001691 -0.0006450 0.0000889 -0.0004671 -0.0000729 -0.0017872 0.0000392 -0.0013973 0.0000870 -0.0002445 0.0001675 -0.0012398 -0.0002991 -0.0008382 -0.0000564 -0.0001044 0.0004851 0.0003210
0.0001648 -0.0008606 -0.0001662 -0.0005554 0.0000840 -0.0003185 -0.0000668 -0.0015718 0.0000267 -0.0012613 0.0000750 -0.0000802 0.0001608 -0.0010746 -0.0003021 -0.0007604 -0.0000684 -0.0000012 0.0004554 0.0005068
0.0001438 -0.0006921 -0.0001698 -0.0004853 0.0000723 -0.0002089 -0.0000893 -0.0015360 0.0000061 -0.0012411 0.0000581 -0.0000815 0.0001455 -0.0011191 -0.0002989 -0.0007890 -0.0000817 -0.0000367 0.0004085 0.0003253
0.0001347 -0.0007961 -0.0001573 -0.0005515 0.0000628 -0.0002903 -0.0001111 -0.0017555 0.0000061 -0.0014151 0.0000596 -0.0002244 0.0001407 -0.0013255 -0.0002819 -0.0008744 -0.0000843 -0.0001415 0.0004173 0.0001048
0.0001519 -0.0009540 -0.0001473 -0.0005754 0.0000638 -0.0003568 -0.0000971 -0.0018274 0.0000299 -0.0015071 0.0000727 -0.0002144 0.0001607 -0.0013364 -0.0002669 -0.0008725 -0.0000696 -0.0001315 0.0004309 0.0002517
0.0001779 -0.0008817 -0.0001437 -0.0005023 0.0000661 -0.0002497 -0.0000778 -0.0016632 0.0000236 -0.0013674 0.0000763 -0.0000742 0.0001518 -0.0011776 -0.0002682 -0.0008015 -0.0000528 -0.0000796 0.0004493 0.0004464
0.0001995 -0.0007432 -0.0001480 -0.0004160 0.0000543 -0.0000878 -0.0000700 -0.0014248 0.0000012 -0.0011622 0.0000628 0.0001103 0.0001197 -0.0009884 -0.0002822 -0.0006954 -0.0000718 0.0000137 0.0004395 0.0005553
0.0001695 -0.0006394 -0.0001469 -0.0003994 0.0000366 -0.0000157 -0.0000948 -0.0014205 -0.0000095 -0.0011755 0.0000450 0.0000871 0.0000952 -0.0010575 -0.0003057 -0.0007155 -0.0000864 -0.0000403 0.0003833 0.0003387
0.0001360 -0.0007706 -0.0001452 -0.0004632 0.0000243 -0.0001365 -0.0001159 -0.0016576 -0.0000250 -0.0013499 0.0000484 -0.0000846 0.0000983 -0.0012843 -0.0003097 -0.0008091 -0.0000779 -0.0001548 0.0003820 0.0001498
0.0001363 -0.0009126 -0.0001485 -0.0004677 0.0000200 -0.0002047 -0.0000975 -0.0017118 -0.0000122 -0.0014003 0.0000665 -0.0000789 0.0001241 -0.0012810 -0.0002908 -0.0008107 -0.0000624 -0.0001280 0.0004100 0.0002892
0.0001611 -0.0008611 -0.0001395 -0.0004126 0.0000204 -0.0001092 -0.0000750 -0.0015438 -0.0000017 -0.0012827 0.0000704 0.0000516 0.0001436 -0.0011124 -0.0002783 -0.0007266 -0.0000434 -0.0000679 0.0004097 0.0004499
0.0001652 -0.0007351 -0.0001462 -0.0003290 0.0000040 0.0000388 -0.0000636 -0.0012854 -0.0000179 -0.0010745 0.0000568 0.0002098 0.0001284 -0.0008970 -0.0002975 -0.0005967 -0.0000577 0.0000191 0.0003764 0.0006522
0.0001406 -0.0005502 -0.0001724 -0.0002193 -0.0000306 0.0002070 -0.0000680 -0.0010336 -0.0000193 -0.0009199 0.0000341 0.0002775 0.0000930 -0.0008022 -0.0002926 -0.0006186 -0.0000718 -0.0000158 0.0002798 0.0004960
0.0001120 -0.0006307 -0.0001879 -0.0002726 -0.0000626 0.0001146 -0.0000885 -0.0011666 -0.0000191 -0.0009989 0.0000152 0.0001229 0.0000854 -0.0009733 -0.0002677 -0.0007581 -0.0000632 -0.0001358 0.0002276 0.0001310
0.0000889 -0.0008631 -0.0001854 -0.0004157 -0.0000846 -0.0000972 -0.0000895 -0.0013868 -0.0000114 -0.0010835 0.0000107 -0.0000213 0.0001102 -0.0010458 -0.0002696 -0.0007480 -0.0000658 -0.0001306 0.0002205 0.0001638
0.0001515 -0.0005652 -0.0000901 -0.0002566 -0.0000750 0.0000436 -0.0001103 -0.0013979 0.0000450 -0.0009068 -0.0001059 -0.0003885 0.0001732 -0.0006341 0.0000112 0.0003063 0.0000160 0.0003790 0.0003360 0.0007917
0.0004820 0.0015394 0.0003750 0.0010664 0.0000071 0.0009098 -0.0001588 -0.0013806 0.0001481 -0.0005224 -0.0002542 -0.0007901 0.0001908 -0.0001645 0.0002776 0.0012053 0.0001148 0.0009432 0.0004790 0.0013821
0.0007004 0.0030899 0.0007258 0.0022062 0.0000365 0.0015540 -0.0001805 -0.0012041 0.0001210 -0.0004533 -0.0002326 -0.0006080 0.0000953 -0.0003163 0.0002218 0.0010091 0.0001160 0.0009849 0.0004626 0.0013841
0.0006314 0.0030196 0.0008005 0.0023860 0.0000049 0.0013913 -0.0001536 -0.0011579 0.0000668 -0.0006958 -0.0000860 -0.0002316 0.0000225 -0.0007184 0.0000718 0.0004681 0.0000982 0.0007038 0.0003793 0.0009499
0.0005524 0.0023422 0.0008195 0.0022830 -0.0000141 0.0011428 -0.0000985 -0.0012077 0.0000965 -0.0008898 0.0000381 0.0000378 -0.0000129 -0.0009561 -0.0000802 -0.0000453 0.0000855 0.0004026 0.0002857 0.0005565
0.0004845 0.0012716 0.0006419 0.0018016 -0.0000263 0.0010514 -0.0000378 -0.0010026 0.0001039 -0.0008060 0.0001153 0.0003416 -0.0000638 -0.0011007 -0.0001850 -0.0002686 0.0000471 0.0001737 0.0002327 0.0005189
0.0004432 0.0008444 0.0004607 0.0014558 -0.0000265 0.0011051 -0.0000113 -0.0007267 0.0000876 -0.0005586 0.0001525 0.0006163 -0.0000960 -0.0010210 -0.0002554 -0.0003825 -0.0000158 0.0000659 0.0002290 0.0006741
0.0004088 0.0008418 0.0003608 0.0013330 -0.0000494 0.0011878 -0.0000417 -0.0005754 0.0000467 -0.0005260 0.0001411 0.0006774 -0.0001368 -0.0010238 -0.0002760 -0.0004964 -0.0000346 0.0000080 0.0002008 0.0005610
0.0003773 0.0006569 0.0002757 0.0011001 -0.0000662 0.0010337 -0.0000703 -0.0007752 0.0000245 -0.0006849 0.0001504 0.0005202 -0.0001573 -0.0012727 -0.0002967 -0.0006693 -0.0000350 -0.0001267 0.0001659 0.0002269
0.0003517 0.0003007 0.0002029 0.0008049 -0.0000706 0.0007548 -0.0000671 -0.0010353 0.0000416 -0.0008875 0.0001639 0.0003772 -0.0001466 -0.0014105 -0.0003079 -0.0007031 -0.0000248 -0.0001523 0.0002041 0.0002265
0.0003444 0.0001658 0.0001489 0.0006459 -0.0000718 0.0006991 -0.0000482 -0.0009644 0.0000546 -0.0008613 0.0001728 0.0004329 -0.0001349 -0.0013210 -0.0002857 -0.0006749 -0.0000066 -0.0000996 0.0002552 0.0003867
0.0003485 0.0001888 0.0001136 0.0006094 -0.0000801 0.0007794 -0.0000471 -0.0007622 0.0000390 -0.0007218 0.0001668 0.0005676 -0.0001496 -0.0011422 -0.0002951 -0.0005862 -0.0000160 0.0000209 0.0002713 0.0006306
0.0003449 0.0003001 0.0000928 0.0006168 -0.0000934 0.0008917 -0.0000705 -0.0006405 0.0000217 -0.0006606 0.0001523 0.0005774 -0.0001704 -0.0011163 -0.0003172 -0.0005798 -0.0000150 -0.0000183 0.0002115 0.0004801
0.0003078 0.0001998 0.0000738 0.0004837 -0.0001067 0.0007665 -0.0000954 -0.0008280 0.0000201 -0.0008141 0.0001502 0.0004058 -0.0001769 -0.0012949 -0.0003132 -0.0007016 -0.0000195 -0.0001392 0.0001781 0.0001966
0.0002939 0.0000033 0.0000567 0.0003616 -0.0001099 0.0005796 -0.0000948 -0.0009863 0.0000260 -0.0009244 0.0001589 0.0003363 -0.0001698 -0.0013388 -0.0003123 -0.0007078 -0.0000140 -0.0001316 0.0001834 0.0003086
0.0002897 0.0000292 0.0000417 0.0003652 -0.0001094 0.0006078 -0.0000869 -0.0008523 0.0000178 -0.0008156 0.0001575 0.0004352 -0.0001547 -0.0011884 -0.0002835 -0.0006735 -0.0000042 -0.0000644 0.0001814 0.0005372
0.0002921 0.0001487 0.0000312 0.0003976 -0.0001194 0.0007194 -0.0000907 -0.0006051 0.0000113 -0.0006629 0.0001398 0.0005921 -0.0001722 -0.0009673 -0.0002793 -0.0005822 -0.0000273 0.0000609 0.0002094 0.0007724
0.0002945 0.0003012 0.0000128 0.0004486 -0.0001348 0.0008583 -0.0001196 -0.0004301 -0.0000117 -0.0005666 0.0001207 0.0006255 -0.0001926 -0.0009120 -0.0002984 -0.0005727 -0.0000328 0.0000372 0.0001743 0.0006018
0.0002614 0.0002214 -0.0000044 0.0003511 -0.0001512 0.0007576 -0.0001552 -0.0005918 -0.0000316 -0.0006699 0.0001109 0.0004747 -0.0002102 -0.0010525 -0.0003055 -0.0006616 -0.0000412 -0.0000614 0.0001347 0.0003131
0.0002400 0.0000274 -0.0000066 0.0002190 -0.0001595 0.0005711 -0.0001634 -0.0007636 -0.0000360 -0.0007671 0.0001084 0.0004042 -0.0002186 -0.0010892 -0.0003107 -0.0006414 -0.0000479 -0.0000371 0.0001222 0.0004153
0.0002386 0.0000260 -0.0000067 0.0002066 -0.0001629 0.0005834 -0.0001558 -0.0006342 -0.0000352 -0.0006637 0.0001030 0.0004904 -0.0002148 -0.0009340 -0.0003221 -0.0005488 -0.0000337 0.0000341 0.0001120 0.0005957
0.0002236 0.0001195 -0.0000189 0.0002470 -0.0001759 0.0006709 -0.0001578 -0.0003920 -0.0000346 -0.0005298 0.0000844 0.0006122 -0.0002465 -0.0006907 -0.0003151 -0.0003884 -0.0000458 0.0001686 0.0001510 0.0008400
0.0002434 0.0005125 0.0000645 0.0004375 -0.0001882 0.0007203 -0.0002056 -0.0004314 -0.0000489 -0.0005679 0.0000425 0.0004631 -0.0002380 -0.0006359 -0.0002796 -0.0003579 -0.0000339 0.0001245 0.0000832 0.0006304
0.0002408 0.0005094 0.0001365 0.0004096 -0.0001946 0.0005237 -0.0002148 -0.0006209 -0.0000240 -0.0006872 0.0000242 0.0002265 -0.0002247 -0.0007663 -0.0002817 -0.0004836 -0.0000204 -0.0000304 0.0000241 0.0002486
0.0001798 0.0000691 0.0000568 0.0001758 -0.0001929 0.0003153 -0.0001756 -0.0005899 -0.0000030 -0.0006521 0.0000476 0.0002655 -0.0002456 -0.0007952 -0.0002991 -0.0005566 -0.0000262 -0.0000169 0.0000705 0.0003358
0.0001306 -0.0000835 -0.0000273 0.0000601 -0.0001905 0.0003121 -0.0001576 -0.0004135 -0.0000106 -0.0004984 0.0000659 0.0004436 -0.0002215 -0.0006118 -0.0002836 -0.0005208 -0.0000240 0.0000622 0.0000640 0.0005048
0.0000757 -0.0001171 -0.0000928 -0.0000463 -0.0002064 0.0003683 -0.0001460 -0.0001293 0.0000036 -0.0002936 0.0000454 0.0006188 -0.0002299 -0.0003921 -0.0002960 -0.0004070 -0.0000382 0.0001236 0.0000177 0.0005119
0.0000153 -0.0002782 -0.0001897 -0.0002924 -0.0002324 0.0002806 -0.0001793 -0.0001615 0.0000070 -0.0003010 0.0000138 0.0005088 -0.0002618 -0.0004796 -0.0003179 -0.0004737 -0.0000485 0.0000170 -0.0000386 0.0002567
-0.0000432 -0.0005874 -0.0002658 -0.0005901 -0.0002405 0.0000069 -0.0002074 -0.0004751 -0.0000106 -0.0005228 0.0000177 0.0003015 -0.0002526 -0.0007123 -0.0003079 -0.0006233 -0.0000425 -0.0001218 -0.0000623 0.0000771
-0.0000563 -0.0007231 -0.0002922 -0.0006907 -0.0002307 -0.0001473 -0.0001843 -0.0005454 -0.0000080 -0.0005636 0.0000195 0.0002610 -0.0002506 -0.0006908 -0.0002868 -0.0006091 -0.0000221 -0.0001151 -0.0000275 0.0001601
-0.0000368 -0.0006724 -0.0002937 -0.0006544 -0.0002161 -0.0001066 -0.0001665 -0.0004033 0.0000051 -0.0004638 0.0000100 0.0003522 -0.0002663 -0.0005272 -0.0002612 -0.0005521 -0.0000136 -0.0000436 -0.0000032 0.0003765
-0.0000271 -0.0005126 -0.0002996 -0.0005582 -0.0002090 0.0000272 -0.0001644 -0.0001642 -0.0000060 -0.0003279 -0.0000080 0.0005336 -0.0002874 -0.0003179 -0.0002668 -0.0004832 -0.0000233 0.0000222 -0.0000240 0.0004006
-0.0000351 -0.0004649 -0.0003082 -0.0005701 -0.0002118 0.0000291 -0.0001792 -0.0001843 -0.0000080 -0.0003678 -0.0000363 0.0004493 -0.0003018 -0.0003584 -0.0002976 -0.0004871 -0.0000382 -0.0000309 -0.0000813 0.0001694
-0.0000580 -0.0006016 -0.0003097 -0.0006624 -0.0002090 -0.0001392 -0.0001899 -0.0004259 0.0000016 -0.0005504 -0.0000531 0.0002281 -0.0002954 -0.0005291 -0.0003011 -0.0005365 -0.0000416 -0.0000839 -0.0000962 0.0000731
-0.0000615 -0.0006492 -0.0003113 -0.0006790 -0.0002024 -0.0001963 -0.0001739 -0.0004242 0.0000061 -0.0005237 -0.0000628 0.0001992 -0.0002820 -0.0004289 -0.0002707 -0.0005289 -0.0000175 -0.0000428 -0.0000685 0.0001988
-0.0000503 -0.0005535 -0.0003118 -0.0006436 -0.0001976 -0.0001072 -0.0001628 -0.0002658 0.0000177 -0.0004009 -0.0000766 0.0002736 -0.0002782 -0.0002627 -0.0002532 -0.0004496 -0.0000041 0.0000325 -0.0000734 0.0004316
-0.0000522 -0.0003893 -0.0003195 -0.0005848 -0.0001928 0.0000263 -0.0001735 -0.0001400 0.0000065 -0.0003109 -0.0000909 0.0002851 -0.0002776 -0.0002323 -0.0002549 -0.0004660 -0.0000160 0.0000086 -0.0001248 0.0003179
-0.0000610 -0.0004374 -0.0003175 -0.0006416 -0.0001871 -0.0000249 -0.0001931 -0.0002866 -0.0000012 -0.0004073 -0.0001019 0.0001473 -0.0002811 -0.0003603 -0.0002580 -0.0005686 -0.0000216 -0.0000887 -0.0001412 0.0000592
-0.0000485 -0.0005817 -0.0003067 -0.0007185 -0.0001759 -0.0001189 -0.0001937 -0.0004428 0.0000138 -0.0005037 -0.0001093 0.0000678 -0.0002899 -0.0003640 -0.0002659 -0.0005179 -0.0000234 -0.0000791 -0.0001047 0.0001338
-0.0000372 -0.0005068 -0.0002975 -0.0006659 -0.0001599 -0.0000088 -0.0001857 -0.0003406 0.0000246 -0.0004202 -0.0001173 0.0001412 -0.0002883 -0.0002263 -0.0002799 -0.0004218 -0.0000230 0.0000129 -0.0000822 0.0003669
-0.0000295 -0.0003139 -0.0002946 -0.0005409 -0.0001540 0.0001785 -0.0001886 -0.0001414 0.0000062 -0.0002918 -0.0001347 0.0002991 -0.0003010 -0.0000621 -0.0002713 -0.0003540 -0.0000186 0.0001345 -0.0000678 0.0006284
-0.0000262 -0.0001426 -0.0002878 -0.0004496 -0.0001566 0.0003169 -0.0002184 -0.0001057 -0.0000310 -0.0003070 -0.0001463 0.0002913 -0.0003454 -0.0000968 -0.0002473 -0.0004241 -0.0000176 0.0000929 -0.0001139 0.0005069
-0.0000496 -0.0002149 -0.0002677 -0.0004933 -0.0001569 0.0002283 -0.0002512 -0.0003362 -0.0000453 -0.0005251 -0.0001456 0.0001135 -0.0003742 -0.0003219 -0.0002384 -0.0005553 -0.0000271 -0.0000191 -0.0001250 0.0002732
-0.0000560 -0.0003527 -0.0002432 -0.0005233 -0.0001543 0.0001346 -0.0002506 -0.0004565 -0.0000397 -0.0006302 -0.0001380 0.0000822 -0.0003723 -0.0003768 -0.0002638 -0.0005047 -0.0000195 -0.0000167 -0.0000711 0.0003782
-0.0000428 -0.0002943 -0.0002403 -0.0004450 -0.0001543 0.0002386 -0.0002443 -0.0003415 -0.0000381 -0.0005648 -0.0001313 0.0001970 -0.0003673 -0.0002738 -0.0002712 -0.0004209 -0.0000004 0.0000363 -0.0000593 0.0006176
-0.0000261 -0.0001338 -0.0002437 -0.0003213 -0.0001585 0.0004106 -0.0002551 -0.0001420 -0.0000623 -0.0004322 -0.0001372 0.0003595 -0.0003911 -0.0001026 -0.0002835 -0.0003389 -0.0000102 0.0001440 -0.0000649 0.0008732
-0.0000067 0.0000059 -0.0002351 -0.0002672 -0.0001641 0.0005399 -0.0002871 -0.0001016 -0.0000981 -0.0004016 -0.0001498 0.0003501 -0.0004271 -0.0001146 -0.0002959 -0.0003712 -0.0000300 0.0001172 -0.0001003 0.0007318
-0.0000151 -0.0000938 -0.0002240 -0.0003257 -0.0001724 0.0004541 -0.0003147 -0.0003282 -0.0001178 -0.0005722 -0.0001501 0.0001721 -0.0004472 -0.0003210 -0.0002852 -0.0004885 -0.0000355 -0.0000007 -0.0000993 0.0004825
-0.0000161 -0.0002536 -0.0002126 -0.0003526 -0.0001771 0.0003570 -0.0003124 -0.0004480 -0.0001111 -0.0006716 -0.0001383 0.0001325 -0.0004301 -0.0003674 -0.0002637 -0.0004796 -0.0000247 0.0000033 -0.0000532 0.0005891
0.0000065 -0.0002130 -0.0002134 -0.0002788 -0.0001816 0.0004502 -0.0003029 -0.0003106 -0.0000912 -0.0006088 -0.0001320 0.0002445 -0.0004118 -0.0002400 -0.0002419 -0.0004222 -0.0000113 0.0000828 -0.0000448 0.0007861
0.0000238 -0.0000800 -0.0002048 -0.0001738 -0.0001957 0.0006101 -0.0002978 -0.0000715 -0.0000963 -0.0004498 -0.0001423 0.0004063 -0.0004222 -0.0000510 -0.0002665 -0.0003187 -0.0000246 0.0002020 -0.0000510 0.0009934
0.0000307 0.0001104 -0.0002023 -0.0000549 -0.0002208 0.0007987 -0.0003023 0.0002146 -0.0001426 -0.0002281 -0.0001639 0.0005229 -0.0004435 0.0000887 -0.0002712 -0.0003045 -0.0000205 0.0001870 -0.0001250 0.0008887
0.0000217 0.0000610 -0.0002165 -0.0000758 -0.0002414 0.0007674 -0.0003325 0.0000858 -0.0001618 -0.0003108 -0.0001794 0.0003979 -0.0004714 -0.0000401 -0.0002526 -0.0004025 0.0000017 0.0000447 -0.0001981 0.0006034
0.0000006 -0.0001489 -0.0002123 -0.0001972 -0.0002512 0.0006018 -0.0003517 -0.0002235 -0.0001567 -0.0005082 -0.0001807 0.0002476 -0.0004788 -0.0002015 -0.0002480 -0.0004272 0.0000078 0.0000106 -0.0001578 0.0005687
0.0000110 -0.0001981 -0.0002137 -0.0001792 -0.0002621 0.0006177 -0.0003409 -0.0001842 -0.0001746 -0.0004620 -0.0001756 0.0003025 -0.0004918 -0.0001169 -0.0002414 -0.0003435 0.0000093 0.0000826 -0.0001135 0.0007183
0.0000339 -0.0000962 -0.0001743 -0.0000585 -0.0002704 0.0007469 -0.0003151 0.0000360 -0.0001711 -0.0003443 -0.0002162 0.0002813 -0.0004603 0.0001563 -0.0001657 -0.0000419 0.0000312 0.0002687 -0.0000873 0.0009068
0.0000292 0.0000636 -0.0001330 0.0000720 -0.0002919 0.0008819 -0.0003029 0.0002628 -0.0001706 -0.0001992 -0.0002587 0.0002329 -0.0004079 0.0003485 -0.0001391 0.0001027 0.0000511 0.0003265 -0.0000954 0.0008150
0.0000040 -0.0000216 -0.0001413 0.0000751 -0.0003100 0.0008137 -0.0003286 0.0000948 -0.0001944 -0.0002964 -0.0002323 0.0001995 -0.0004391 0.0001653 -0.0001820 -0.0001156 0.0000336 0.0002136 -0.0001286 0.0005943
0.0000051 -0.0002075 -0.0001346 0.0000076 -0.0003079 0.0006756 -0.0003323 -0.0001498 -0.0001904 -0.0004943 -0.0001958 0.0001599 -0.0004788 -0.0000038 -0.0001955 -0.0002224 0.0000400 0.0001572 -0.0001106 0.0005419
0.0000274 -0.0002328 -0.0001305 -0.0000097 -0.0003132 0.0006886 -0.0003045 -0.0000725 -0.0001843 -0.0004496 -0.0001790 0.0002363 -0.0004651 0.0000371 -0.0002125 -0.0001867 0.0000555 0.0001483 -0.0000750 0.0005871
0.0000383 -0.0001946 -0.0001515 0.0000452 -0.0003303 0.0007725 -0.0002805 0.0001269 -0.0001941 -0.0002902 -0.0001818 0.0003662 -0.0004663 0.0001478 -0.0002121 -0.0001477 0.0000623 0.0002026 -0.0000634 0.0007242
0.0000479 -0.0000970 -0.0001692 0.0001351 -0.0003482 0.0009030 -0.0002763 0.0003152 -0.0002021 -0.0001894 -0.0001967 0.0004148 -0.0004923 0.0001852 -0.0002025 -0.0002075 0.0000555 0.0001610 -0.0001274 0.0005718
0.0000327 -0.0001873 -0.0001587 0.0000403 -0.0003543 0.0008052 -0.0002934 0.0001132 -0.0002099 -0.0003403 -0.0001995 0.0002650 -0.0004978 -0.0000270 -0.0002021 -0.0003303 0.0000537 0.0000149 -0.0001536 0.0002615
0.0000346 -0.0004234 -0.0001464 -0.0000973 -0.0003488 0.0005944 -0.0002898 -0.0001790 -0.0001909 -0.0005525 -0.0001842 0.0001504 -0.0004967 -0.0001962 -0.0002282 -0.0003585 0.0000790 -0.0000441 -0.0000815 0.0002565
0.0000595 -0.0004596 -0.0001476 -0.0000966 -0.0003356 0.0005767 -0.0002614 -0.0001467 -0.0001853 -0.0005198 -0.0001678 0.0002271 -0.0004813 -0.0001825 -0.0002323 -0.0003394 0.0001031 -0.0000326 -0.0000326 0.0004242
0.0000763 -0.0003696 -0.0001492 -0.0000552 -0.0003250 0.0006540 -0.0002475 -0.0000061 -0.0001874 -0.0004289 -0.0001671 0.0003702 -0.0004819 -0.0000880 -0.0002169 -0.0002369 0.0001192 0.0000517 -0.0000268 0.0005966
0.0000467 -0.0002348 -0.0000969 0.0001609 -0.0003035 0.0008168 -0.0001924 0.0002881 -0.0001880 -0.0004274 -0.0002137 0.0002938 -0.0004583 -0.0000022 -0.0001674 -0.0001219 0.0001037 0.0000787 -0.0000471 0.0005168
0.0000190 -0.0004311 -0.0001260 0.0000175 -0.0003062 0.0006813 -0.0002131 0.0000202 -0.0001701 -0.0005788 -0.0002226 0.0000431 -0.0003808 -0.0000916 -0.0001270 -0.0000893 0.0001232 -0.0000064 -0.0000678 0.0001511
-0.0000090 -0.0007389 -0.0001201 -0.0001924 -0.0002858 0.0003873 -0.0001956 -0.0003196 -0.0001316 -0.0007650 -0.0001767 -0.0000679 -0.0003306 -0.0001752 -0.0001018 -0.0001218 0.0001486 -0.0000732 -0.0000445 -0.0000329
-0.0000068 -0.0007765 -0.0000916 -0.0001758 -0.0002298 0.0003413 -0.0000866 -0.0001325 -0.0000903 -0.0006622 -0.0001473 -0.0000279 -0.0002618 -0.0000334 -0.0000782 -0.0001181 0.0001584 -0.0000203 0.0000045 0.0000813
0.0000322 -0.0007844 -0.0001203 -0.0002102 -0.0002055 0.0003904 -0.0000431 0.0000619 -0.0000588 -0.0004645 -0.0001195 0.0001326 -0.0002075 0.0001158 -0.0000763 -0.0000658 0.0001890 0.0001159 0.0000239 0.0002842
0.0000531 -0.0006194 -0.0001090 -0.0001328 -0.0001848 0.0005506 -0.0000160 0.0003209 -0.0000601 -0.0003398 -0.0001185 0.0002690 -0.0001992 0.0001453 -0.0000688 -0.0000840 0.0001983 0.0000988 0.0000191 0.0002252
0.0000764 -0.0005739 -0.0000953 -0.0002055 -0.0001653 0.0005137 -0.0000320 0.0001334 -0.0000485 -0.0004958 -0.0001148 0.0001533 -0.0002104 -0.0000548 -0.0000876 -0.0001758 0.0001996 -0.0000512 0.0000068 0.0000272
0.0001058 -0.0007439 -0.0000476 -0.0001984 -0.0001364 0.0002954 -0.0000362 -0.0002269 -0.0000610 -0.0009005 -0.0000684 0.0000864 -0.0002510 -0.0003725 -0.0001077 -0.0002782 0.0002093 -0.0001034 0.0000738 0.0001469
0.0001313 -0.0007161 -0.0000099 -0.0000356 -0.0001064 0.0002764 -0.0000082 -0.0001919 -0.0001054 -0.0010262 -0.0000117 0.0002907 -0.0002582 -0.0004376 -0.0001001 -0.0002745 0.0002137 -0.0000243 0.0001485 0.0003980
0.0001292 -0.0005737 0.0000028 0.0000966 -0.0000940 0.0003816 0.0000266 0.0000438 -0.0000996 -0.0008588 -0.0000188 0.0003953 -0.0001721 -0.0001067 -0.0000370 -0.0000728 0.0002227 0.0000940 0.0001150 0.0004474
0.0002053 -0.0000910 0.0001368 0.0004219 -0.0000862 0.0005865 0.0000557 0.0002942 -0.0000543 -0.0006597 -0.0000689 0.0003875 -0.0001682 0.0000877 0.0000674 0.0002298 0.0002517 0.0001908 0.0001005 0.0004719
0.0003032 0.0007006 0.0004118 0.0009357 -0.0001070 0.0005867 0.0000589 0.0001721 0.0000126 -0.0005867 -0.0000690 0.0002507 -0.0001555 -0.0000330 0.0001088 0.0002588 0.0002761 0.0001611 0.0000887 0.0003174
0.0002557 0.0004715 0.0005068 0.0010772 -0.0001066 0.0003314 0.0000864 -0.0000353 0.0000207 -0.0008194 -0.0000114 0.0002336 -0.0001350 -0.0002460 0.0000691 0.0000857 0.0002936 0.0001074 0.0000912 0.0001410
0.0001937 -0.0001839 0.0004250 0.0008849 -0.0000586 0.0002654 0.0001556 0.0001039 0.0000110 -0.0009549 0.0000750 0.0005297 -0.0001920 -0.0004255 0.0000239 0.0000195 0.0003172 0.0001294 0.0001590 0.0003880
0.0001611 -0.0001729 0.0003653 0.0008331 -0.0000244 0.0003787 0.0001768 0.0002865 0.0000041 -0.0009327 0.0001186 0.0008091 -0.0001984 -0.0003451 -0.0000021 0.0000662 0.0003158 0.0002217 0.0001796 0.0006245
0.0001401 -0.0001215 0.0002999 0.0008111 -0.0000143 0.0005361 0.0001790 0.0005305 -0.0000383 -0.0008963 0.0001318 0.0010308 -0.0002156 -0.0003052 -0.0000140 0.0000252 0.0002759 0.0002227 0.0001472 0.0005414
0.0001310 -0.0002974 0.0002437 0.0006016 -0.0000081 0.0004465 0.0001734 0.0003957 -0.0000647 -0.0009840 0.0001473 0.0009828 -0.0002166 -0.0004436 -0.0000213 -0.0001123 0.0002612 0.0000310 0.0000990 0.0002661
0.0001030 -0.0006757 0.0002083 0.0003640 0.0000180 0.0001852 0.0001723 0.0000385 -0.0000576 -0.0012001 0.0001413 0.0007829 -0.0001934 -0.0005362 -0.0000069 -0.0001995 0.0002798 -0.0000812 0.0001237 0.0002073
0.0001115 -0.0008585 0.0001573 0.0002030 0.0000402 0.0001081 0.0002162 0.0000822 0.0000120 -0.0010322 0.0001197 0.0007142 -0.0001302 -0.0003291 0.0000108 -0.0001574 0.0002930 -0.0000361 0.0001407 0.0002377
0.0001049 -0.0008995 0.0001115 0.0001113 0.0000418 0.0001357 0.0002530 0.0002883 0.0000462 -0.0008318 0.0001046 0.0007943 -0.0001235 -0.0001548 0.0000027 -0.0000584 0.0002837 0.0000761 0.0001432 0.0003066
0.0000749 -0.0008784 0.0000875 0.0001491 0.0000440 0.0002738 0.0002528 0.0004677 0.0000141 -0.0008209 0.0000965 0.0009036 -0.0001238 -0.0000996 0.0000523 0.0000214 0.0002864 0.0001247 0.0001340 0.0002257
-0.0000064 -0.0009920 0.0000924 0.0000932 0.0000567 0.0002148 0.0002348 0.0002822 -0.0000051 -0.0010046 0.0001031 0.0008114 -0.0000970 -0.0001642 0.0000967 0.0000486 0.0002773 -0.0000115 0.0000972 0.0000043
-0.0000325 -0.0011611 0.0000857 -0.0000641 0.0000906 -0.0000113 0.0002534 -0.0000225 0.0000249 -0.0012063 0.0001538 0.0007726 -0.0000843 -0.0002790 0.0000821 -0.0000007 0.0002718 -0.0001067 0.0001489 0.0000409
0.0000243 -0.0011279 0.0001077 -0.0000382 0.0001395 -0.0000345 0.0002905 -0.0000139 0.0000305 -0.0011884 0.0002144 0.0009511 -0.0000482 -0.0002277 0.0000665 -0.0000213 0.0003013 -0.0000424 0.0002088 0.0002657
0.0000657 -0.0009956 0.0001388 0.0000929 0.0001709 0.0000625 0.0003148 0.0001603 0.0000218 -0.0010910 0.0002475 0.0011841 -0.0000381 -0.0001061 0.0000436 -0.0000098 0.0003143 0.0000570 0.0002448 0.0005532
0.0001052 -0.0007821 0.0001362 0.0002245 0.0001807 0.0002255 0.0003242 0.0003913 0.0000190 -0.0009499 0.0002476 0.0013838 -0.0000400 0.0000594 0.0000342 -0.0000033 0.0002958 0.0000730 0.0002072 0.0005260
0.0000892 -0.0007741 0.0001322 0.0001992 0.0001808 0.0001753 0.0003007 0.0002417 0.0000108 -0.0010476 0.0002417 0.0013120 -0.0000441 -0.0000198 0.0000432 -0.0000781 0.0002892 -0.0000389 0.0001514 0.0002885
0.0000797 -0.0009015 0.0001331 0.0000868 0.0001917 -0.0000348 0.0002918 -0.0000721 0.0000244 -0.0012529 0.0002326 0.0011101 -0.0000375 -0.0001770 0.0000500 -0.0001380 0.0003087 -0.0000976 0.0001668 0.0002532
0.0001169 -0.0008903 0.0001358 0.0000565 0.0002039 -0.0000929 0.0003123 -0.0000621 0.0000476 -0.0012154 0.0002114 0.0010802 -0.0000315 -0.0001312 0.0000341 -0.0000774 0.0003068 -0.0000320 0.0002083 0.0004197
0.0001453 -0.0007525 0.0001231 0.0000919 0.0002038 -0.0000202 0.0003159 0.0000916 0.0000471 -0.0010827 0.0001743 0.0011473 -0.0000572 0.0000056 0.0000267 -0.0000072 0.0002819 0.0000929 0.0002203 0.0006868
0.0001704 -0.0005473 0.0001133 0.0001715 0.0001904 0.0001323 0.0002993 0.0002969 0.0000211 -0.0009135 0.0001258 0.0012756 -0.0001016 0.0001898 0.0000342 0.0000545 0.0002566 0.0002263 0.0002209 0.0009417
0.0001745 -0.0003399 0.0001102 0.0001918 0.0001711 0.0002267 0.0002419 0.0002723 0.0000031 -0.0008916 0.0000719 0.0012163 -0.0001468 0.0001571 0.0000197 0.0000146 0.0002348 0.0001759 0.0001654 0.0008369
0.0001477 -0.0003387 0.0001011 0.0001336 0.0001492 0.0001021 0.0001827 -0.0000057 -0.0000112 -0.0010721 0.0000238 0.0010163 -0.0001916 -0.0000452 -0.0000048 -0.0000887 0.0002166 0.0000699 0.0001029 0.0006648
0.0001262 -0.0003975 0.0000888 0.0001067 0.0001277 -0.0000208 0.0001667 -0.0001058 -0.0000338 -0.0011257 -0.0000123 0.0009719 -0.0002394 -0.0000732 -0.0000345 -0.0000631 0.0001989 0.0001172 0.0001297 0.0007789
0.0001417 -0.0003170 0.0000776 0.0001546 0.0001064 0.0000485 0.0001572 0.0000660 -0.0000504 -0.0009881 -0.0000497 0.0010797 -0.0002901 0.0000567 -0.0000676 0.0000409 0.0001775 0.0002283 0.0001318 0.0009934
0.0001460 -0.0001477 0.0000711 0.0002468 0.0000780 0.0002111 0.0001306 0.0003046 -0.0000921 -0.0007740 -0.0000946 0.0012530 -0.0003309 0.0002686 -0.0000818 0.0001372 0.0001583 0.0003531 0.0000667 0.0012952
0.0001050 0.0000906 0.0000608 0.0003641 0.0000415 0.0004119 0.0000848 0.0004801 -0.0001341 -0.0006447 -0.0001469 0.0013114 -0.0003731 0.0003566 -0.0000976 0.0001308 0.0001370 0.0003485 -0.0000145 0.0011755
0.0000694 0.0000263 0.0000477 0.0003066 0.0000077 0.0003410 0.0000274 0.0003158 -0.0001414 -0.0007767 -0.0001885 0.0011796 -0.0004337 0.0002246 -0.0001049 0.0000428 0.0001142 0.0002791 -0.0000659 0.0009326
0.0000371 -0.0001435 0.0000400 0.0002019 -0.0000158 0.0001700 -0.0000063 0.0001238 -0.0001505 -0.0008950 -0.0002142 0.0010993 -0.0004968 0.0001715 -0.0001072 0.0000159 0.0001055 0.0002919 -0.0000927 0.0010243
0.0000215 -0.0001129 0.0000289 0.0002485 -0.0000363 0.0002176 -0.0000162 0.0002500 -0.0001765 -0.0007982 -0.0002418 0.0011950 -0.0005396 0.0003023 -0.0001083 0.0000784 0.0001024 0.0003658 -0.0001046 0.0012222
0.0000263 -0.0000127 0.0000121 0.0003418 -0.0000578 0.0003560 -0.0000364 0.0004575 -0.0002222 -0.0006108 -0.0002741 0.0013635 -0.0005801 0.0005001 -0.0001120 0.0001778 0.0000756 0.0004663 -0.0001343 0.0013418
0.0000038 0.0000539 0.0000067 0.0003398 -0.0000795 0.0003995 -0.0000814 0.0004101 -0.0002365 -0.0006460 -0.0003042 0.0012959 -0.0006184 0.0004423 -0.0001276 0.0001196 0.0000600 0.0003930 -0.0001783 0.0011056
-0.0000243 -0.0001001 0.0000031 0.0002373 -0.0000966 0.0002398 -0.0001168 0.0001434 -0.0002260 -0.0008570 -0.0003219 0.0010742 -0.0006457 0.0002275 -0.0001439 0.0000243 0.0000577 0.0002827 -0.0001911 0.0009387
-0.0000186 -0.0002413 -0.0000058 0.0002152 -0.0001021 0.0001467 -0.0001145 0.0001099 -0.0002434 -0.0008500 -0.0003312 0.0010488 -0.0006680 0.0002405 -0.0001416 0.0000663 0.0000516 0.0003274 -0.0001789 0.0010737
-0.0000084 -0.0001893 -0.0000165 0.0002802 -0.0001081 0.0002362 -0.0001065 0.0002936 -0.0002681 -0.0006910 -0.0003486 0.0011589 -0.0006750 0.0003908 -0.0001483 0.0001431 0.0000543 0.0004242 -0.0001598 0.0012913
-0.0000121 -0.0000320 -0.0000269 0.0003726 -0.0001217 0.0003996 -0.0001141 0.0005220 -0.0002989 -0.0004730 -0.0003775 0.0013059 -0.0006937 0.0005495 -0.0001503 0.0001768 0.0000484 0.0004604 -0.0001891 0.0012401
-0.0000222 -0.0000346 -0.0000327 0.0003227 -0.0001293 0.0003470 -0.0001450 0.0003575 -0.0003037 -0.0005362 -0.0003979 0.0011512 -0.0007202 0.0004135 -0.0001502 0.0000769 0.0000386 0.0003510 -0.0002095 0.0009106
-0.0000114 -0.0002588 -0.0000342 0.0001763 -0.0001272 0.0000920 -0.0001612 -0.0000112 -0.0002745 -0.0007919 -0.0003959 0.0008648 -0.0007138 0.0001488 -0.0001478 -0.0000104 0.0000450 0.0002675 -0.0001647 0.0008085
0.0000173 -0.0003464 -0.0000267 0.0001574 -0.0001114 0.0000009 -0.0001377 -0.0000360 -0.0002529 -0.0008069 -0.0003864 0.0008421 -0.0006844 0.0001458 -0.0001368 0.0000428 0.0000543 0.0003131 -0.0001066 0.0009641
0.0000365 -0.0002292 -0.0000158 0.0002229 -0.0000966 0.0000831 -0.0001125 0.0001314 -0.0002368 -0.0006854 -0.0003861 0.0009465 -0.0006580 0.0002841 -0.0001505 0.0001619 0.0000493 0.0004272 -0.0000648 0.0011899
0.0000635 -0.0000492 -0.0000074 0.0003106 -0.0000996 0.0002297 -0.0001118 0.0003473 -0.0002310 -0.0005136 -0.0003963 0.0010484 -0.0006456 0.0003780 -0.0001315 0.0001517 0.0000473 0.0004405 -0.0001306 0.0011135
0.0000578 -0.0000748 -0.0000279 0.0002927 -0.0001054 0.0001418 -0.0001344 0.0001708 -0.0002306 -0.0006122 -0.0003987 0.0008897 -0.0006503 0.0001985 -0.0001004 -0.0000032 0.0000525 0.0003244 -0.0001671 0.0008257
0.0000483 -0.0002897 -0.0000323 0.0001739 -0.0000981 -0.0001150 -0.0001360 -0.0001710 -0.0002155 -0.0008577 -0.0003781 0.0006726 -0.0006227 -0.0000372 -0.0001058 -0.0000820 0.0000643 0.0002703 -0.0000946 0.0007934
0.0000587 -0.0003293 -0.0000176 0.0001517 -0.0000806 -0.0001721 -0.0001101 -0.0001565 -0.0002054 -0.0008752 -0.0003488 0.0006812 -0.0005681 -0.0000409 -0.0000953 -0.0000405 0.0000650 0.0003199 -0.0000353 0.0009570
0.0000822 -0.0001802 0.0000004 0.0002611 -0.0000567 -0.0000481 -0.0000970 -0.0000422 -0.0002202 -0.0007926 -0.0003389 0.0007625 -0.0005414 0.0000562 -0.0000816 0.0000646 0.0000512 0.0004241 0.0000196 0.0011441
0.0001078 -0.0000112 0.0000312 0.0003587 -0.0000412 0.0000800 -0.0001098 -0.0000461 -0.0002220 -0.0008128 -0.0003330 0.0007042 -0.0005355 -0.0000109 -0.0000827 0.0000110 0.0000530 0.0003741 0.0000088 0.0009496
0.0000964 -0.0001245 0.0000430 0.0002780 -0.0000399 -0.0000929 -0.0001242 -0.0003085 -0.0002083 -0.0010101 -0.0003075 0.0004909 -0.0005163 -0.0002808 -0.0000879 -0.0001252 0.0000619 0.0002256 0.0000136 0.0006336
0.0001077 -0.0003726 0.0000440 0.0001669 -0.0000294 -0.0003301 -0.0000995 -0.0004943 -0.0001716 -0.0011618 -0.0002652 0.0003979 -0.0004721 -0.0004272 -0.0000882 -0.0001545 0.0000772 0.0002034 0.0000641 0.0006722
0.0001308 -0.0003839 0.0000480 0.0001624 -0.0000073 -0.0003378 -0.0000553 -0.0003973 -0.0001496 -0.0010810 -0.0002268 0.0004648 -0.0004089 -0.0003965 -0.0000786 -0.0001281 0.0000883 0.0002539 0.0000829 0.0008283
0.0001367 -0.0002712 0.0000506 0.0002183 0.0000058 -0.0002522 -0.0000346 -0.0002320 -0.0001490 -0.0009449 -0.0002103 0.0005891 -0.0003725 -0.0002844 -0.0000606 -0.0000944 0.0000873 0.0002810 0.0000703 0.0008251
0.0001446 -0.0002864 0.0000588 0.0001726 0.0000092 -0.0002921 -0.0000470 -0.0003471 -0.0001367 -0.0010483 -0.0002006 0.0004586 -0.0003681 -0.0004270 -0.0000426 -0.0002033 0.0000839 0.0001823 0.0000576 0.0005379
0.0001512 -0.0004716 0.0000769 0.0000638 0.0000324 -0.0005042 -0.0000470 -0.0006967 -0.0001175 -0.0012969 -0.0001744 0.0001610 -0.0003255 -0.0007395 -0.0000232 -0.0003057 0.0000772 0.0000985 0.0001194 0.0003664
0.0001675 -0.0005762 0.0000830 0.0000452 0.0000687 -0.0006246 -0.0000061 -0.0007841 -0.0000872 -0.0013719 -0.0001303 0.0000985 -0.0002651 -0.0008186 -0.0000224 -0.0002910 0.0000855 0.0001182 0.0002006 0.0004478
0.0001971 -0.0005432 0.0000840 0.0000826 0.0000903 -0.0005940 0.0000337 -0.0006473 -0.0000728 -0.0012615 -0.0000957 0.0001857 -0.0002152 -0.0007552 -0.0000174 -0.0002601 0.0001137 0.0001542 0.0002449 0.0006217
0.0002142 -0.0004240 0.0000986 0.0001395 0.0000986 -0.0004894 0.0000503 -0.0004719 -0.0000699 -0.0011063 -0.0000816 0.0003070 -0.0001874 -0.0006033 0.0000049 -0.0002185 0.0001215 0.0002088 0.0002476 0.0006601
0.0002160 -0.0003964 0.0001070 0.0001003 0.0001028 -0.0005096 0.0000390 -0.0005672 -0.0000691 -0.0011495 -0.0000718 0.0001694 -0.0001750 -0.0007178 -0.0000074 -0.0002565 0.0001104 0.0001198 0.0002419 0.0003372
0.0002040 -0.0005929 0.0001111 -0.0000147 0.0001159 -0.0007236 0.0000369 -0.0008906 -0.0000393 -0.0013930 -0.0000434 -0.0001239 -0.0001348 -0.0010343 -0.0000143 -0.0003617 0.0001257 -0.0000286 0.0002640 0.0001351
0.0001926 -0.0007274 0.0001289 -0.0000804 0.0001406 -0.0008480 0.0000713 -0.0009776 0.0000008 -0.0014512 -0.0000068 -0.0002167 -0.0000550 -0.0010804 0.0000030 -0.0004277 0.0001251 -0.0000515 0.0003099 0.0002460
0.0002478 -0.0007791 0.0000503 -0.0002098 0.0001389 -0.0008396 0.0000762 -0.0009095 0.0000453 -0.0011024 0.0000059 -0.0002416 0.0000556 -0.0007880 0.0000160 -0.0004048 0.0001155 -0.0000371 0.0002738 0.0001906
0.0002429 -0.0009721 -0.0001177 -0.0005120 0.0000931 -0.0008985 0.0001123 -0.0006352 0.0001229 -0.0006408 -0.0000140 -0.0002457 0.0000942 -0.0005534 -0.0000091 -0.0003431 0.0000999 -0.0000104 0.0001783 0.0000897
0.0001888 -0.0010791 -0.0002361 -0.0007567 0.0000380 -0.0009274 0.0001218 -0.0003943 0.0001534 -0.0004649 -0.0000568 -0.0002845 0.0000504 -0.0006184 -0.0000640 -0.0004231 0.0000574 -0.0000888 0.0001126 -0.0000788
0.0001771 -0.0011559 -0.0002860 -0.0009690 0.0000028 -0.0010537 0.0000330 -0.0007392 0.0001342 -0.0005596 -0.0001047 -0.0005992 0.0000755 -0.0007613 -0.0000720 -0.0005761 0.0000438 -0.0002403 0.0001247 -0.0002240
0.0001818 -0.0013022 -0.0003278 -0.0011745 0.0000117 -0.0012249 -0.0000004 -0.0011040 0.0001382 -0.0007024 -0.0000598 -0.0007592 0.0001423 -0.0008422 -0.0000547 -0.0006148 0.0000410 -0.0002896 0.0002062 -0.0001519
0.0002009 -0.0013418 -0.0003450 -0.0012113 0.0000453 -0.0012175 0.0000427 -0.0010136 0.0001633 -0.0006581 0.0000099 -0.0006591 0.0001845 -0.0007966 -0.0000588 -0.0005544 0.0000443 -0.0002504 0.0002574 -0.0000747
0.0002025 -0.0013053 -0.0003429 -0.0011727 0.0000600 -0.0011372 0.0000754 -0.0008274 0.0001867 -0.0004908 0.0000427 -0.0005595 0.0002281 -0.0006515 -0.0000694 -0.0004522 0.0000562 -0.0001798 0.0002650 0.0000271
0.0002092 -0.0012169 -0.0003256 -0.0011706 0.0000633 -0.0010873 0.0000709 -0.0008342 0.0001903 -0.0005042 0.0000747 -0.0005950 0.0002402 -0.0006908 -0.0000785 -0.0004807 0.0000494 -0.0002470 0.0002404 -0.0001670
0.0001926 -0.0013324 -0.0003111 -0.0012519 0.0000732 -0.0012284 0.0000693 -0.0010535 0.0002013 -0.0006664 0.0000970 -0.0008271 0.0002571 -0.0009219 -0.0000732 -0.0005831 0.0000522 -0.0003546 0.0002423 -0.0003867
0.0001788 -0.0014628 -0.0003196 -0.0012988 0.0000959 -0.0013333 0.0000992 -0.0011498 0.0002323 -0.0006851 0.0001478 -0.0008819 0.0003302 -0.0009309 -0.0000641 -0.0005523 0.0000627 -0.0003336 0.0002773 -0.0002905
0.0002147 -0.0014014 -0.0003180 -0.0012649 0.0001245 -0.0012673 0.0001385 -0.0010249 0.0002507 -0.0005731 0.0001903 -0.0007964 0.0003841 -0.0007882 -0.0000430 -0.0005069 0.0000663 -0.0002618 0.0003221 -0.0001577
0.0002582 -0.0012978 -0.0003187 -0.0011933 0.0001374 -0.0011529 0.0001579 -0.0008494 0.0002438 -0.0004242 0.0002018 -0.0006936 0.0003971 -0.0007143 -0.0000245 -0.0005014 0.0000804 -0.0002506 0.0002914 -0.0002791
0.0002499 -0.0013315 -0.0003069 -0.0012434 0.0001417 -0.0012144 0.0001512 -0.0010140 0.0002463 -0.0005372 0.0002081 -0.0008482 0.0004261 -0.0009202 -0.0000358 -0.0005827 0.0000837 -0.0003492 0.0002582 -0.0006130
0.0002443 -0.0015557 -0.0002948 -0.0013693 0.0001657 -0.0014162 0.0001656 -0.0013432 0.0002886 -0.0007816 0.0002495 -0.0011029 0.0004701 -0.0011355 -0.0000380 -0.0006567 0.0001038 -0.0004036 0.0003306 -0.0007201
0.0002651 -0.0016056 -0.0003005 -0.0013700 0.0002024 -0.0014305 0.0002111 -0.0013255 0.0003242 -0.0007530 0.0002913 -0.0011290 0.0005281 -0.0010564 -0.0000061 -0.0006132 0.0001305 -0.0003718 0.0003947 -0.0005868
0.0002844 -0.0014922 -0.0003026 -0.0013187 0.0002146 -0.0013205 0.0002267 -0.0011810 0.0003193 -0.0006178 0.0002958 -0.0010664 0.0005547 -0.0009395 -0.0000140 -0.0005198 0.0001156 -0.0002809 0.0004339 -0.0004070
0.0002956 -0.0013540 -0.0003064 -0.0012717 0.0002061 -0.0012352 0.0002080 -0.0011631 0.0002947 -0.0005776 0.0002795 -0.0011274 0.0005338 -0.0010221 -0.0000404 -0.0005339 0.0001010 -0.0003212 0.0003989 -0.0006104
0.0002578 -0.0014054 -0.0003131 -0.0012881 0.0002101 -0.0013183 0.0002052 -0.0013534 0.0003129 -0.0007555 0.0002827 -0.0013639 0.0005643 -0.0012097 0.0000303 -0.0004864 0.0001251 -0.0003742 0.0004029 -0.0008511
0.0002536 -0.0014666 -0.0002703 -0.0012655 0.0002412 -0.0013754 0.0002410 -0.0014866 0.0003497 -0.0009117 0.0003451 -0.0014514 0.0006410 -0.0012012 0.0000928 -0.0003925 0.0001681 -0.0003250 0.0004775 -0.0007700
0.0002814 -0.0013516 -0.0002211 -0.0011565 0.0002773 -0.0012595 0.0002798 -0.0014161 0.0003434 -0.0008841 0.0004140 -0.0013240 0.0006869 -0.0011075 0.0000849 -0.0003911 0.0001956 -0.0003019 0.0004999 -0.0006684
0.0002964 -0.0012438 -0.0002028 -0.0010435 0.0002937 -0.0011156 0.0002903 -0.0013231 0.0003327 -0.0008584 0.0004347 -0.0012937 0.0007132 -0.0011673 0.0000591 -0.0003870 0.0001929 -0.0003287 0.0004928 -0.0008296
0.0003039 -0.0013301 -0.0001997 -0.0011153 0.0002903 -0.0011742 0.0002654 -0.0015439 0.0003471 -0.0009435 0.0004460 -0.0014902 0.0007613 -0.0013052 0.0000454 -0.0004965 0.0001909 -0.0004480 0.0004897 -0.0011438
0.0003070 -0.0015882 -0.0002337 -0.0012974 0.0002806 -0.0013758 0.0002907 -0.0017127 0.0003899 -0.0009101 0.0004914 -0.0015741 0.0008136 -0.0013059 0.0000422 -0.0005535 0.0002050 -0.0005027 0.0004755 -0.0012252
0.0003188 -0.0016804 -0.0002670 -0.0013656 0.0002672 -0.0014421 0.0003635 -0.0015120 0.0004440 -0.0007115 0.0005258 -0.0014920 0.0008376 -0.0012098 0.0000237 -0.0005177 0.0002049 -0.0004615 0.0004597 -0.0011443
0.0003171 -0.0015866 -0.0002870 -0.0013553 0.0002482 -0.0013755 0.0004021 -0.0012648 0.0004774 -0.0005007 0.0005298 -0.0013873 0.0008565 -0.0011028 0.0000256 -0.0005133 0.0001852 -0.0004309 0.0004428 -0.0012436
0.0002900 -0.0016064 -0.0003114 -0.0013876 0.0002383 -0.0013974 0.0004027 -0.0013198 0.0005020 -0.0005216 0.0005420 -0.0014450 0.0008721 -0.0012188 0.0000431 -0.0006017 0.0001784 -0.0004916 0.0004096 -0.0015637
0.0002373 -0.0017580 -0.0003145 -0.0014743 0.0002435 -0.0015466 0.0004073 -0.0015576 0.0005373 -0.0006680 0.0005681 -0.0016012 0.0008946 -0.0013801 0.0000331 -0.0006375 0.0001819 -0.0005293 0.0004310 -0.0016132
0.0002414 -0.0017648 -0.0003169 -0.0014618 0.0002515 -0.0015346 0.0004358 -0.0014932 0.0005546 -0.0006052 0.0005905 -0.0015606 0.0009269 -0.0012950 0.0000074 -0.0005309 0.0001825 -0.0004593 0.0004680 -0.0014205
0.0002709 -0.0016462 -0.0003176 -0.0014256 0.0002443 -0.0013859 0.0004488 -0.0012801 0.0005476 -0.0004390 0.0005886 -0.0014265 0.0009369 -0.0011320 -0.0000176 -0.0004280 0.0001800 -0.0003501 0.0004937 -0.0011923
0.0002385 -0.0014849 -0.0003232 -0.0014151 0.0002209 -0.0012363 0.0004263 -0.0011703 0.0005244 -0.0003545 0.0005710 -0.0013995 0.0009049 -0.0011167 -0.0000333 -0.0004517 0.0001620 -0.0003535 0.0004363 -0.0012757
0.0001923 -0.0015426 -0.0003425 -0.0014540 0.0001950 -0.0012919 0.0003874 -0.0013657 0.0005140 -0.0004859 0.0005633 -0.0015119 0.0008717 -0.0012853 -0.0000343 -0.0005444 0.0001461 -0.0004196 0.0003693 -0.0014676
0.0001657 -0.0016608 -0.0003523 -0.0014691 0.0001892 -0.0013920 0.0003876 -0.0014988 0.0005145 -0.0005612 0.0005953 -0.0014634 0.0008856 -0.0013488 -0.0000403 -0.0005278 0.0001398 -0.0004139 0.0003893 -0.0014268
0.0001498 -0.0016089 -0.0003524 -0.0013928 0.0001910 -0.0013284 0.0004053 -0.0013880 0.0004899 -0.0005232 0.0006335 -0.0012777 0.0008675 -0.0012982 -0.0000303 -0.0005017 0.0001230 -0.0003797 0.0004084 -0.0013396
0.0001247 -0.0015219 -0.0003405 -0.0013213 0.0001786 -0.0012179 0.0004042 -0.0012366 0.0004609 -0.0004737 0.0006512 -0.0011408 0.0008415 -0.0012410 -0.0000317 -0.0005411 0.0001093 -0.0004049 0.0003644 -0.0014280
0.0000929 -0.0015827 -0.0003470 -0.0013515 0.0001636 -0.0012700 0.0003768 -0.0014027 0.0004657 -0.0006145 0.0006804 -0.0011837 0.0008583 -0.0013340 -0.0000666 -0.0006008 0.0001127 -0.0004792 0.0003271 -0.0016195
0.0000813 -0.0017337 -0.0003602 -0.0014279 0.0001617 -0.0014060 0.0003671 -0.0016935 0.0004745 -0.0007877 0.0007181 -0.0012429 0.0008799 -0.0014436 -0.0001068 -0.0006073 0.0000961 -0.0004732 0.0003538 -0.0015918
0.0000793 -0.0016903 -0.0003676 -0.0013933 0.0001667 -0.0013625 0.0003961 -0.0016305 0.0004687 -0.0007092 0.0007472 -0.0011245 0.0008934 -0.0013102 -0.0001050 -0.0005492 0.0000679 -0.0003886 0.0003936 -0.0014067
0.0000738 -0.0015109 -0.0003798 -0.0012759 0.0001561 -0.0012195 0.0004157 -0.0014085 0.0004615 -0.0005654 0.0007481 -0.0009490 0.0008900 -0.0010882 -0.0000944 -0.0004411 0.0000627 -0.0002703 0.0003875 -0.0012286
0.0000687 -0.0013896 -0.0003730 -0.0012534 0.0001387 -0.0011546 0.0003982 -0.0014092 0.0004579 -0.0006068 0.0007332 -0.0009687 0.0008855 -0.0011518 -0.0000983 -0.0004905 0.0000478 -0.0002886 0.0003559 -0.0014046
0.0000452 -0.0014793 -0.0003621 -0.0013442 0.0001295 -0.0012649 0.0003830 -0.0016754 0.0004765 -0.0008038 0.0007505 -0.0011072 0.0008958 -0.0013199 -0.0000884 -0.0006094 0.0000456 -0.0003678 0.0003361 -0.0015520
0.0000493 -0.0015705 -0.0003635 -0.0013763 0.0001237 -0.0013245 0.0004064 -0.0017403 0.0004945 -0.0008157 0.0007814 -0.0010521 0.0009256 -0.0012172 -0.0000974 -0.0005371 0.0000598 -0.0003313 0.0003614 -0.0013863
0.0000773 -0.0014777 -0.0003672 -0.0013234 0.0001107 -0.0012132 0.0004180 -0.0015757 0.0004965 -0.0006871 0.0007653 -0.0009269 0.0009237 -0.0010474 -0.0001251 -0.0004044 0.0000526 -0.0002249 0.0003891 -0.0011762
0.0000743 -0.0012942 -0.0003739 -0.0012382 0.0000777 -0.0010293 0.0004090 -0.0013420 0.0004819 -0.0005569 0.0007011 -0.0008989 0.0008715 -0.0009994 -0.0001289 -0.0003997 0.0000313 -0.0001897 0.0003018 -0.0012369
0.0000417 -0.0012899 -0.0003947 -0.0012685 0.0000412 -0.0010690 0.0003749 -0.0015012 0.0004647 -0.0006522 0.0006371 -0.0011051 0.0008343 -0.0011802 -0.0001392 -0.0004985 -0.0000004 -0.0002595 0.0002428 -0.0014817
0.0000186 -0.0014456 -0.0004226 -0.0013684 0.0000124 -0.0012410 0.0003448 -0.0018138 0.0004700 -0.0008028 0.0005992 -0.0012827 0.0008194 -0.0012991 -0.0001524 -0.0005194 -0.0000059 -0.0002776 0.0002470 -0.0014029
0.0000181 -0.0014218 -0.0004420 -0.0013667 -0.0000155 -0.0012080 0.0003428 -0.0017507 0.0004748 -0.0007228 0.0005631 -0.0012206 0.0007921 -0.0011824 -0.0001554 -0.0004554 -0.0000188 -0.0001762 0.0002618 -0.0011517
0.0000231 -0.0012357 -0.0004569 -0.0012779 -0.0000465 -0.0010410 0.0003360 -0.0014984 0.0004663 -0.0005341 0.0005121 -0.0010720 0.0007482 -0.0009683 -0.0001748 -0.0003474 -0.0000469 -0.0000216 0.0002606 -0.0008977
0.0000246 -0.0010474 -0.0004765 -0.0012094 -0.0000803 -0.0008960 0.0003008 -0.0013942 0.0004423 -0.0004368 0.0004648 -0.0010610 0.0007020 -0.0009124 -0.0001838 -0.0003507 -0.0000645 -0.0000270 0.0001593 -0.0010040
-0.0000192 -0.0010764 -0.0004818 -0.0012371 -0.0001136 -0.0009425 0.0002756 -0.0015288 0.0004226 -0.0005176 0.0004245 -0.0011789 0.0006439 -0.0010055 -0.0001866 -0.0003711 -0.0000811 -0.0000767 0.0000696 -0.0012117
-0.0000659 -0.0011253 -0.0004552 -0.0012145 -0.0001412 -0.0009686 0.0002866 -0.0014922 0.0004231 -0.0005444 0.0003901 -0.0011337 0.0005787 -0.0009490 -0.0001697 -0.0002898 -0.0000878 0.0000226 0.0000699 -0.0010476
-0.0000969 -0.0009496 -0.0004119 -0.0010574 -0.0001609 -0.0007932 0.0002948 -0.0012028 0.0004055 -0.0004326 0.0003491 -0.0009453 0.0005413 -0.0007435 -0.0001614 -0.0001740 -0.0001019 0.0001688 0.0000676 -0.0007011
-0.0001353 -0.0007383 -0.0004125 -0.0008555 -0.0001975 -0.0005525 0.0002746 -0.0008598 0.0003540 -0.0002814 0.0003151 -0.0006939 0.0004955 -0.0005512 -0.0001962 -0.0001207 -0.0001468 0.0001965 -0.0000173 -0.0006896
-0.0001817 -0.0007660 -0.0004493 -0.0008320 -0.0002397 -0.0005239 0.0002045 -0.0009718 0.0003053 -0.0003793 0.0002902 -0.0006878 0.0004401 -0.0005975 -0.0002443 -0.0001919 -0.0001749 0.0000755 -0.0001117 -0.0009329
-0.0002306 -0.0009863 -0.0004989 -0.0009916 -0.0002890 -0.0006901 0.0001318 -0.0013035 0.0003057 -0.0005377 0.0002657 -0.0008162 0.0003816 -0.0007018 -0.0002465 -0.0002959 -0.0001906 0.0000024 -0.0001526 -0.0009642
-0.0002582 -0.0010913 -0.0005276 -0.0010677 -0.0003386 -0.0007282 0.0001140 -0.0012349 0.0002997 -0.0004453 0.0002283 -0.0007556 0.0003011 -0.0006789 -0.0002677 -0.0003349 -0.0002294 0.0000511 -0.0001785 -0.0008068
-0.0002529 -0.0009653 -0.0005244 -0.0009899 -0.0003664 -0.0005786 0.0001073 -0.0009602 0.0002664 -0.0002357 0.0001700 -0.0005853 0.0002415 -0.0004841 -0.0003175 -0.0002436 -0.0002589 0.0001350 -0.0002260 -0.0006318
-0.0002452 -0.0008194 -0.0005539 -0.0009948 -0.0003873 -0.0004715 0.0000638 -0.0009217 0.0002527 -0.0001168 0.0001293 -0.0006055 0.0002189 -0.0004016 -0.0003165 -0.0002764 -0.0002744 0.0000420 -0.0003209 -0.0008561
-0.0002694 -0.0009500 -0.0005893 -0.0011139 -0.0004035 -0.0005823 0.0000270 -0.0011386 0.0002419 -0.0002291 0.0001045 -0.0007833 0.0001899 -0.0005516 -0.0003190 -0.0004014 -0.0002659 -0.0000836 -0.0003518 -0.0009748
-0.0003081 -0.0010072 -0.0005783 -0.0011323 -0.0004103 -0.0006327 0.0000074 -0.0012137 0.0002045 -0.0003362 0.0000829 -0.0007638 0.0001332 -0.0005605 -0.0003431 -0.0003796 -0.0002704 -0.0000374 -0.0003216 -0.0007071
-0.0003344 -0.0008997 -0.0005750 -0.0010535 -0.0004123 -0.0004973 -0.0000206 -0.0010638 0.0001626 -0.0002836 0.0000612 -0.0005793 0.0000828 -0.0003909 -0.0003482 -0.0003174 -0.0002806 0.0000356 -0.0003092 -0.0004242
-0.0003534 -0.0007682 -0.0006039 -0.0009191 -0.0004212 -0.0002974 -0.0000520 -0.0008261 0.0001312 -0.0002043 0.0000346 -0.0004328 0.0000306 -0.0002949 -0.0003469 -0.0003486 -0.0002716 0.0000005 -0.0003568 -0.0005422
-0.0003946 -0.0007952 -0.0006117 -0.0009554 -0.0004320 -0.0003528 -0.0000916 -0.0009655 0.0000950 -0.0003157 0.0000027 -0.0005585 -0.0000277 -0.0004512 -0.0003602 -0.0004320 -0.0002817 -0.0001101 -0.0004076 -0.0008275
-0.0004153 -0.0009687 -0.0006118 -0.0010925 -0.0004329 -0.0005497 -0.0001133 -0.0011980 0.0000756 -0.0004156 -0.0000168 -0.0006747 -0.0000537 -0.0005308 -0.0003388 -0.0004844 -0.0002742 -0.0001355 -0.0004148 -0.0007248
-0.0003922 -0.0009299 -0.0006178 -0.0010411 -0.0004237 -0.0005161 -0.0001170 -0.0010666 0.0000803 -0.0003170 -0.0000278 -0.0005747 -0.0000411 -0.0003598 -0.0003279 -0.0004022 -0.0002542 -0.0000763 -0.0004445 -0.0005079
-0.0004011 -0.0007896 -0.0006337 -0.0009601 -0.0004304 -0.0004002 -0.0001159 -0.0007683 0.0000619 -0.0001144 -0.0000546 -0.0004096 -0.0000685 -0.0001418 -0.0003561 -0.0002882 -0.0002675 0.0000096 -0.0004537 -0.0004575
-0.0004490 -0.0007296 -0.0006562 -0.0010207 -0.0004598 -0.0004298 -0.0001560 -0.0007468 0.0000059 -0.0000609 -0.0001002 -0.0004913 -0.0001366 -0.0002028 -0.0003888 -0.0003750 -0.0003013 -0.0000382 -0.0004423 -0.0005072
-0.0004358 -0.0007409 -0.0006942 -0.0011885 -0.0004812 -0.0005534 -0.0002399 -0.0010545 -0.0000143 -0.0001604 -0.0000356 -0.0004736 -0.0001493 -0.0004015 -0.0003949 -0.0004681 -0.0003016 -0.0001499 -0.0004879 -0.0004861
-0.0004443 -0.0007767 -0.0007027 -0.0012304 -0.0004830 -0.0006088 -0.0002687 -0.0010784 -0.0000278 -0.0001806 -0.0000248 -0.0003906 -0.0002074 -0.0004817 -0.0004286 -0.0004587 -0.0003208 -0.0001475 -0.0005204 -0.0003887
-0.0004950 -0.0007119 -0.0007112 -0.0011916 -0.0004815 -0.0005223 -0.0002555 -0.0007785 -0.0000374 -0.0000151 -0.0000908 -0.0003470 -0.0002677 -0.0003493 -0.0004373 -0.0004234 -0.0003590 -0.0000792 -0.0005124 -0.0002361
-0.0004980 -0.0005686 -0.0007344 -0.0012109 -0.0004785 -0.0003899 -0.0002777 -0.0006436 -0.0000340 0.0001286 -0.0000791 -0.0002779 -0.0002544 -0.0002663 -0.0004004 -0.0004514 -0.0003548 -0.0001263 -0.0005731 -0.0003840
-0.0005029 -0.0006381 -0.0007226 -0.0012788 -0.0004774 -0.0004763 -0.0003060 -0.0007750 -0.0000492 0.0000731 -0.0000822 -0.0004105 -0.0002506 -0.0003734 -0.0003919 -0.0005223 -0.0003431 -0.0002134 -0.0006147 -0.0005374
-0.0005069 -0.0006786 -0.0007147 -0.0012872 -0.0004837 -0.0005517 -0.0003174 -0.0008013 -0.0000438 0.0000842 -0.0000800 -0.0004213 -0.0002410 -0.0002928 -0.0003853 -0.0004991 -0.0003268 -0.0001530 -0.0005727 -0.0003582
-0.0004984 -0.0005121 -0.0006974 -0.0011878 -0.0004859 -0.0004445 -0.0003256 -0.0006268 -0.0000575 0.0002228 -0.0000784 -0.0002945 -0.0002577 -0.0001061 -0.0003791 -0.0004200 -0.0003039 -0.0000435 -0.0005643 -0.0001144
-0.0005138 -0.0003792 -0.0006887 -0.0010695 -0.0004795 -0.0003058 -0.0003305 -0.0004399 -0.0001036 0.0003393 -0.0000688 -0.0002245 -0.0002668 -0.0000244 -0.0003553 -0.0004468 -0.0002929 -0.0000488 -0.0006077 -0.0001673
-0.0005422 -0.0004640 -0.0006744 -0.0010964 -0.0004721 -0.0003886 -0.0003425 -0.0005161 -0.0001200 0.0002540 -0.0000565 -0.0003439 -0.0002486 -0.0001206 -0.0003338 -0.0005496 -0.0002826 -0.0001409 -0.0006400 -0.0003341
-0.0005630 -0.0005661 -0.0006693 -0.0011916 -0.0004636 -0.0005499 -0.0003471 -0.0006416 -0.0001162 0.0001772 -0.0000493 -0.0004214 -0.0002332 -0.0001761 -0.0003157 -0.0005521 -0.0002715 -0.0001564 -0.0006406 -0.0002670
-0.0005802 -0.0005157 -0.0006680 -0.0011880 -0.0004582 -0.0005102 -0.0003498 -0.0005200 -0.0001318 0.0002825 -0.0000613 -0.0003539 -0.0002585 -0.0000299 -0.0003078 -0.0004674 -0.0002695 -0.0000915 -0.0006286 -0.0001096
-0.0005911 -0.0004133 -0.0006727 -0.0011436 -0.0004647 -0.0003692 -0.0003605 -0.0002610 -0.0001471 0.0004753 -0.0000917 -0.0002546 -0.0002895 0.0001362 -0.0002885 -0.0004561 -0.0002728 -0.0000686 -0.0006807 -0.0001621
-0.0006048 -0.0004486 -0.0006876 -0.0011909 -0.0004642 -0.0004025 -0.0003813 -0.0003003 -0.0001545 0.0004738 -0.0001092 -0.0003656 -0.0002706 0.0000315 -0.0002751 -0.0005157 -0.0002789 -0.0001590 -0.0007452 -0.0003737
-0.0006168 -0.0006007 -0.0006739 -0.0013309 -0.0004519 -0.0005785 -0.0003910 -0.0005130 -0.0001586 0.0003840 -0.0001146 -0.0005449 -0.0002551 -0.0000887 -0.0002625 -0.0005396 -0.0002520 -0.0002118 -0.0007490 -0.0003605
-0.0006196 -0.0005935 -0.0006711 -0.0013505 -0.0004418 -0.0005802 -0.0003835 -0.0004396 -0.0001622 0.0004933 -0.0001293 -0.0005192 -0.0002378 0.0000148 -0.0002427 -0.0004965 -0.0002145 -0.0001668 -0.0007485 -0.0001965
-0.0006180 -0.0004607 -0.0006814 -0.0012691 -0.0004393 -0.0004547 -0.0003828 -0.0002002 -0.0001687 0.0006908 -0.0001539 -0.0003905 -0.0002402 0.0001918 -0.0002437 -0.0003965 -0.0002161 -0.0000495 -0.0007297 -0.0000356
-0.0006145 -0.0003363 -0.0006773 -0.0012242 -0.0004366 -0.0003702 -0.0004005 -0.0001071 -0.0001957 0.0007546 -0.0001628 -0.0003768 -0.0002747 0.0001619 -0.0002368 -0.0004331 -0.0002296 -0.0000474 -0.0007797 -0.0001544
-0.0006326 -0.0003962 -0.0006256 -0.0011662 -0.0004237 -0.0004785 -0.0003785 -0.0001311 -0.0002400 0.0005512 -0.0001501 -0.0003814 -0.0003312 -0.0000802 -0.0001951 -0.0004218 -0.0001900 -0.0000322 -0.0008275 -0.0003388
-0.0006797 -0.0004220 -0.0005398 -0.0009449 -0.0003959 -0.0005037 -0.0003125 0.0000886 -0.0002902 0.0004426 -0.0001483 -0.0002812 -0.0003371 -0.0000281 -0.0001575 -0.0002719 -0.0001476 0.0001331 -0.0007160 0.0000111
-0.0007053 -0.0002216 -0.0004991 -0.0007433 -0.0003828 -0.0002857 -0.0003253 0.0003492 -0.0003463 0.0005640 -0.0001155 0.0000156 -0.0002876 0.0003139 -0.0001484 -0.0001416 -0.0001463 0.0002852 -0.0006462 0.0005953
-0.0007140 0.0000130 -0.0004762 -0.0005221 -0.0003899 -0.0000285 -0.0003636 0.0006416 -0.0004170 0.0006095 -0.0000479 0.0004347 -0.0003137 0.0004312 -0.0001520 -0.0001045 -0.0001434 0.0003124 -0.0006880 0.0005982
-0.0007518 0.0000605 -0.0004111 -0.0003383 -0.0003757 -0.0000050 -0.0003667 0.0006907 -0.0004960 0.0003897 -0.0000080 0.0005406 -0.0003900 0.0002037 -0.0001403 -0.0002025 -0.0001429 0.0002135 -0.0007060 0.0003611
-0.0007665 -0.0000087 -0.0003586 -0.0002926 -0.0003532 -0.0000977 -0.0003696 0.0005483 -0.0005350 0.0001407 0.0000219 0.0005562 -0.0004302 0.0000518 -0.0001332 -0.0002107 -0.0001497 0.0001984 -0.0006997 0.0004249
-0.0007511 0.0000379 -0.0003184 -0.0001300 -0.0003357 0.0000082 -0.0003364 0.0007656 -0.0005769 0.0001362 0.0000403 0.0007358 -0.0004576 0.0001940 -0.0001134 -0.0000083 -0.0001142 0.0003363 -0.0008018 0.0003490
-0.0007549 0.0001542 -0.0002986 -0.0000036 -0.0003411 0.0001735 -0.0002902 0.0011364 -0.0005453 0.0005447 0.0000317 0.0008130 -0.0003998 0.0005877 -0.0000657 0.0001003 -0.0000853 0.0003784 -0.0009199 -0.0000398
-0.0008286 -0.0001894 -0.0003395 -0.0002009 -0.0003801 0.0000148 -0.0003023 0.0010934 -0.0005179 0.0005945 0.0000386 0.0006625 -0.0003416 0.0005650 -0.0000955 -0.0000583 -0.0001115 0.0002349 -0.0008603 -0.0001311
-0.0008656 -0.0005476 -0.0003623 -0.0003823 -0.0003985 -0.0002483 -0.0003283 0.0008428 -0.0005758 0.0002897 0.0001155 0.0006976 -0.0003878 0.0001827 -0.0001468 -0.0002139 -0.0001237 0.0001370 -0.0007261 0.0001413
-0.0008079 -0.0004299 -0.0003307 -0.0002902 -0.0003805 -0.0002131 -0.0003368 0.0008404 -0.0006075 0.0002657 0.0001810 0.0009173 -0.0004288 0.0001350 -0.0001671 -0.0002060 -0.0001097 0.0001548 -0.0006322 0.0003676
-0.0007572 -0.0002909 -0.0003140 -0.0001855 -0.0003683 -0.0000705 -0.0003401 0.0010005 -0.0006375 0.0003403 0.0001708 0.0010602 -0.0004682 0.0002412 -0.0001894 -0.0001434 -0.0000989 0.0002115 -0.0006362 0.0004453
-0.0007215 -0.0002152 -0.0003208 -0.0002129 -0.0003626 -0.0000451 -0.0003571 0.0009716 -0.0006565 0.0003163 0.0001408 0.0009436 -0.0004997 0.0001081 -0.0002093 -0.0002327 -0.0001081 0.0000983 -0.0006671 0.0002418
-0.0006941 -0.0003515 -0.0003324 -0.0003347 -0.0003540 -0.0002062 -0.0003807 0.0006899 -0.0006695 0.0001237 0.0001427 0.0007032 -0.0004961 -0.0001515 -0.0002191 -0.0003627 -0.0001153 -0.0000324 -0.0005985 0.0000976
-0.0006614 -0.0004693 -0.0003296 -0.0003954 -0.0003455 -0.0003103 -0.0003739 0.0005971 -0.0006713 0.0000580 0.0001562 0.0006757 -0.0004661 -0.0001835 -0.0002054 -0.0003775 -0.0001075 -0.0000030 -0.0005019 0.0002327
-0.0006271 -0.0003982 -0.0003224 -0.0003526 -0.0003381 -0.0002407 -0.0003639 0.0007265 -0.0006898 0.0001603 0.0001540 0.0007956 -0.0004494 -0.0000553 -0.0001879 -0.0003056 -0.0000987 0.0000898 -0.0004608 0.0004364
-0.0006219 -0.0002819 -0.0003382 -0.0002827 -0.0003374 -0.0000820 -0.0003660 0.0009188 -0.0007301 0.0002533 0.0001434 0.0008798 -0.0004595 0.0000022 -0.0001980 -0.0003007 -0.0000931 0.0000702 -0.0004740 0.0002955
-0.0006561 -0.0003600 -0.0003652 -0.0003347 -0.0003342 -0.0001541 -0.0003837 0.0007766 -0.0007308 0.0000977 0.0001406 0.0007541 -0.0004704 -0.0001584 -0.0002195 -0.0003752 -0.0000797 -0.0000542 -0.0004955 0.0000548
-0.0006601 -0.0005113 -0.0003702 -0.0004350 -0.0003240 -0.0003405 -0.0003826 0.0005515 -0.0007150 -0.0000358 0.0001434 0.0006495 -0.0004650 -0.0002450 -0.0002371 -0.0003466 -0.0000682 -0.0000580 -0.0004518 0.0001263
-0.0006396 -0.0004654 -0.0003436 -0.0004280 -0.0003173 -0.0003025 -0.0003614 0.0006543 -0.0007081 0.0000531 0.0001400 0.0007479 -0.0004448 -0.0001363 -0.0002352 -0.0002677 -0.0000720 0.0000449 -0.0003967 0.0003442
-0.0006230 -0.0002981 -0.0003339 -0.0003300 -0.0003226 -0.0001570 -0.0003491 0.0008864 -0.0007231 0.0002297 0.0001279 0.0009394 -0.0004433 0.0000513 -0.0002182 -0.0002029 -0.0000784 0.0001631 -0.0003933 0.0006219
-0.0006235 -0.0000713 -0.0003438 -0.0002199 -0.0003340 0.0000128 -0.0003683 0.0010316 -0.0007525 0.0003187 0.0001112 0.0009817 -0.0004713 0.0001043 -0.0002327 -0.0002151 -0.0000929 0.0001209 -0.0004296 0.0005130
-0.0006454 -0.0001103 -0.0003498 -0.0002737 -0.0003513 -0.0000602 -0.0004022 0.0008742 -0.0007453 0.0001904 0.0000959 0.0008516 -0.0004954 -0.0000381 -0.0002490 -0.0002810 -0.0000910 0.0000191 -0.0004320 0.0003023
-0.0006333 -0.0002157 -0.0003481 -0.0003354 -0.0003680 -0.0001870 -0.0004088 0.0007645 -0.0007389 0.0001364 0.0000785 0.0008421 -0.0005031 -0.0000654 -0.0002285 -0.0002827 -0.0000944 0.0000658 -0.0003920 0.0004612
-0.0005964 -0.0000980 -0.0003473 -0.0002826 -0.0003818 -0.0000759 -0.0004022 0.0009549 -0.0007499 0.0003001 0.0000560 0.0010037 -0.0005181 0.0001257 -0.0002358 -0.0001974 -0.0000991 0.0001636 -0.0003816 0.0007103
-0.0005992 0.0000839 -0.0003602 -0.0001854 -0.0004075 0.0001122 -0.0004073 0.0012417 -0.0007670 0.0005195 0.0000217 0.0012110 -0.0005455 0.0003689 -0.0002597 -0.0000604 -0.0001082 0.0002813 -0.0003829 0.0008922
-0.0006124 0.0002270 -0.0003609 -0.0001458 -0.0004344 0.0002243 -0.0004516 0.0012936 -0.0007924 0.0005626 -0.0000105 0.0012162 -0.0005818 0.0003536 -0.0002862 -0.0000459 -0.0001222 0.0002533 -0.0004535 0.0008000
-0.0006323 0.0001830 -0.0003605 -0.0001949 -0.0004570 0.0001598 -0.0004955 0.0011403 -0.0008090 0.0004717 -0.0000339 0.0011065 -0.0006198 0.0002719 -0.0002969 -0.0000764 -0.0001193 0.0001935 -0.0005305 0.0006555
-0.0006874 0.0001224 -0.0003461 -0.0001473 -0.0004790 0.0001485 -0.0003657 0.0015487 -0.0007278 0.0008289 -0.0000721 0.0010972 -0.0005036 0.0008749 -0.0001331 0.0002590 -0.0000410 0.0005773 -0.0007962 -0.0000468
-0.0007716 0.0000276 -0.0003615 -0.0001368 -0.0004778 0.0003184 -0.0002609 0.0019519 -0.0006881 0.0011040 -0.0000769 0.0012511 -0.0004868 0.0009844 -0.0001340 0.0002989 -0.0000657 0.0005858 -0.0008784 -0.0001307
-0.0008199 0.0000514 -0.0004112 -0.0002006 -0.0005323 0.0003901 -0.0003561 0.0018815 -0.0007103 0.0011586 -0.0000470 0.0014411 -0.0005619 0.0007067 -0.0002286 0.0000718 -0.0001768 0.0001503 -0.0007986 0.0000696
-0.0008381 0.0000251 -0.0004098 -0.0002494 -0.0005588 0.0002835 -0.0003955 0.0017521 -0.0006996 0.0011532 -0.0000622 0.0012790 -0.0005429 0.0006991 -0.0002108 0.0000494 -0.0001489 0.0000372 -0.0008531 -0.0003353
-0.0008408 -0.0001917 -0.0003917 -0.0003590 -0.0005197 0.0001740 -0.0003548 0.0016487 -0.0006903 0.0009984 -0.0000828 0.0010696 -0.0005367 0.0005629 -0.0002043 -0.0000413 -0.0001183 0.0000631 -0.0007830 -0.0002261
-0.0007874 -0.0002785 -0.0003827 -0.0003950 -0.0005184 0.0001670 -0.0003319 0.0017184 -0.0006800 0.0010529 -0.0000821 0.0011311 -0.0005203 0.0006467 -0.0002022 0.0000032 -0.0001183 0.0001693 -0.0007413 -0.0000310
-0.0007825 -0.0002236 -0.0004007 -0.0003106 -0.0005371 0.0002632 -0.0003309 0.0019035 -0.0007033 0.0012041 -0.0001126 0.0012388 -0.0005168 0.0008241 -0.0002575 0.0001129 -0.0001268 0.0002543 -0.0006878 0.0003182
-0.0008132 -0.0001258 -0.0004509 -0.0003815 -0.0005753 0.0003158 -0.0003946 0.0018433 -0.0007118 0.0012179 -0.0001510 0.0011651 -0.0005258 0.0007665 -0.0002461 0.0000093 -0.0001256 0.0001532 -0.0007277 0.0002148
-0.0008004 -0.0002696 -0.0004652 -0.0005680 -0.0005980 0.0001435 -0.0004502 0.0015230 -0.0007205 0.0010127 -0.0001926 0.0008779 -0.0005752 0.0004549 -0.0002297 -0.0001406 -0.0001190 0.0000292 -0.0007775 -0.0001195
-0.0007519 -0.0003845 -0.0004633 -0.0005967 -0.0006001 -0.0000139 -0.0004394 0.0014277 -0.0007309 0.0009802 -0.0002414 0.0007051 -0.0005711 0.0004030 -0.0002365 -0.0001051 -0.0001005 0.0000498 -0.0007392 -0.0000740
-0.0007311 -0.0002716 -0.0004701 -0.0005463 -0.0006001 0.0000592 -0.0004119 0.0015916 -0.0007141 0.0011632 -0.0002637 0.0007756 -0.0005422 0.0005633 -0.0002399 -0.0000276 -0.0000710 0.0001258 -0.0006929 0.0001011
-0.0007124 -0.0001349 -0.0004593 -0.0005109 -0.0006074 0.0002207 -0.0004023 0.0018171 -0.0006891 0.0013180 -0.0002895 0.0008435 -0.0005200 0.0006550 -0.0002366 -0.0000571 -0.0000671 0.0000948 -0.0007041 0.0000522
-0.0006988 -0.0002277 -0.0004762 -0.0006518 -0.0006162 0.0001436 -0.0004537 0.0015829 -0.0006653 0.0012002 -0.0003134 0.0006572 -0.0005000 0.0004772 -0.0002364 -0.0001812 -0.0000805 -0.0000324 -0.0007140 -0.0001958
-0.0006880 -0.0004346 -0.0004926 -0.0008414 -0.0006169 -0.0000743 -0.0004940 0.0012124 -0.0006552 0.0010369 -0.0003173 0.0004348 -0.0004950 0.0002799 -0.0002493 -0.0002192 -0.0000825 -0.0000618 -0.0006681 -0.0002019
-0.0006389 -0.0004165 -0.0004948 -0.0008671 -0.0006095 -0.0000662 -0.0004825 0.0012505 -0.0006337 0.0011440 -0.0003205 0.0004400 -0.0004511 0.0003409 -0.0002424 -0.0001652 -0.0000608 -0.0000137 -0.0006293 -0.0000107
-0.0006162 -0.0002632 -0.0005130 -0.0008474 -0.0006075 0.0000835 -0.0004693 0.0014367 -0.0006034 0.0013527 -0.0003295 0.0005632 -0.0004120 0.0005538 -0.0002289 -0.0000933 -0.0000564 0.0000924 -0.0005978 0.0002112
-0.0005939 -0.0001471 -0.0005241 -0.0008690 -0.0006117 0.0001802 -0.0004858 0.0014586 -0.0005938 0.0014398 -0.0003362 0.0005143 -0.0004034 0.0005401 -0.0002221 -0.0001590 -0.0000718 0.0000673 -0.0006456 0.0000615
-0.0005762 -0.0002345 -0.0005302 -0.0009561 -0.0006102 0.0000670 -0.0005056 0.0012335 -0.0005672 0.0013157 -0.0003317 0.0003042 -0.0003886 0.0003224 -0.0001989 -0.0002958 -0.0000679 -0.0000438 -0.0006585 -0.0001736
-0.0005627 -0.0003396 -0.0005255 -0.0010148 -0.0006030 -0.0000344 -0.0004949 0.0011506 -0.0005548 0.0012594 -0.0003187 0.0002525 -0.0003703 0.0003039 -0.0001995 -0.0002875 -0.0000379 -0.0000447 -0.0005953 -0.0000486
-0.0005402 -0.0002952 -0.0005198 -0.0009974 -0.0006021 0.0000402 -0.0004870 0.0012643 -0.0005479 0.0013536 -0.0003151 0.0003358 -0.0003415 0.0004395 -0.0002194 -0.0002069 -0.0000394 0.0000302 -0.0005610 0.0001968
-0.0005329 -0.0002004 -0.0005317 -0.0009542 -0.0006173 0.0001792 -0.0005029 0.0014313 -0.0005384 0.0014902 -0.0003213 0.0004513 -0.0003100 0.0005613 -0.0002157 -0.0002030 -0.0000596 0.0000496 -0.0006064 0.0001632
-0.0005294 -0.0002693 -0.0005484 -0.0010402 -0.0006259 0.0001394 -0.0005430 0.0012841 -0.0005404 0.0014428 -0.0003303 0.0003044 -0.0002994 0.0004915 -0.0002274 -0.0002716 -0.0000509 -0.0000431 -0.0006596 -0.0000400
-0.0005224 -0.0004462 -0.0005508 -0.0011949 -0.0006204 -0.0000069 -0.0005657 0.0010042 -0.0005251 0.0013474 -0.0003360 0.0000619 -0.0002686 0.0004124 -0.0002197 -0.0002978 -0.0000159 -0.0000830 -0.0006155 0.0000260
-0.0004978 -0.0004532 -0.0005479 -0.0012308 -0.0006095 0.0000219 -0.0005499 0.0010416 -0.0004930 0.0014609 -0.0003284 0.0000725 -0.0002327 0.0005325 -0.0001885 -0.0002548 -0.0000068 0.0000039 -0.0005736 0.0002145
-0.0004740 -0.0003658 -0.0005464 -0.0011786 -0.0005982 0.0001584 -0.0005281 0.0012230 -0.0004642 0.0015812 -0.0003291 0.0001910 -0.0002189 0.0006954 -0.0001866 -0.0001966 -0.0000227 0.0001155 -0.0005704 0.0003269
-0.0004527 -0.0003588 -0.0005557 -0.0012039 -0.0005954 0.0001940 -0.0005481 0.0011711 -0.0004640 0.0015347 -0.0003359 0.0001255 -0.0002237 0.0005941 -0.0001835 -0.0002750 -0.0000396 0.0000447 -0.0006122 0.0001443
-0.0004463 -0.0005240 -0.0005605 -0.0013162 -0.0005977 0.0000244 -0.0005527 0.0009400 -0.0004545 0.0013528 -0.0003178 -0.0000092 -0.0002524 0.0003527 -0.0001017 -0.0002397 -0.0000002 0.0000190 -0.0008053 -0.0003762
-0.0005405 -0.0006815 -0.0004609 -0.0011084 -0.0005543 -0.0000262 -0.0003302 0.0013864 -0.0003998 0.0013581 -0.0002707 0.0001062 -0.0002811 0.0002790 -0.0000299 -0.0000738 0.0000364 0.0000548 -0.0008625 -0.0005193
-0.0006067 -0.0006076 -0.0003870 -0.0008334 -0.0005238 0.0000869 -0.0002341 0.0016803 -0.0004026 0.0013624 -0.0002244 0.0003064 -0.0002326 0.0004359 -0.0000582 -0.0000455 0.0000059 0.0000526 -0.0007145 -0.0001216
-0.0006290 -0.0005088 -0.0003951 -0.0007106 -0.0005699 0.0001550 -0.0003009 0.0017237 -0.0004527 0.0013615 -0.0001804 0.0005135 -0.0001951 0.0006367 -0.0000234 0.0000057 0.0000422 0.0000969 -0.0007829 -0.0003213
-0.0007046 -0.0006446 -0.0003267 -0.0005909 -0.0005653 0.0000815 -0.0002255 0.0018583 -0.0004551 0.0013002 -0.0001542 0.0004932 -0.0002279 0.0004662 -0.0000061 -0.0000097 0.0000850 0.0000128 -0.0008332 -0.0007011
-0.0007282 -0.0008167 -0.0002875 -0.0006313 -0.0005199 -0.0000621 -0.0001892 0.0016565 -0.0004496 0.0011081 -0.0001480 0.0003722 -0.0002281 0.0002852 -0.0000143 -0.0001489 0.0000721 -0.0000327 -0.0007145 -0.0005107
-0.0006942 -0.0008489 -0.0003036 -0.0006753 -0.0005052 -0.0000556 -0.0001831 0.0016504 -0.0004248 0.0010858 -0.0001358 0.0004663 -0.0002188 0.0003928 -0.0000045 -0.0001687 0.0000661 0.0000508 -0.0006659 -0.0002282
-0.0006551 -0.0007505 -0.0003020 -0.0006606 -0.0005036 0.0000661 -0.0001698 0.0018293 -0.0003947 0.0012770 -0.0001546 0.0005770 -0.0002070 0.0006027 -0.0000258 -0.0000687 0.0000592 0.0001348 -0.0006508 -0.0000522
-0.0006303 -0.0006338 -0.0003421 -0.0007135 -0.0005074 0.0001150 -0.0002061 0.0017530 -0.0004013 0.0013322 -0.0001995 0.0004195 -0.0002439 0.0004576 -0.0000443 -0.0001680 0.0000279 -0.0000058 -0.0006584 -0.0001776
-0.0005998 -0.0007824 -0.0004078 -0.0009902 -0.0005269 -0.0001051 -0.0003302 0.0011828 -0.0004447 0.0010448 -0.0002785 -0.0000705 -0.0002781 0.0000846 -0.0001067 -0.0003932 -0.0000038 -0.0002637 -0.0006339 -0.0003457
-0.0005627 -0.0008993 -0.0004416 -0.0012203 -0.0005416 -0.0003359 -0.0004364 0.0006960 -0.0004666 0.0008117 -0.0003512 -0.0004320 -0.0002763 -0.0000570 -0.0001326 -0.0005242 -0.0000156 -0.0003647 -0.0005791 -0.0003746
-0.0005075 -0.0008465 -0.0004618 -0.0013056 -0.0005241 -0.0003583 -0.0004647 0.0005671 -0.0004467 0.0008321 -0.0003719 -0.0005164 -0.0002620 -0.0000198 -0.0001396 -0.0005515 -0.0000243 -0.0003564 -0.0005342 -0.0002248
-0.0004195 -0.0007433 -0.0004855 -0.0013330 -0.0004972 -0.0002599 -0.0004634 0.0006323 -0.0004292 0.0009804 -0.0003574 -0.0004587 -0.0002071 0.0001463 -0.0001446 -0.0005714 -0.0000160 -0.0003384 -0.0004906 -0.0001661
-0.0003646 -0.0006840 -0.0004762 -0.0013151 -0.0004590 -0.0002488 -0.0004416 0.0005775 -0.0004007 0.0009333 -0.0003076 -0.0004282 -0.0001500 0.0001645 -0.0001232 -0.0006475 0.0000118 -0.0004052 -0.0004129 -0.0002346
-0.0003422 -0.0007361 -0.0004551 -0.0013707 -0.0004226 -0.0003278 -0.0004572 0.0002914 -0.0004120 0.0007424 -0.0002597 -0.0004489 -0.0001173 0.0000773 -0.0001379 -0.0007071 -0.0000024 -0.0004631 -0.0002666 0.0000043
-0.0003145 -0.0006265 -0.0004664 -0.0013565 -0.0004204 -0.0003267 -0.0005540 0.0000095 -0.0004638 0.0005803 -0.0002781 -0.0005021 -0.0000921 0.0001297 -0.0001398 -0.0007430 -0.0000051 -0.0003908 -0.0002365 0.0000452
-0.0002988 -0.0004884 -0.0004603 -0.0012766 -0.0004183 -0.0002918 -0.0005377 0.0001316 -0.0004454 0.0006863 -0.0003129 -0.0005381 -0.0000799 0.0002646 -0.0001310 -0.0007210 0.0000247 -0.0002746 -0.0002377 0.0000442
-0.0002919 -0.0003881 -0.0004247 -0.0012765 -0.0003728 -0.0001661 -0.0004180 0.0004687 -0.0003642 0.0009033 -0.0002696 -0.0004670 -0.0000283 0.0003524 -0.0001240 -0.0007627 0.0000261 -0.0003640 -0.0001873 0.0000114
-0.0003091 -0.0005510 -0.0004225 -0.0014062 -0.0003132 -0.0001709 -0.0003657 0.0004011 -0.0002961 0.0008726 -0.0001413 -0.0003453 0.0000673 0.0003660 -0.0000704 -0.0008186 0.0000431 -0.0004608 -0.0001744 -0.0001988
-0.0002700 -0.0007459 -0.0004232 -0.0014458 -0.0002619 -0.0002620 -0.0003041 0.0003156 -0.0002498 0.0008361 -0.0000674 -0.0003154 0.0001318 0.0003444 -0.0000563 -0.0007494 0.0000749 -0.0004468 -0.0001464 -0.0001697
-0.0002219 -0.0006947 -0.0004266 -0.0014507 -0.0002402 -0.0002156 -0.0002570 0.0004285 -0.0002078 0.0009631 -0.0000857 -0.0003633 0.0001707 0.0004317 -0.0000411 -0.0006680 0.0000964 -0.0004105 -0.0000938 -0.0000701
-0.0002352 -0.0006805 -0.0004395 -0.0014898 -0.0002484 -0.0001006 -0.0002401 0.0006390 -0.0001863 0.0011765 -0.0000967 -0.0002668 0.0001890 0.0006274 -0.0000186 -0.0006080 0.0001073 -0.0003634 -0.0000742 -0.0001397
-0.0002689 -0.0007270 -0.0004589 -0.0015788 -0.0002531 -0.0001018 -0.0002517 0.0005787 -0.0001778 0.0011828 -0.0000895 -0.0003488 0.0002005 0.0005214 -0.0000207 -0.0006751 0.0000963 -0.0004444 -0.0000958 -0.0004080
-0.0002690 -0.0009063 -0.0004779 -0.0017106 -0.0002337 -0.0002335 -0.0002604 0.0003052 -0.0001531 0.0009975 -0.0000769 -0.0005832 0.0002341 0.0003014 0.0000059 -0.0008133 0.0000800 -0.0005395 -0.0000670 -0.0004660
-0.0002331 -0.0009680 -0.0004635 -0.0017883 -0.0002170 -0.0002487 -0.0002493 0.0002636 -0.0001205 0.0009718 -0.0000380 -0.0005220 0.0002662 0.0002895 -0.0000100 -0.0007867 0.0000979 -0.0005202 -0.0000487 -0.0002981
-0.0002152 -0.0008385 -0.0004585 -0.0017496 -0.0002134 -0.0001328 -0.0002528 0.0003867 -0.0001303 0.0011108 -0.0000391 -0.0004037 0.0002699 0.0003887 -0.0000548 -0.0006716 0.0000952 -0.0004353 -0.0000289 -0.0000800
-0.0001992 -0.0006877 -0.0004824 -0.0016216 -0.0002193 0.0000423 -0.0002703 0.0005601 -0.0001569 0.0012328 -0.0000590 -0.0004042 0.0002872 0.0004841 -0.0000575 -0.0006742 0.0000540 -0.0004318 -0.0000116 -0.0001859
-0.0002170 -0.0007091 -0.0004768 -0.0016529 -0.0002281 -0.0000118 -0.0002888 0.0004376 -0.0001461 0.0011693 -0.0000342 -0.0004990 0.0002999 0.0003611 -0.0000310 -0.0007880 0.0000612 -0.0005163 -0.0000557 -0.0003992
-0.0002136 -0.0008123 -0.0004641 -0.0017060 -0.0002298 -0.0001800 -0.0002896 0.0002124 -0.0001367 0.0010304 -0.0000347 -0.0006333 0.0003020 0.0002130 -0.0000214 -0.0008152 0.0000783 -0.0005122 -0.0000305 -0.0002775
-0.0001890 -0.0007256 -0.0004710 -0.0016437 -0.0002425 -0.0001538 -0.0002890 0.0002692 -0.0001452 0.0010291 -0.0000484 -0.0006136 0.0002917 0.0002494 -0.0000218 -0.0007314 0.0000745 -0.0004176 0.0000412 -0.0000683
-0.0001883 -0.0005296 -0.0004600 -0.0015611 -0.0002610 -0.0000366 -0.0002879 0.0004710 -0.0001685 0.0011770 -0.0000581 -0.0004585 0.0002658 0.0004339 -0.0000260 -0.0006176 0.0000534 -0.0003256 0.0000570 -0.0000049
-0.0002265 -0.0004279 -0.0004494 -0.0015446 -0.0002666 -0.0000128 -0.0002983 0.0004538 -0.0001563 0.0011583 -0.0000313 -0.0004497 0.0002811 0.0004404 -0.0000246 -0.0006314 0.0000436 -0.0003695 0.0000091 -0.0001564
-0.0002524 -0.0004755 -0.0004499 -0.0015755 -0.0002545 -0.0001130 -0.0002955 0.0002825 -0.0001290 0.0010319 0.0000172 -0.0005646 0.0003285 0.0003518 -0.0000329 -0.0006606 0.0000599 -0.0004229 0.0000144 -0.0001759
-0.0002129 -0.0004697 -0.0004644 -0.0015719 -0.0002520 -0.0000868 -0.0002639 0.0003746 -0.0001068 0.0011609 0.0000305 -0.0005267 0.0003555 0.0004580 -0.0000341 -0.0005837 0.0000610 -0.0003577 0.0000339 0.0000200
-0.0002221 -0.0004021 -0.0004830 -0.0015284 -0.0002755 0.0000701 -0.0002682 0.0005871 -0.0001303 0.0013100 -0.0000299 -0.0004680 0.0002999 0.0005809 -0.0000146 -0.0005392 0.0000544 -0.0002414 -0.0000083 0.0002873
-0.0002856 -0.0002817 -0.0005050 -0.0014316 -0.0003253 0.0002212 -0.0003088 0.0008004 -0.0001904 0.0014059 -0.0001123 -0.0004705 0.0002149 0.0006017 -0.0000356 -0.0005315 0.0000275 -0.0001934 -0.0000647 0.0001591
-0.0003165 -0.0003073 -0.0005237 -0.0014696 -0.0003623 0.0001676 -0.0003540 0.0006658 -0.0002109 0.0013752 -0.0001517 -0.0006301 0.0001875 0.0005171 -0.0000592 -0.0005499 0.0000091 -0.0002494 -0.0000960 -0.0000783
-0.0003261 -0.0004073 -0.0005307 -0.0015496 -0.0003762 0.0000356 -0.0003819 0.0004317 -0.0002128 0.0012863 -0.0001664 -0.0007656 0.0001919 0.0004700 -0.0000646 -0.0005276 0.0000150 -0.0002211 -0.0001046 0.0000587
-0.0003363 -0.0003291 -0.0005479 -0.0014610 -0.0003945 0.0000818 -0.0003837 0.0005515 -0.0002148 0.0013492 -0.0001857 -0.0007053 0.0001806 0.0005797 -0.0000635 -0.0004210 0.0000025 -0.0001100 -0.0001045 0.0002907
-0.0003609 -0.0001677 -0.0005516 -0.0013595 -0.0004189 0.0002268 -0.0003876 0.0007987 -0.0002304 0.0015131 -0.0002206 -0.0005679 0.0001449 0.0007765 -0.0000578 -0.0003397 -0.0000081 -0.0000493 -0.0001439 0.0003028
-0.0004006 -0.0001143 -0.0005376 -0.0013852 -0.0004343 0.0002462 -0.0004175 0.0007513 -0.0002445 0.0014813 -0.0002506 -0.0006747 0.0001141 0.0007030 -0.0000625 -0.0003292 -0.0000296 -0.0000952 -0.0001602 0.0002437
-0.0004075 -0.0001506 -0.0005152 -0.0014485 -0.0004341 0.0001535 -0.0004855 0.0003995 -0.0002665 0.0012549 -0.0002776 -0.0009442 0.0000822 0.0005357 -0.0000456 -0.0002916 -0.0000185 -0.0000601 -0.0001024 0.0004082
-0.0003930 -0.0000708 -0.0004811 -0.0013910 -0.0004304 0.0001887 -0.0005070 0.0003909 -0.0002906 0.0012149 -0.0003000 -0.0009382 0.0000484 0.0005895 -0.0000363 -0.0002197 -0.0000065 0.0000645 -0.0000515 0.0006819
-0.0004113 0.0000839 -0.0004778 -0.0012476 -0.0004317 0.0003417 -0.0004913 0.0006634 -0.0003294 0.0013250 -0.0002970 -0.0006977 0.0000054 0.0007297 -0.0000500 -0.0001377 -0.0000265 0.0001717 -0.0000364 0.0009812
-0.0004501 0.0001940 -0.0004841 -0.0011709 -0.0004416 0.0004581 -0.0005181 0.0007607 -0.0003614 0.0013385 -0.0002890 -0.0006101 -0.0000353 0.0006817 -0.0000556 -0.0002192 -0.0000270 0.0001118 -0.0000826 0.0008257
-0.0004713 0.0000310 -0.0005001 -0.0012457 -0.0004570 0.0003319 -0.0005580 0.0005645 -0.0003918 0.0012071 -0.0002816 -0.0007238 -0.0000729 0.0004492 -0.0000687 -0.0003523 -0.0000212 -0.0000079 -0.0000998 0.0005757
-0.0004685 -0.0001372 -0.0005055 -0.0012886 -0.0004606 0.0002009 -0.0005648 0.0004749 -0.0004239 0.0011134 -0.0002665 -0.0006886 -0.0000993 0.0003607 -0.0000988 -0.0003106 -0.0000374 0.0000257 -0.0000896 0.0007785
-0.0004591 -0.0000753 -0.0004902 -0.0012081 -0.0004576 0.0002658 -0.0005636 0.0006153 -0.0004580 0.0011463 -0.0002603 -0.0005157 -0.0001286 0.0004369 -0.0000968 -0.0002226 -0.0000473 0.0001021 -0.0000636 0.0010510
-0.0004579 0.0000956 -0.0004878 -0.0011206 -0.0004587 0.0004332 -0.0005761 0.0008013 -0.0005004 0.0012234 -0.0002566 -0.0003948 -0.0001628 0.0004846 -0.0000833 -0.0001628 -0.0000395 0.0000800 -0.0000760 0.0009557
-0.0004676 0.0001013 -0.0004543 -0.0011234 -0.0004408 0.0004126 -0.0005918 0.0006872 -0.0005152 0.0010618 -0.0002360 -0.0004386 -0.0001823 0.0002946 -0.0000776 -0.0002164 -0.0000345 -0.0000241 -0.0001150 0.0006660
-0.0004762 -0.0000996 -0.0004145 -0.0011514 -0.0004133 0.0002131 -0.0005828 0.0004554 -0.0005049 0.0009060 -0.0002076 -0.0005302 -0.0001470 0.0001681 -0.0000660 -0.0003063 0.0000050 -0.0000646 -0.0000879 0.0005514
-0.0004755 -0.0001633 -0.0004030 -0.0010780 -0.0003887 0.0002029 -0.0005200 0.0006362 -0.0004762 0.0010523 -0.0001540 -0.0003707 -0.0000777 0.0003403 -0.0000710 -0.0002578 0.0000347 -0.0000017 -0.0000789 0.0006663
-0.0004593 -0.0000177 -0.0004003 -0.0009111 -0.0003731 0.0003649 -0.0004597 0.0010057 -0.0004455 0.0012463 -0.0001181 -0.0001666 -0.0000375 0.0004897 -0.0000461 -0.0002336 0.0000460 0.0000022 -0.0001065 0.0005807
-0.0004809 -0.0000322 -0.0004176 -0.0009592 -0.0003728 0.0002989 -0.0004500 0.0009420 -0.0004364 0.0012249 -0.0001224 -0.0003151 -0.0000280 0.0003294 -0.0000206 -0.0003187 0.0000561 -0.0000900 -0.0001171 0.0002085
-0.0004909 -0.0002355 -0.0004220 -0.0011288 -0.0003656 0.0000803 -0.0004322 0.0007039 -0.0004240 0.0011414 -0.0001396 -0.0005704 -0.0000156 0.0001714 -0.0000126 -0.0003501 0.0000679 -0.0001277 -0.0001134 0.0000446
-0.0004799 -0.0002864 -0.0004131 -0.0011049 -0.0003453 0.0000403 -0.0003938 0.0007410 -0.0003970 0.0011953 -0.0001571 -0.0006783 0.0000348 0.0002392 -0.0000079 -0.0002821 0.0000929 -0.0000827 -0.0000755 0.0001580
-0.0004671 -0.0002537 -0.0004414 -0.0010937 -0.0003279 0.0000872 -0.0003566 0.0008901 -0.0003681 0.0013334 -0.0001486 -0.0006418 0.0001009 0.0003215 0.0000056 -0.0002630 0.0001103 -0.0000373 -0.0000591 0.0000937
-0.0004548 -0.0002969 -0.0004262 -0.0011600 -0.0002862 0.0000249 -0.0003148 0.0008282 -0.0003159 0.0012677 -0.0001203 -0.0007636 0.0001734 0.0001904 0.0000440 -0.0003802 0.0001110 -0.0000965 -0.0000424 -0.0001445
-0.0004402 -0.0004433 -0.0003976 -0.0012285 -0.0002272 -0.0001252 -0.0002645 0.0006142 -0.0002631 0.0011504 -0.0000582 -0.0009417 0.0002612 0.0000780 0.0000582 -0.0003703 0.0001479 -0.0001353 0.0000378 -0.0001913
-0.0003872 -0.0004599 -0.0003814 -0.0012195 -0.0001769 -0.0001220 -0.0001842 0.0007062 -0.0002046 0.0012610 0.0000082 -0.0008805 0.0003546 0.0001624 0.0000929 -0.0002686 0.0001934 -0.0000639 0.0000854 -0.0001099
-0.0003494 -0.0003541 -0.0003515 -0.0011452 -0.0001349 -0.0000048 -0.0001078 0.0009720 -0.0001697 0.0014213 0.0000281 -0.0007644 0.0004041 0.0002560 0.0001157 -0.0002357 0.0002068 -0.0000410 0.0000399 -0.0001994
-0.0003310 -0.0003322 -0.0003633 -0.0012052 -0.0001160 -0.0000508 -0.0001055 0.0008781 -0.0001610 0.0014216 0.0000347 -0.0009241 0.0004486 0.0001570 0.0001172 -0.0003137 0.0002205 -0.0001763 0.0000103 -0.0005529
-0.0002961 -0.0003988 -0.0003782 -0.0013322 -0.0000878 -0.0002259 -0.0001025 0.0005894 -0.0001108 0.0013227 0.0000623 -0.0012090 0.0005141 -0.0000355 0.0001185 -0.0004277 0.0002249 -0.0003151 0.0000663 -0.0007189
-0.0002671 -0.0004325 -0.0003707 -0.0013786 -0.0000465 -0.0002359 -0.0000502 0.0006072 -0.0000624 0.0013508 0.0001355 -0.0011183 0.0005817 -0.0000338 0.0001039 -0.0004435 0.0002219 -0.0003491 0.0001258 -0.0006317
-0.0002734 -0.0003890 -0.0003349 -0.0012805 -0.0000199 -0.0001430 -0.0000151 0.0007690 -0.0000484 0.0014229 0.0001776 -0.0009226 0.0006267 0.0000699 0.0001100 -0.0003811 0.0002457 -0.0003226 0.0001398 -0.0004826
-0.0002768 -0.0003229 -0.0003172 -0.0012126 -0.0000091 -0.0000766 -0.0000076 0.0008257 -0.0000364 0.0014375 0.0002104 -0.0008587 0.0006294 -0.0000465 0.0001049 -0.0004127 0.0002447 -0.0003718 0.0001108 -0.0006472
-0.0002862 -0.0003983 -0.0003092 -0.0012599 0.0000033 -0.0001255 0.0000164 0.0007397 -0.0000188 0.0013205 0.0002710 -0.0008480 0.0006127 -0.0002735 0.0000901 -0.0005242 0.0002264 -0.0004425 0.0000972 -0.0007830
-0.0002905 -0.0004936 -0.0002856 -0.0012082 0.0000101 -0.0001555 0.0000421 0.0007483 -0.0000311 0.0012161 0.0002818 -0.0007754 0.0005699 -0.0003867 0.0000882 -0.0005568 0.0002349 -0.0004191 0.0001421 -0.0006313
-0.0002971 -0.0004801 -0.0002944 -0.0011324 -0.0000142 -0.0000960 0.0000306 0.0008567 -0.0000657 0.0012325 0.0002562 -0.0006925 0.0005306 -0.0003905 0.0000841 -0.0005054 0.0002274 -0.0003434 0.0001455 -0.0004666
-0.0003307 -0.0004184 -0.0002930 -0.0010765 -0.0000299 -0.0000363 0.0000060 0.0008620 -0.0000826 0.0012209 0.0002484 -0.0007424 0.0005433 -0.0004011 0.0000718 -0.0005321 0.0002052 -0.0003731 0.0001194 -0.0005347
-0.0003379 -0.0004590 -0.0003084 -0.0011716 -0.0000318 -0.0000952 -0.0000232 0.0006526 -0.0000609 0.0011252 0.0002701 -0.0008539 0.0005814 -0.0004818 0.0000502 -0.0005871 0.0001985 -0.0004426 0.0001559 -0.0006488
-0.0002783 -0.0005196 -0.0003386 -0.0012775 -0.0000438 -0.0001584 -0.0000422 0.0005304 -0.0000441 0.0011205 0.0002562 -0.0009318 0.0005834 -0.0004301 0.0000475 -0.0005383 0.0002099 -0.0003924 0.0002101 -0.0004813
-0.0002315 -0.0003885 -0.0003545 -0.0012093 -0.0000629 -0.0000663 -0.0000589 0.0006346 -0.0000619 0.0012140 0.0002256 -0.0008707 0.0005644 -0.0002972 0.0000503 -0.0004615 0.0002222 -0.0003015 0.0002173 -0.0002588
-0.0002299 -0.0001037 -0.0003254 -0.0010483 -0.0000807 0.0000955 -0.0000875 0.0007761 -0.0000794 0.0013111 0.0001780 -0.0009041 0.0005711 -0.0001961 0.0000393 -0.0004671 0.0002005 -0.0003274 0.0002033 -0.0002783
-0.0002438 -0.0001436 -0.0003092 -0.0011076 -0.0000845 0.0000444 -0.0000801 0.0007157 -0.0000613 0.0012841 0.0001839 -0.0009576 0.0005449 -0.0003221 0.0000625 -0.0005406 0.0002017 -0.0003874 0.0000910 -0.0006860
-0.0002439 -0.0003505 -0.0003346 -0.0011993 -0.0000749 -0.0000493 -0.0000550 0.0006099 -0.0000369 0.0011980 0.0001973 -0.0009591 0.0005399 -0.0003743 0.0000294 -0.0004935 0.0002056 -0.0003889 0.0000936 -0.0006861
-0.0002686 -0.0003287 -0.0003561 -0.0011708 -0.0000972 0.0000108 -0.0000971 0.0006186 -0.0000655 0.0011821 0.0001477 -0.0009573 0.0005340 -0.0002738 -0.0000042 -0.0004137 0.0001634 -0.0002953 0.0001867 -0.0003250
-0.0003111 -0.0001992 -0.0003669 -0.0011347 -0.0001433 0.0001077 -0.0001460 0.0007464 -0.0001070 0.0012206 0.0001207 -0.0008699 0.0004790 -0.0002651 -0.0000043 -0.0004114 0.0001397 -0.0002718 0.0001115 -0.0004540
-0.0003346 -0.0002111 -0.0003514 -0.0011303 -0.0001616 0.0000488 -0.0001759 0.0006215 -0.0001216 0.0010809 0.0001116 -0.0009682 0.0004417 -0.0004514 -0.0000084 -0.0005001 0.0001302 -0.0003888 0.0000592 -0.0007246
-0.0003406 -0.0004278 -0.0003627 -0.0012060 -0.0001613 -0.0001193 -0.0001852 0.0003777 -0.0001056 0.0009157 0.0001164 -0.0010529 0.0004210 -0.0005794 0.0000052 -0.0005121 0.0001164 -0.0003591 0.0001053 -0.0006767
-0.0003078 -0.0004170 -0.0003737 -0.0011609 -0.0001604 -0.0000634 -0.0001678 0.0004905 -0.0001024 0.0010078 0.0001245 -0.0009327 0.0004315 -0.0004408 -0.0000012 -0.0004084 0.0001165 -0.0002511 0.0001280 -0.0004529
-0.0002946 -0.0002770 -0.0003857 -0.0010622 -0.0001727 0.0000768 -0.0001622 0.0007043 -0.0000995 0.0010850 0.0001026 -0.0008716 0.0004062 -0.0004170 -0.0000116 -0.0004043 0.0001103 -0.0002543 0.0000563 -0.0005439
-0.0002972 -0.0003413 -0.0003910 -0.0010910 -0.0001833 0.0000100 -0.0001856 0.0005514 -0.0001073 0.0009426 0.0000769 -0.0010310 0.0003803 -0.0005948 -0.0000198 -0.0005214 0.0000873 -0.0003425 0.0000488 -0.0007707
-0.0002934 -0.0005224 -0.0003852 -0.0012032 -0.0001866 -0.0001666 -0.0002154 0.0002373 -0.0001305 0.0007725 0.0000806 -0.0011413 0.0003927 -0.0006744 -0.0000245 -0.0005324 0.0000956 -0.0003233 0.0000958 -0.0006812
-0.0002903 -0.0005304 -0.0003913 -0.0011737 -0.0001958 -0.0001571 -0.0002179 0.0002940 -0.0001434 0.0007781 0.0000612 -0.0010816 0.0003774 -0.0005743 -0.0000286 -0.0004493 0.0001011 -0.0002168 0.0001107 -0.0004443
-0.0002964 -0.0003835 -0.0003988 -0.0010684 -0.0002173 -0.0000226 -0.0002240 0.0005184 -0.0001506 0.0008838 0.0000248 -0.0010108 0.0003685 -0.0004664 -0.0000179 -0.0004435 0.0000834 -0.0001850 0.0000723 -0.0005199
-0.0003061 -0.0003990 -0.0004014 -0.0010895 -0.0002291 -0.0000440 -0.0002578 0.0004055 -0.0001560 0.0008312 -0.0000101 -0.0011566 0.0003651 -0.0005414 -0.0000094 -0.0004779 0.0000773 -0.0002376 0.0000360 -0.0007815
-0.0003052 -0.0005642 -0.0004015 -0.0012015 -0.0002280 -0.0001885 -0.0002824 0.0001281 -0.0001583 0.0006694 -0.0000343 -0.0013605 0.0003607 -0.0006815 -0.0000195 -0.0004619 0.0000879 -0.0002364 0.0000554 -0.0007569
-0.0002716 -0.0005877 -0.0004023 -0.0011788 -0.0002262 -0.0001751 -0.0002725 0.0001624 -0.0001425 0.0006888 -0.0000308 -0.0013087 0.0003855 -0.0005760 -0.0000287 -0.0003785 0.0000821 -0.0001410 0.0000979 -0.0005685
-0.0002497 -0.0004829 -0.0004216 -0.0010600 -0.0002305 -0.0000535 -0.0002653 0.0003000 -0.0001388 0.0007698 -0.0000399 -0.0012902 0.0003989 -0.0005105 -0.0000171 -0.0003916 0.0000627 -0.0001435 0.0000817 -0.0006776
-0.0002733 -0.0005294 -0.0004359 -0.0010947 -0.0002375 -0.0001253 -0.0002804 0.0001477 -0.0001269 0.0006698 -0.0000440 -0.0014294 0.0003964 -0.0006751 0.0000068 -0.0005041 0.0000641 -0.0002393 0.0000330 -0.0009112
-0.0002702 -0.0007004 -0.0004241 -0.0012041 -0.0002269 -0.0002847 -0.0002710 -0.0000516 -0.0000994 0.0005760 -0.0000301 -0.0015031 0.0004088 -0.0007374 0.0000073 -0.0004712 0.0000820 -0.0002402 0.0000655 -0.0008513
-0.0002583 -0.0006923 -0.0004222 -0.0011928 -0.0002181 -0.0002519 -0.0002385 0.0000597 -0.0000776 0.0006491 -0.0000241 -0.0014296 0.0004225 -0.0005965 0.0000084 -0.0003500 0.0000892 -0.0001639 0.0001048 -0.0006917
-0.0002552 -0.0005875 -0.0004089 -0.0011724 -0.0002162 -0.0001483 -0.0002301 0.0001721 -0.0000838 0.0007205 -0.0000314 -0.0014193 0.0004278 -0.0005741 0.0000322 -0.0004014 0.0000803 -0.0001852 0.0000793 -0.0008234
-0.0002723 -0.0007013 -0.0003974 -0.0012398 -0.0002142 -0.0002388 -0.0002426 -0.0000198 -0.0000762 0.0005910 -0.0000346 -0.0015590 0.0004283 -0.0007600 0.0000228 -0.0004922 0.0000724 -0.0002663 0.0000569 -0.0009941
-0.0003048 -0.0008583 -0.0003970 -0.0012761 -0.0002044 -0.0004010 -0.0002289 -0.0001951 -0.0000591 0.0004122 -0.0000129 -0.0015742 0.0004258 -0.0009006 -0.0000001 -0.0004600 0.0000984 -0.0002452 0.0001094 -0.0008362
-0.0003079 -0.0007572 -0.0003713 -0.0011651 -0.0001804 -0.0003596 -0.0001888 -0.0000547 -0.0000744 0.0004180 0.0000125 -0.0013993 0.0004365 -0.0008486 0.0000004 -0.0003983 0.0001158 -0.0001364 0.0001773 -0.0005595
-0.0002993 -0.0005582 -0.0003484 -0.0010568 -0.0001612 -0.0002637 -0.0001718 0.0000230 -0.0000763 0.0004048 0.0000305 -0.0013228 0.0004449 -0.0008787 0.0000048 -0.0004369 0.0001085 -0.0001332 0.0001763 -0.0005847
-0.0002726 -0.0005482 -0.0003386 -0.0010474 -0.0001514 -0.0003252 -0.0001698 -0.0001106 -0.0000633 0.0002584 0.0000513 -0.0013662 0.0004365 -0.0010430 0.0000361 -0.0005379 0.0001123 -0.0001929 0.0001729 -0.0007245
-0.0002482 -0.0006177 -0.0003182 -0.0010291 -0.0001389 -0.0004213 -0.0001474 -0.0001738 -0.0000624 0.0001702 0.0000783 -0.0013212 0.0004302 -0.0010831 0.0000612 -0.0005488 0.0001235 -0.0001574 0.0002170 -0.0005770
-0.0002301 -0.0005161 -0.0003144 -0.0009423 -0.0001350 -0.0003392 -0.0001178 0.0000077 -0.0000564 0.0002903 0.0000913 -0.0011523 0.0004541 -0.0009305 0.0000703 -0.0004230 0.0000671 -0.0002062 0.0001768 -0.0004944
-0.0002173 -0.0003661 -0.0003012 -0.0008877 -0.0001283 -0.0002645 -0.0001168 0.0000429 -0.0000614 0.0002990 0.0000990 -0.0011188 0.0004416 -0.0009675 0.0000694 -0.0004112 -0.0000257 -0.0004324 0.0001327 -0.0006430
-0.0002221 -0.0003518 -0.0002860 -0.0009108 -0.0001199 -0.0003318 -0.0001190 -0.0000993 -0.0000746 0.0001870 0.0001221 -0.0011566 0.0004108 -0.0011789 0.0000543 -0.0004944 -0.0000311 -0.0005799 0.0001604 -0.0006928
-0.0002110 -0.0003752 -0.0002985 -0.0009038 -0.0001170 -0.0003641 -0.0001046 -0.0001122 -0.0000866 0.0001877 0.0001336 -0.0010972 0.0004181 -0.0011760 0.0000494 -0.0004766 -0.0000692 -0.0006552 0.0001390 -0.0006458
-0.0001835 -0.0003146 -0.0002997 -0.0008591 -0.0001142 -0.0002502 -0.0000844 0.0000774 -0.0000784 0.0002765 0.0001336 -0.0009923 0.0004502 -0.0010215 0.0000694 -0.0004722 -0.0001591 -0.0008276 0.0000755 -0.0008084
-0.0001926 -0.0003315 -0.0002678 -0.0008171 -0.0001050 -0.0002672 -0.0000856 0.0000138 -0.0000920 0.0001273 0.0001648 -0.0009952 0.0004601 -0.0011256 0.0001013 -0.0004619 -0.0001978 -0.0009921 0.0001036 -0.0008703
-0.0002608 -0.0004154 -0.0002233 -0.0007641 -0.0000863 -0.0004228 -0.0000738 -0.0001912 -0.0001472 -0.0002424 0.0002404 -0.0009485 0.0004291 -0.0014448 0.0001371 -0.0004719 -0.0001362 -0.0010158 0.0002216 -0.0006840
-0.0002885 -0.0003451 -0.0001938 -0.0006702 -0.0000529 -0.0004362 -0.0000307 -0.0001374 -0.0001873 -0.0004578 0.0003053 -0.0007511 0.0003963 -0.0015347 0.0001529 -0.0004942 0.0000139 -0.0007329 0.0003644 -0.0002881
-0.0002888 -0.0001874 -0.0001782 -0.0006457 -0.0000192 -0.0003379 -0.0000145 -0.0000595 -0.0001810 -0.0005137 0.0003205 -0.0007236 0.0004204 -0.0015494 0.0001353 -0.0005408 0.0001096 -0.0005657 0.0003932 -0.0001519
-0.0003060 -0.0003438 -0.0001898 -0.0008239 -0.0000046 -0.0004396 -0.0000134 -0.0002599 -0.0001399 -0.0005604 0.0003251 -0.0009036 0.0004863 -0.0016720 0.0001498 -0.0006489 0.0001436 -0.0006443 0.0003595 -0.0003086
-0.0002828 -0.0005597 -0.0001900 -0.0009572 0.0000202 -0.0006171 0.0000167 -0.0004772 -0.0001158 -0.0005578 0.0003431 -0.0010506 0.0005354 -0.0017402 0.0001852 -0.0006934 0.0001701 -0.0006473 0.0004381 -0.0003439
-0.0002420 -0.0005657 -0.0001835 -0.0009644 0.0000539 -0.0006229 0.0000657 -0.0004188 -0.0000815 -0.0004463 0.0003648 -0.0010195 0.0005995 -0.0016516 0.0002013 -0.0006241 0.0001945 -0.0005919 0.0004594 -0.0002288
-0.0002096 -0.0005185 -0.0001731 -0.0009755 0.0000781 -0.0005742 0.0000960 -0.0003793 -0.0000413 -0.0003971 0.0003755 -0.0010585 0.0006558 -0.0016757 0.0002099 -0.0006515 0.0002084 -0.0006483 0.0003984 -0.0003333
-0.0001997 -0.0006521 -0.0001638 -0.0010455 0.0001014 -0.0007084 0.0001111 -0.0005762 -0.0000146 -0.0004833 0.0003887 -0.0012548 0.0006941 -0.0018535 0.0002301 -0.0007596 0.0002229 -0.0007683 0.0004069 -0.0005626
-0.0001804 -0.0008510 -0.0001541 -0.0011095 0.0001322 -0.0008949 0.0001421 -0.0007699 0.0000186 -0.0005395 0.0004106 -0.0013756 0.0007484 -0.0019256 0.0002639 -0.0007880 0.0002508 -0.0007781 0.0004588 -0.0005273
-0.0001412 -0.0008493 -0.0001239 -0.0011116 0.0001588 -0.0008972 0.0001828 -0.0007202 0.0000544 -0.0004572 0.0004254 -0.0013442 0.0008058 -0.0018507 0.0002976 -0.0007520 0.0002601 -0.0007266 0.0004641 -0.0003599
-0.0001459 -0.0007438 -0.0001208 -0.0010888 0.0001740 -0.0008380 0.0001982 -0.0006809 0.0000700 -0.0003880 0.0004303 -0.0013907 0.0008346 -0.0018825 0.0003095 -0.0007708 0.0002548 -0.0007691 0.0004200 -0.0004823
-0.0001560 -0.0008343 -0.0001251 -0.0011833 0.0001861 -0.0009464 0.0002001 -0.0008611 0.0000851 -0.0004696 0.0004374 -0.0015725 0.0008681 -0.0020648 0.0003127 -0.0008459 0.0002541 -0.0008685 0.0003988 -0.0007048
-0.0001512 -0.0009871 -0.0001249 -0.0013446 0.0002099 -0.0010914 0.0002201 -0.0010243 0.0001083 -0.0005257 0.0004593 -0.0016539 0.0009031 -0.0021213 0.0003271 -0.0008354 0.0002240 -0.0009190 0.0004083 -0.0006581
-0.0001466 -0.0009715 -0.0001492 -0.0013702 0.0002308 -0.0010485 0.0002451 -0.0009480 0.0001312 -0.0004446 0.0004688 -0.0015935 0.0009264 -0.0020149 0.0003484 -0.0007739 0.0002163 -0.0009199 0.0004316 -0.0005245
-0.0001517 -0.0008912 -0.0001341 -0.0013088 0.0002334 -0.0009432 0.0002589 -0.0007755 0.0001324 -0.0003230 0.0004629 -0.0015001 0.0009536 -0.0019185 0.0003512 -0.0007454 0.0002477 -0.0008739 0.0003784 -0.0005016
-0.0001597 -0.0009142 -0.0001081 -0.0012994 0.0002304 -0.0009746 0.0002525 -0.0008605 0.0001380 -0.0003620 0.0004663 -0.0015867 0.0009592 -0.0020067 0.0003560 -0.0008178 0.0002673 -0.0009136 0.0003145 -0.0006501
-0.0001634 -0.0010573 -0.0000751 -0.0013716 0.0002387 -0.0011138 0.0002478 -0.0010800 0.0001595 -0.0004878 0.0004814 -0.0017183 0.0009569 -0.0021151 0.0003679 -0.0008683 0.0002839 -0.0009333 0.0003375 -0.0006450
-0.0001595 -0.0010869 -0.0000331 -0.0013890 0.0002528 -0.0011224 0.0002651 -0.0010580 0.0001612 -0.0004329 0.0004898 -0.0016700 0.0009743 -0.0020554 0.0003651 -0.0008160 0.0002853 -0.0008604 0.0003643 -0.0005038
-0.0001453 -0.0010256 -0.0000410 -0.0013062 0.0002561 -0.0010234 0.0002729 -0.0009165 0.0001458 -0.0003062 0.0004832 -0.0015475 0.0009743 -0.0018936 0.0003589 -0.0007506 0.0002925 -0.0008052 0.0003446 -0.0004574
-0.0001698 -0.0010017 -0.0000410 -0.0013007 0.0002566 -0.0010116 0.0002602 -0.0009630 0.0001361 -0.0003380 0.0004779 -0.0015967 0.0009621 -0.0019334 0.0003583 -0.0007801 0.0002820 -0.0008426 0.0002878 -0.0005966
-0.0001978 -0.0011042 -0.0000283 -0.0013933 0.0002637 -0.0011266 0.0002507 -0.0011861 0.0001496 -0.0004744 0.0004846 -0.0017471 0.0009661 -0.0020885 0.0003479 -0.0008338 0.0002841 -0.0009016 0.0002881 -0.0006570
-0.0001639 -0.0011685 -0.0000079 -0.0014188 0.0002724 -0.0011533 0.0002603 -0.0012205 0.0001656 -0.0004653 0.0004930 -0.0017267 0.0009632 -0.0020177 0.0003630 -0.0007985 0.0003164 -0.0008780 0.0003104 -0.0005050
-0.0001394 -0.0010826 -0.0000000 -0.0013482 0.0002759 -0.0010614 0.0002712 -0.0010930 0.0001731 -0.0003531 0.0004867 -0.0016128 0.0009650 -0.0018552 0.0003693 -0.0006920 0.0003143 -0.0007768 0.0002925 -0.0002838
-0.0001632 -0.0009441 0.0000034 -0.0013008 0.0002733 -0.0009550 0.0002637 -0.0010137 0.0001647 -0.0002862 0.0004770 -0.0015915 0.0009601 -0.0018321 0.0003850 -0.0007187 0.0003028 -0.0007873 0.0002199 -0.0004062
-0.0001799 -0.0010190 -0.0000043 -0.0013681 0.0002700 -0.0010394 0.0002510 -0.0011845 0.0001566 -0.0003664 0.0004775 -0.0017237 0.0009503 -0.0019800 0.0004045 -0.0008488 0.0003148 -0.0009257 0.0001804 -0.0006854
-0.0001788 -0.0012012 -0.0000110 -0.0014291 0.0002732 -0.0011728 0.0002613 -0.0013546 0.0001743 -0.0004341 0.0004813 -0.0017651 0.0009628 -0.0020136 0.0003856 -0.0008327 0.0003197 -0.0009425 0.0002087 -0.0006435
-0.0001756 -0.0011710 -0.0000023 -0.0013984 0.0002796 -0.0011248 0.0002771 -0.0012988 0.0001871 -0.0003582 0.0004767 -0.0016561 0.0009566 -0.0018716 0.0003849 -0.0007411 0.0002984 -0.0008482 0.0002024 -0.0004347
-0.0001968 -0.0010137 -0.0000090 -0.0013157 0.0002750 -0.0009999 0.0002707 -0.0011648 0.0001685 -0.0002540 0.0004581 -0.0014731 0.0009197 -0.0017083 0.0003638 -0.0006388 0.0002697 -0.0007458 0.0001689 -0.0003110
-0.0002084 -0.0009436 0.0000001 -0.0012830 0.0002658 -0.0009433 0.0002377 -0.0012010 0.0001285 -0.0003304 0.0004443 -0.0014322 0.0008750 -0.0018054 0.0003428 -0.0007203 0.0002576 -0.0008222 0.0001373 -0.0004887
-0.0002170 -0.0010756 0.0000282 -0.0012816 0.0002601 -0.0010336 0.0002145 -0.0014024 0.0000972 -0.0005396 0.0004472 -0.0015042 0.0008392 -0.0020015 0.0003376 -0.0008514 0.0002638 -0.0009368 0.0001096 -0.0005971
-0.0002288 -0.0011612 0.0000384 -0.0012416 0.0002535 -0.0010719 0.0002184 -0.0014358 0.0001002 -0.0005885 0.0004435 -0.0014344 0.0008290 -0.0019513 0.0003207 -0.0008138 0.0002610 -0.0008790 0.0001167 -0.0004955
-0.0002362 -0.0010821 0.0000419 -0.0012234 0.0002412 -0.0010003 0.0002194 -0.0013198 0.0001095 -0.0005044 0.0004222 -0.0012952 0.0008283 -0.0017843 0.0003067 -0.0007452 0.0002586 -0.0007831 0.0001123 -0.0003552
-0.0002494 -0.0009595 0.0000442 -0.0011657 0.0002242 -0.0008747 0.0002141 -0.0011340 0.0000991 -0.0003589 0.0004032 -0.0011213 0.0008055 -0.0015886 0.0003001 -0.0007246 0.0002667 -0.0007531 0.0000742 -0.0003909
-0.0002652 -0.0009771 0.0000313 -0.0011793 0.0002070 -0.0008680 0.0002021 -0.0011623 0.0000950 -0.0003731 0.0003892 -0.0011228 0.0007839 -0.0016145 0.0002888 -0.0007579 0.0002622 -0.0008007 0.0000315 -0.0005981
-0.0002686 -0.0011326 0.0000322 -0.0012832 0.0001912 -0.0009864 0.0001971 -0.0013428 0.0001042 -0.0005078 0.0003668 -0.0012323 0.0007688 -0.0017310 0.0002824 -0.0007696 0.0002635 -0.0008138 0.0000164 -0.0006134
-0.0002606 -0.0011477 0.0000205 -0.0012669 0.0001748 -0.0009789 0.0002047 -0.0013019 0.0000836 -0.0004474 0.0003390 -0.0011660 0.0007449 -0.0016303 0.0002617 -0.0006951 0.0002684 -0.0007539 0.0000380 -0.0004756
-0.0002669 -0.0010330 0.0000137 -0.0011941 0.0001518 -0.0008521 0.0002012 -0.0011190 0.0000700 -0.0003174 0.0003021 -0.0010080 0.0006994 -0.0014271 0.0002455 -0.0005863 0.0002446 -0.0006257 0.0000149 -0.0002571
-0.0003104 -0.0008748 0.0000028 -0.0011035 0.0001210 -0.0006860 0.0001826 -0.0009000 0.0000616 -0.0002178 0.0002621 -0.0008754 0.0006567 -0.0012806 0.0002430 -0.0005665 0.0002246 -0.0005934 -0.0000560 -0.0003229
-0.0003496 -0.0009226 -0.0000256 -0.0011283 0.0000943 -0.0007260 0.0001489 -0.0010024 0.0000308 -0.0002763 0.0002254 -0.0009545 0.0006282 -0.0013944 0.0002031 -0.0006039 0.0002105 -0.0006837 -0.0000692 -0.0006023
-0.0003550 -0.0010873 -0.0000316 -0.0012366 0.0000792 -0.0008661 0.0001270 -0.0012130 0.0000346 -0.0004233 0.0001931 -0.0010394 0.0005910 -0.0014858 0.0001785 -0.0006154 0.0002074 -0.0006923 -0.0000572 -0.0005627
-0.0003601 -0.0010435 -0.0000320 -0.0012154 0.0000649 -0.0008024 0.0001239 -0.0011236 0.0000293 -0.0003754 0.0001674 -0.0009130 0.0005515 -0.0013114 0.0001848 -0.0005582 0.0002087 -0.0005995 -0.0000629 -0.0003247
-0.0003814 -0.0008888 -0.0000457 -0.0011021 0.0000440 -0.0006325 0.0001073 -0.0009030 -0.0000074 -0.0001983 0.0001331 -0.0007120 0.0005102 -0.0010541 0.0001696 -0.0004340 0.0001931 -0.0004639 -0.0000587 -0.0000881
-0.0003974 -0.0007122 -0.0000500 -0.0009717 0.0000096 -0.0004253 0.0000802 -0.0006192 -0.0000311 -0.0000243 0.0000901 -0.0005107 0.0004645 -0.0008493 0.0001556 -0.0003802 0.0001706 -0.0004144 -0.0001272 -0.0001114
-0.0004082 -0.0006666 -0.0000530 -0.0009752 -0.0000232 -0.0004030 0.0000388 -0.0006510 -0.0000577 -0.0000618 0.0000481 -0.0005386 0.0004167 -0.0008859 0.0001375 -0.0004230 0.0001491 -0.0004693 -0.0002111 -0.0003029
-0.0004248 -0.0007752 -0.0000723 -0.0010442 -0.0000506 -0.0005185 -0.0000009 -0.0008392 -0.0000886 -0.0001949 0.0000180 -0.0006434 0.0003770 -0.0009564 0.0001078 -0.0004328 0.0001338 -0.0004886 -0.0002112 -0.0002879
-0.0004634 -0.0007816 -0.0000841 -0.0010528 -0.0000849 -0.0004968 -0.0000275 -0.0007739 -0.0001168 -0.0001777 -0.0000124 -0.0005648 0.0003328 -0.0008524 0.0000829 -0.0003916 0.0001002 -0.0004098 -0.0001830 -0.0001140
-0.0005163 -0.0006751 -0.0001037 -0.0010040 -0.0001240 -0.0003833 -0.0000656 -0.0006161 -0.0001582 -0.0000883 -0.0000553 -0.0004094 0.0002623 -0.0006780 0.0000614 -0.0003273 0.0000644 -0.0002816 -0.0002135 0.0001301
-0.0005424 -0.0005353 -0.0001281 -0.0009245 -0.0001645 -0.0002095 -0.0001077 -0.0003886 -0.0001946 0.0000862 -0.0001052 -0.0003046 0.0002194 -0.0005067 0.0000630 -0.0003175 0.0000537 -0.0002449 -0.0003114 0.0000538
-0.0005409 -0.0005799 -0.0001483 -0.0009795 -0.0001917 -0.0001945 -0.0001321 -0.0003468 -0.0001950 0.0001669 -0.0001390 -0.0003304 0.0001835 -0.0005198 0.0000705 -0.0003277 0.0000786 -0.0002373 -0.0004648 -0.0003055
-0.0005369 -0.0007135 -0.0001388 -0.0009648 -0.0002002 -0.0002767 -0.0001039 -0.0002897 -0.0001762 0.0001808 -0.0001608 -0.0003247 0.0001026 -0.0005568 0.0000489 -0.0002476 0.0000838 -0.0001642 -0.0005192 -0.0002585
-0.0005053 -0.0006074 -0.0001296 -0.0008589 -0.0002220 -0.0001835 -0.0001268 -0.0001412 -0.0001997 0.0003090 -0.0001930 -0.0001735 0.0000548 -0.0003146 0.0000245 -0.0001475 0.0000599 -0.0000688 -0.0004332 0.0002018
-0.0004687 -0.0003883 -0.0001427 -0.0007972 -0.0002792 -0.0000071 -0.0002023 0.0000386 -0.0002305 0.0005097 -0.0002314 0.0000586 0.0000296 0.0000831 0.0000085 -0.0000174 0.0000371 0.0000957 -0.0004173 0.0005098
-0.0004925 -0.0001683 -0.0001300 -0.0006565 -0.0003206 0.0001431 -0.0002363 0.0002378 -0.0002655 0.0005905 -0.0002552 0.0001653 -0.0000266 0.0001906 -0.0000090 -0.0000334 0.0000082 0.0000987 -0.0004677 0.0003420
-0.0005304 -0.0001775 -0.0001307 -0.0006163 -0.0003467 0.0001204 -0.0002764 0.0001709 -0.0003178 0.0004783 -0.0002745 0.0001069 -0.0001006 0.0000756 -0.0000192 -0.0001510 -0.0000094 0.0000081 -0.0004862 0.0001894
-0.0005268 -0.0002285 -0.0001442 -0.0006038 -0.0003747 0.0001084 -0.0003152 0.0001766 -0.0003543 0.0004596 -0.0002953 0.0001736 -0.0001677 0.0001384 -0.0000301 -0.0001504 -0.0000293 0.0000644 -0.0004743 0.0003809
-0.0005124 -0.0000694 -0.0001542 -0.0004792 -0.0003925 0.0002937 -0.0003556 0.0003660 -0.0003940 0.0005731 -0.0003261 0.0003472 -0.0002221 0.0003653 -0.0000403 -0.0000594 -0.0000394 0.0001602 -0.0004631 0.0006096
-0.0005012 0.0001356 -0.0001518 -0.0003549 -0.0004138 0.0005149 -0.0004001 0.0006029 -0.0004125 0.0007418 -0.0003785 0.0004716 -0.0002689 0.0005938 -0.0000547 0.0000179 -0.0000473 0.0001756 -0.0004875 0.0005264
-0.0004988 0.0001992 -0.0001587 -0.0003535 -0.0004258 0.0005363 -0.0004448 0.0005628 -0.0004209 0.0007511 -0.0004177 0.0003873 -0.0003386 0.0005752 -0.0000668 -0.0000463 -0.0000681 0.0000691 -0.0005612 0.0002332
-0.0005052 0.0000644 -0.0001973 -0.0004664 -0.0004388 0.0003993 -0.0004882 0.0003566 -0.0004168 0.0006736 -0.0004528 0.0001896 -0.0004165 0.0004524 -0.0000850 -0.0001802 -0.0000767 -0.0000434 -0.0006575 -0.0000454
-0.0004890 -0.0000548 -0.0002401 -0.0005745 -0.0004601 0.0003443 -0.0005024 0.0004144 -0.0003918 0.0008506 -0.0004703 0.0001992 -0.0004354 0.0005690 -0.0001176 -0.0002601 -0.0000861 -0.0000206 -0.0006889 -0.0001305
-0.0005123 -0.0002232 -0.0002996 -0.0007132 -0.0004953 0.0003538 -0.0005273 0.0006085 -0.0003986 0.0011426 -0.0004729 0.0004050 -0.0004483 0.0008531 -0.0001261 -0.0002131 -0.0000881 0.0001036 -0.0006637 0.0000230
