-0.0000000 -0.0000000 -0.0000000 -0.0000000 -0.0000000 -0.0000000 -0.0000000 -0.0000000 -0.0000000 -0.0000000 -0.0000000 -0.0000000 -0.0000000 -0.0000000 -0.0000000 -0.0000000 -0.0000000 -0.0000000 -0.0000000 -0.0000000
-0.0000000 -0.0000000 -0.0000000 -0.0000000 -0.0000000 -0.0000000 -0.0000000 -0.0000000 -0.0000000 -0.0000000 -0.0000000 -0.0000000 -0.0000000 -0.0000000 -0.0000000 -0.0000000 -0.0000000 -0.0000000 -0.0000000 -0.0000000
0.0001909 -0.0002605 -0.0000047 0.0000723 0.0000066 0.0000546 0.0000177 0.0000466 0.0000073 0.0000831 0.0000196 0.0001723 0.0000260 0.0001240 0.0000189 0.0001379 0.0000142 0.0001346 0.0000138 0.0001203
0.0005806 -0.0000143 -0.0000246 0.0002860 0.0000045 0.0002330 0.0000163 0.0002267 0.0000023 0.0002425 0.0000336 0.0003278 0.0000420 0.0001974 0.0000089 0.0001072 0.0000336 0.0001506 0.0000032 0.0000730
0.0009636 -0.0004301 -0.0000264 0.0001504 -0.0000041 0.0001151 0.0000090 0.0000889 -0.0000007 0.0000480 0.0000335 0.0000090 0.0000501 -0.0000861 -0.0000174 -0.0002688 0.0000473 -0.0000606 0.0000192 -0.0002047
0.0016687 -0.0019285 -0.0000093 -0.0002501 -0.0000034 -0.0002828 0.0000269 -0.0003310 0.0000162 -0.0003405 0.0000338 -0.0003237 0.0000636 -0.0002774 0.0000003 -0.0003295 0.0000532 -0.0001185 0.0000591 -0.0002069
0.0014877 -0.0013414 0.0000129 -0.0001483 0.0000073 -0.0002399 0.0000528 -0.0002908 0.0000342 -0.0002518 0.0000657 -0.0000818 0.0000916 -0.0000684 0.0000316 -0.0000915 0.0000771 -0.0000182 0.0000653 -0.0000332
0.0007293 -0.0002510 0.0000286 0.0001246 0.0000133 0.0000093 0.0000587 -0.0000253 0.0000347 0.0000331 0.0000874 0.0003434 0.0000958 0.0002835 0.0000467 0.0002430 0.0000633 0.0001543 0.0000472 0.0001390
0.0003560 -0.0004422 0.0000385 0.0002369 0.0000165 0.0001764 0.0000524 0.0001041 0.0000294 0.0000710 0.0000881 0.0002504 0.0000914 0.0001990 0.0000146 0.0000419 0.0000400 0.0000697 0.0000261 -0.0000084
-0.0011098 0.0007959 0.0000331 -0.0000299 0.0000149 -0.0000501 0.0000599 -0.0001647 0.0000399 -0.0002419 0.0000833 -0.0002628 0.0000979 -0.0002123 -0.0000098 -0.0003980 0.0000674 -0.0001226 0.0000470 -0.0002454
-0.0019446 0.0016596 0.0000330 -0.0002243 0.0000226 -0.0002599 0.0000866 -0.0003470 0.0000621 -0.0003192 0.0000969 -0.0002318 0.0001225 -0.0001756 0.0000152 -0.0002828 0.0001083 -0.0000481 0.0000834 -0.0001220
-0.0008353 0.0006167 0.0000309 -0.0000462 0.0000377 -0.0000751 0.0001027 -0.0001416 0.0000697 -0.0000764 0.0001124 0.0001735 0.0001381 0.0001396 0.0000381 0.0000249 0.0001124 0.0001372 0.0000794 0.0000683
0.0001941 0.0001964 -0.0000104 0.0002856 0.0000291 0.0002172 0.0000898 0.0001721 0.0000529 0.0002661 0.0001142 0.0006579 0.0001425 0.0005235 0.0000416 0.0003445 0.0000763 0.0003259 0.0000305 0.0001486
0.0004843 0.0002885 -0.0000484 0.0003028 0.0000218 0.0002819 0.0000704 0.0001950 0.0000440 0.0002102 0.0000996 0.0004297 0.0001215 0.0003004 0.0000253 0.0001388 0.0000867 0.0002188 -0.0000112 0.0000118
0.0011461 -0.0007660 -0.0000431 -0.0000765 0.0000359 0.0000505 0.0000749 -0.0001085 0.0000607 -0.0001239 0.0000798 -0.0001356 0.0000910 -0.0001723 0.0000246 -0.0001811 0.0001434 0.0000850 0.0000119 -0.0000764
0.0011394 -0.0005148 -0.0000247 -0.0001949 0.0000443 -0.0000246 0.0000876 -0.0001764 0.0000759 -0.0001096 0.0000802 -0.0000440 0.0000881 -0.0000691 0.0000474 -0.0000110 0.0001467 0.0002498 0.0000412 0.0000492
0.0007460 0.0000745 -0.0000219 0.0000333 0.0000394 0.0001650 0.0000822 0.0000738 0.0000700 0.0001633 0.0000945 0.0003473 0.0000981 0.0002596 0.0000592 0.0002914 0.0001268 0.0004454 0.0000201 0.0002536
-0.0002946 0.0005861 -0.0000211 0.0003476 0.0000259 0.0004578 0.0000545 0.0004149 0.0000456 0.0005318 0.0001018 0.0008481 0.0000983 0.0006850 0.0000412 0.0006156 0.0000783 0.0006001 -0.0000340 0.0004321
-0.0010692 0.0014831 -0.0000406 0.0004486 -0.0000050 0.0005611 0.0000172 0.0004986 0.0000157 0.0004675 0.0000905 0.0006333 0.0000777 0.0005277 -0.0000336 0.0002760 0.0000426 0.0003686 -0.0000654 0.0001893
-0.0005181 0.0009234 -0.0000454 0.0001039 -0.0000411 0.0001818 0.0000024 0.0001336 0.0000053 -0.0000003 0.0000743 -0.0000323 0.0000650 0.0000149 -0.0000877 -0.0002993 0.0000458 -0.0000295 -0.0000546 -0.0001328
-0.0002920 0.0000562 -0.0000345 -0.0001389 -0.0000552 -0.0001297 0.0000157 -0.0001124 0.0000159 -0.0001549 0.0000788 -0.0000577 0.0000863 0.0000002 -0.0000836 -0.0002518 0.0000369 -0.0000350 -0.0000276 -0.0000626
-0.0005072 0.0006315 -0.0000349 0.0000550 -0.0000544 0.0000225 0.0000220 0.0000766 0.0000167 0.0000638 0.0000973 0.0003392 0.0001038 0.0002999 -0.0000690 0.0000500 0.0000364 0.0001407 -0.0000462 0.0001354
0.0004095 0.0005851 -0.0000356 0.0003857 -0.0000588 0.0003338 0.0000035 0.0004260 -0.0000001 0.0004291 0.0001006 0.0008574 0.0000961 0.0007219 -0.0000639 0.0004659 0.0000129 0.0003746 -0.0000947 0.0003852
0.0011344 -0.0000820 -0.0000596 0.0007660 -0.0000709 0.0007247 -0.0000347 0.0008266 -0.0000290 0.0008538 0.0000968 0.0014196 0.0000808 0.0012443 -0.0000856 0.0009435 -0.0000438 0.0006238 -0.0001557 0.0006189
0.0005686 0.0005513 -0.0001071 0.0011999 -0.0000945 0.0011766 -0.0000859 0.0012392 -0.0000653 0.0012366 0.0000931 0.0016412 0.0000598 0.0013504 -0.0001508 0.0007548 -0.0000729 0.0005150 -0.0002440 0.0004756
-0.0004788 0.0013278 -0.0001178 0.0008667 -0.0001286 0.0008934 -0.0001155 0.0010013 -0.0000763 0.0008474 0.0000455 0.0009510 0.0000033 0.0007776 -0.0002143 0.0000801 -0.0000762 0.0001521 -0.0002703 0.0001145
-0.0008047 0.0007395 -0.0000889 0.0001860 -0.0001379 0.0002468 -0.0001119 0.0004389 -0.0000632 0.0002237 0.0000047 0.0003023 -0.0000413 0.0004081 -0.0002190 -0.0000626 -0.0000782 0.0000934 -0.0002333 0.0000739
-0.0010054 0.0007120 -0.0000796 0.0002209 -0.0001154 0.0002713 -0.0001084 0.0004564 -0.0000599 0.0003022 0.0000083 0.0004837 -0.0000395 0.0005509 -0.0002049 0.0001717 -0.0000870 0.0002644 -0.0002412 0.0002500
-0.0014358 0.0016913 -0.0001038 0.0005186 -0.0000997 0.0005638 -0.0001139 0.0007514 -0.0000682 0.0006193 0.0000111 0.0009195 -0.0000422 0.0008887 -0.0001962 0.0005794 -0.0000819 0.0004752 -0.0002739 0.0005075
-0.0013790 0.0018204 -0.0001309 0.0008809 -0.0000968 0.0009511 -0.0001360 0.0011237 -0.0000923 0.0009486 0.0000046 0.0011643 -0.0000426 0.0010278 -0.0002256 0.0005716 -0.0000897 0.0004351 -0.0003256 0.0004787
0.0003676 0.0000804 -0.0001464 0.0007152 -0.0001015 0.0008391 -0.0001590 0.0009911 -0.0001020 0.0007344 -0.0000282 0.0007637 -0.0000662 0.0007246 -0.0002694 0.0002083 -0.0001041 0.0002176 -0.0003455 0.0002541
0.0012294 -0.0004517 -0.0001423 0.0003487 -0.0001006 0.0004841 -0.0001635 0.0006451 -0.0000888 0.0003841 -0.0000534 0.0004228 -0.0000841 0.0005324 -0.0002744 0.0001633 -0.0000972 0.0002086 -0.0003378 0.0002610
0.0007534 0.0001183 -0.0001290 0.0004201 -0.0000936 0.0005400 -0.0001674 0.0007295 -0.0000898 0.0005091 -0.0000515 0.0006721 -0.0000877 0.0007293 -0.0002573 0.0004145 -0.0001041 0.0003844 -0.0003630 0.0004191
0.0005202 0.0002323 -0.0001049 0.0006477 -0.0000979 0.0007778 -0.0001892 0.0010101 -0.0001138 0.0008250 -0.0000492 0.0011286 -0.0001002 0.0010966 -0.0002515 0.0007458 -0.0001181 0.0005557 -0.0003867 0.0005135
-0.0002812 0.0008984 -0.0001043 0.0006681 -0.0001179 0.0008286 -0.0002171 0.0010425 -0.0001367 0.0007527 -0.0000590 0.0009118 -0.0001201 0.0009395 -0.0002856 0.0004983 -0.0001143 0.0003748 -0.0003901 0.0003132
-0.0015376 0.0015773 -0.0001012 0.0003713 -0.0001549 0.0005094 -0.0002330 0.0007103 -0.0001450 0.0003345 -0.0000765 0.0003495 -0.0001339 0.0005023 -0.0003019 0.0000865 -0.0000989 0.0001474 -0.0003680 0.0001250
-0.0020636 0.0017490 -0.0000743 0.0002905 -0.0001937 0.0003127 -0.0002401 0.0005840 -0.0001551 0.0002530 -0.0000732 0.0004204 -0.0001239 0.0005503 -0.0002880 0.0002075 -0.0001256 0.0002568 -0.0003651 0.0002029
-0.0016373 0.0014213 -0.0000751 0.0005325 -0.0002423 0.0004204 -0.0002611 0.0007727 -0.0001788 0.0004625 -0.0000665 0.0007850 -0.0001186 0.0008296 -0.0002733 0.0005472 -0.0001391 0.0004599 -0.0003834 0.0004027
-0.0013182 0.0012584 -0.0000992 0.0007856 -0.0002994 0.0005783 -0.0002951 0.0009138 -0.0002095 0.0004939 -0.0000786 0.0007210 -0.0001285 0.0007608 -0.0002917 0.0004140 -0.0001063 0.0003229 -0.0003933 0.0002851
-0.0004343 0.0006945 -0.0001031 0.0005788 -0.0003460 0.0003056 -0.0003152 0.0006235 -0.0002196 0.0001370 -0.0001025 0.0001983 -0.0001415 0.0003331 -0.0003195 -0.0000249 -0.0001032 0.0000622 -0.0003852 -0.0000200
0.0003145 -0.0001127 -0.0000719 0.0002749 -0.0003611 -0.0000603 -0.0003128 0.0003065 -0.0002090 -0.0000802 -0.0001141 0.0000774 -0.0001388 0.0002258 -0.0002986 0.0000040 -0.0001100 0.0000533 -0.0003993 -0.0000403
0.0012113 -0.0012681 -0.0000533 0.0003932 -0.0003544 0.0000193 -0.0003127 0.0004012 -0.0002082 0.0000764 -0.0001206 0.0003359 -0.0001502 0.0004351 -0.0002658 0.0003255 -0.0001122 0.0001187 -0.0004460 0.0001190
0.0008759 -0.0004884 -0.0000532 0.0006972 -0.0003631 0.0002931 -0.0003329 0.0006754 -0.0002268 0.0003211 -0.0001205 0.0004796 -0.0001579 0.0005006 -0.0002679 0.0003249 -0.0001210 0.0001230 -0.0004543 0.0001019
0.0002877 0.0001313 -0.0000413 0.0005378 -0.0003793 0.0001491 -0.0003478 0.0004821 -0.0002352 0.0000787 -0.0001341 0.0000634 -0.0001640 0.0001440 -0.0002791 -0.0000698 -0.0001203 -0.0000255 -0.0004005 -0.0001584
-0.0000737 -0.0005710 0.0000141 0.0000937 -0.0003817 -0.0002851 -0.0003419 0.0000176 -0.0002243 -0.0003270 -0.0001558 -0.0003202 -0.0001781 -0.0001095 -0.0002456 -0.0001113 -0.0001101 -0.0001467 -0.0003985 -0.0001904
-0.0016632 0.0009486 0.0000343 0.0001401 -0.0003749 -0.0002997 -0.0003349 0.0000014 -0.0002192 -0.0002701 -0.0001692 -0.0001887 -0.0001820 0.0000207 -0.0001997 0.0002636 -0.0001355 -0.0000791 -0.0004421 0.0000093
-0.0024632 0.0022402 0.0000178 0.0004193 -0.0003769 -0.0000535 -0.0003429 0.0002407 -0.0002310 0.0000191 -0.0001940 0.0001534 -0.0002019 0.0003274 -0.0001640 0.0007782 -0.0001826 0.0001736 -0.0004565 0.0003003
-0.0012841 0.0011692 -0.0000091 0.0007700 -0.0003932 0.0002974 -0.0003712 0.0005848 -0.0002642 0.0004181 -0.0002098 0.0006301 -0.0002185 0.0007366 -0.0001712 0.0010115 -0.0002157 0.0003566 -0.0004866 0.0004331
-0.0003319 0.0005782 -0.0000531 0.0006982 -0.0004229 0.0002378 -0.0004006 0.0005009 -0.0002843 0.0002217 -0.0002393 0.0002214 -0.0002435 0.0004265 -0.0001963 0.0006043 -0.0002312 0.0001917 -0.0005000 0.0002278
-0.0000519 0.0002667 -0.0000596 0.0002212 -0.0004454 -0.0002387 -0.0004025 -0.0000220 -0.0002741 -0.0003905 -0.0002589 -0.0006071 -0.0002564 -0.0002298 -0.0001831 0.0001687 -0.0002110 -0.0000614 -0.0004736 0.0000231
0.0006494 -0.0008854 -0.0000077 0.0000299 -0.0004398 -0.0004444 -0.0003948 -0.0002399 -0.0002596 -0.0005225 -0.0002498 -0.0006153 -0.0002389 -0.0002374 -0.0001540 0.0002221 -0.0001792 -0.0000285 -0.0004621 0.0000912
0.0008048 -0.0005557 0.0000317 0.0001842 -0.0004293 -0.0002994 -0.0003957 -0.0000713 -0.0002612 -0.0003027 -0.0002324 -0.0002501 -0.0002291 0.0000626 -0.0001233 0.0005015 -0.0001509 0.0001742 -0.0004559 0.0003165
0.0003096 0.0002156 0.0000308 0.0004918 -0.0004314 0.0000036 -0.0004137 0.0002434 -0.0002836 0.0000542 -0.0002159 0.0002526 -0.0002283 0.0004795 -0.0000988 0.0009027 -0.0001263 0.0004022 -0.0004569 0.0006080
-0.0008723 0.0008321 0.0000262 0.0008610 -0.0004458 0.0003913 -0.0004534 0.0006336 -0.0003157 0.0004786 -0.0002087 0.0007998 -0.0002398 0.0009498 -0.0000977 0.0013450 -0.0001868 0.0007006 -0.0004978 0.0009276
-0.0016908 0.0019563 -0.0000085 0.0012957 -0.0004737 0.0008249 -0.0005072 0.0010638 -0.0003589 0.0009571 -0.0002135 0.0013741 -0.0002671 0.0014733 -0.0001244 0.0017932 -0.0002893 0.0010127 -0.0005630 0.0012007
-0.0011359 0.0019525 -0.0000720 0.0016431 -0.0005071 0.0012109 -0.0005610 0.0013882 -0.0003968 0.0011058 -0.0002378 0.0011824 -0.0003052 0.0013188 -0.0001993 0.0013631 -0.0003157 0.0007973 -0.0006317 0.0009519
-0.0009673 0.0010187 -0.0001171 0.0011107 -0.0005599 0.0007570 -0.0005891 0.0009822 -0.0004034 0.0004782 -0.0002839 0.0002017 -0.0003458 0.0005677 -0.0002476 0.0004860 -0.0003004 0.0003158 -0.0006481 0.0004555
-0.0012939 0.0009655 -0.0001031 0.0003479 -0.0005909 0.0000039 -0.0005950 0.0003388 -0.0003933 -0.0001320 -0.0003088 -0.0003050 -0.0003706 0.0002728 -0.0002286 0.0003379 -0.0002662 0.0002064 -0.0006217 0.0003681
-0.0001186 0.0004374 -0.0000641 0.0003504 -0.0005783 -0.0000134 -0.0006017 0.0003102 -0.0003949 -0.0000928 -0.0003040 -0.0001239 -0.0003703 0.0004375 -0.0002067 0.0005445 -0.0002587 0.0003433 -0.0006127 0.0005272
0.0009105 -0.0004559 -0.0000588 0.0006027 -0.0005697 0.0002537 -0.0006275 0.0005831 -0.0004156 0.0002090 -0.0002895 0.0003091 -0.0003754 0.0007878 -0.0001785 0.0009177 -0.0002682 0.0005591 -0.0006233 0.0008040
0.0004996 0.0001459 -0.0000825 0.0009726 -0.0005819 0.0006335 -0.0006712 0.0009653 -0.0004513 0.0006282 -0.0002806 0.0008299 -0.0004011 0.0012296 -0.0001650 0.0013565 -0.0002907 0.0008207 -0.0006464 0.0011080
-0.0004269 0.0012601 -0.0000918 0.0013614 -0.0005929 0.0010608 -0.0007246 0.0013852 -0.0004921 0.0011011 -0.0002819 0.0013983 -0.0004330 0.0017315 -0.0001861 0.0017952 -0.0003477 0.0010839 -0.0006918 0.0013596
-0.0007987 0.0015447 -0.0001175 0.0017334 -0.0005996 0.0015300 -0.0007873 0.0018317 -0.0005353 0.0015888 -0.0002868 0.0019406 -0.0004554 0.0021869 -0.0002350 0.0018790 -0.0004099 0.0011740 -0.0007633 0.0013369
-0.0013591 0.0017670 -0.0001640 0.0014668 -0.0006210 0.0013741 -0.0008290 0.0017309 -0.0005540 0.0012376 -0.0003222 0.0012866 -0.0005082 0.0017037 -0.0002989 0.0011980 -0.0004146 0.0008315 -0.0007842 0.0009553
-0.0022172 0.0019867 -0.0001682 0.0007574 -0.0006447 0.0006984 -0.0008449 0.0011416 -0.0005422 0.0004046 -0.0003485 0.0001801 -0.0005558 0.0008959 -0.0003133 0.0005906 -0.0003585 0.0004777 -0.0007387 0.0006985
-0.0022764 0.0017892 -0.0001345 0.0005528 -0.0006456 0.0004537 -0.0008509 0.0009196 -0.0005322 0.0002489 -0.0003389 0.0001510 -0.0005469 0.0008767 -0.0002781 0.0006681 -0.0003333 0.0005213 -0.0006972 0.0007857
-0.0003754 0.0005028 -0.0001217 0.0007420 -0.0006356 0.0006165 -0.0008590 0.0011082 -0.0005324 0.0004944 -0.0003210 0.0005371 -0.0005312 0.0011591 -0.0002377 0.0010081 -0.0003065 0.0006908 -0.0006652 0.0010287
0.0006512 0.0000444 -0.0001385 0.0010696 -0.0006337 0.0009549 -0.0008837 0.0014526 -0.0005479 0.0008965 -0.0003128 0.0010622 -0.0005318 0.0015746 -0.0002148 0.0014320 -0.0003016 0.0009024 -0.0006656 0.0013356
0.0001275 0.0008740 -0.0001686 0.0014556 -0.0006346 0.0013664 -0.0009202 0.0018442 -0.0005771 0.0013570 -0.0003080 0.0016243 -0.0005465 0.0020709 -0.0002309 0.0018798 -0.0003665 0.0012022 -0.0007035 0.0015887
0.0001856 0.0011854 -0.0001865 0.0017875 -0.0006415 0.0017590 -0.0009613 0.0021816 -0.0006031 0.0015896 -0.0003077 0.0016044 -0.0005614 0.0019988 -0.0002957 0.0014928 -0.0003587 0.0010792 -0.0007357 0.0013708
0.0001996 0.0006253 -0.0001826 0.0012996 -0.0006608 0.0013571 -0.0009884 0.0018673 -0.0006053 0.0010700 -0.0003275 0.0008289 -0.0005903 0.0013719 -0.0003302 0.0006471 -0.0002960 0.0006642 -0.0007163 0.0009392
-0.0007776 0.0008100 -0.0001485 0.0006084 -0.0006635 0.0006744 -0.0009887 0.0013220 -0.0005864 0.0005063 -0.0003371 0.0004074 -0.0006057 0.0011197 -0.0003009 0.0005256 -0.0002561 0.0006170 -0.0006582 0.0008924
-0.0019667 0.0020437 -0.0001004 0.0006497 -0.0006448 0.0006841 -0.0009830 0.0013444 -0.0005747 0.0006007 -0.0003148 0.0006546 -0.0005907 0.0012987 -0.0002482 0.0007946 -0.0002211 0.0007771 -0.0006079 0.0010874
-0.0018557 0.0018183 -0.0000757 0.0009277 -0.0006324 0.0009517 -0.0009900 0.0016306 -0.0005820 0.0009611 -0.0002881 0.0011500 -0.0005738 0.0016734 -0.0002082 0.0012251 -0.0002425 0.0009844 -0.0005869 0.0013416
-0.0018438 0.0018382 -0.0000973 0.0013377 -0.0006446 0.0013375 -0.0010193 0.0020122 -0.0006052 0.0014301 -0.0002831 0.0017261 -0.0005769 0.0021564 -0.0002200 0.0016974 -0.0003210 0.0012131 -0.0006240 0.0015324
-0.0018193 0.0026210 -0.0001552 0.0017645 -0.0006646 0.0017955 -0.0010572 0.0024066 -0.0006335 0.0019096 -0.0002915 0.0023033 -0.0005922 0.0026346 -0.0002530 0.0019843 -0.0003866 0.0013513 -0.0006922 0.0015516
-0.0012530 0.0018911 -0.0001923 0.0015610 -0.0006818 0.0016952 -0.0010759 0.0023429 -0.0006413 0.0016265 -0.0003299 0.0017207 -0.0006268 0.0021529 -0.0003067 0.0013163 -0.0003885 0.0009971 -0.0007220 0.0011731
0.0006577 -0.0006333 -0.0001798 0.0008503 -0.0006928 0.0010167 -0.0010721 0.0017723 -0.0006202 0.0008265 -0.0003614 0.0006075 -0.0006548 0.0012838 -0.0003203 0.0005153 -0.0003304 0.0006059 -0.0006807 0.0008468
0.0011962 -0.0006807 -0.0001356 0.0005844 -0.0006710 0.0006881 -0.0010523 0.0014718 -0.0005930 0.0006141 -0.0003479 0.0005199 -0.0006368 0.0012014 -0.0002695 0.0005739 -0.0002751 0.0006265 -0.0006282 0.0009337
0.0006701 0.0001047 -0.0000910 0.0007489 -0.0006404 0.0008120 -0.0010311 0.0016064 -0.0005784 0.0008381 -0.0003405 0.0008632 -0.0006152 0.0014263 -0.0001702 0.0009505 -0.0002419 0.0008337 -0.0005652 0.0012136
0.0004335 0.0000240 -0.0000430 0.0010570 -0.0006191 0.0011459 -0.0010281 0.0019070 -0.0005869 0.0012282 -0.0003465 0.0013977 -0.0006089 0.0018274 -0.0000841 0.0014414 -0.0002447 0.0011730 -0.0005434 0.0015323
-0.0006427 0.0013333 -0.0000598 0.0014128 -0.0005510 0.0017037 -0.0010305 0.0022504 -0.0005841 0.0016290 -0.0003298 0.0016935 -0.0005951 0.0019324 -0.0001014 0.0012555 -0.0002549 0.0011223 -0.0005834 0.0013946
-0.0019370 0.0024153 -0.0001023 0.0010514 -0.0004469 0.0016783 -0.0010079 0.0020379 -0.0005473 0.0013166 -0.0003243 0.0011898 -0.0006019 0.0014788 -0.0001498 0.0006128 -0.0002008 0.0007242 -0.0005700 0.0009768
-0.0023224 0.0021371 -0.0000694 0.0004225 -0.0004082 0.0011183 -0.0009737 0.0015237 -0.0005146 0.0007207 -0.0003200 0.0006385 -0.0006020 0.0011242 -0.0001575 0.0004200 -0.0001670 0.0005611 -0.0005220 0.0008476
-0.0018331 0.0015508 -0.0000190 0.0004254 -0.0004242 0.0009420 -0.0009508 0.0014259 -0.0005025 0.0006941 -0.0002877 0.0006987 -0.0005643 0.0011758 -0.0001371 0.0005642 -0.0001526 0.0006585 -0.0004700 0.0009444
-0.0014091 0.0013004 0.0000032 0.0007024 -0.0004709 0.0010284 -0.0009511 0.0015823 -0.0005071 0.0009451 -0.0002908 0.0009611 -0.0006026 0.0013251 -0.0001846 0.0008578 -0.0001704 0.0008048 -0.0004021 0.0011296
-0.0003828 0.0010763 0.0000024 0.0009464 -0.0004175 0.0013462 -0.0009388 0.0017021 -0.0004920 0.0010417 -0.0003271 0.0006971 -0.0006750 0.0011483 -0.0003368 0.0006921 -0.0001630 0.0006914 -0.0003415 0.0009255
0.0004052 0.0002455 -0.0000049 0.0005545 -0.0003655 0.0011773 -0.0009189 0.0013587 -0.0004945 0.0006653 -0.0003222 0.0001624 -0.0006929 0.0009477 -0.0004000 0.0006537 -0.0000466 0.0004991 -0.0003007 0.0006446
0.0014562 -0.0019372 -0.0000174 0.0000201 -0.0006170 0.0002669 -0.0009446 0.0009530 -0.0006036 0.0002900 -0.0002865 0.0000352 -0.0006868 0.0010238 -0.0003236 0.0012072 0.0000313 0.0004860 -0.0002848 0.0007023
0.0011432 -0.0018215 0.0000023 0.0000527 -0.0008593 -0.0001688 -0.0009208 0.0010886 -0.0006599 0.0004329 -0.0003000 0.0000451 -0.0007035 0.0011676 -0.0002885 0.0016996 0.0000444 0.0005593 -0.0002943 0.0007685
0.0004807 -0.0011153 0.0000453 0.0003541 -0.0008525 0.0002194 -0.0008226 0.0015819 -0.0006142 0.0010159 -0.0003285 0.0002044 -0.0007165 0.0013164 -0.0003536 0.0016906 0.0000371 0.0005250 -0.0002975 0.0006472
0.0001906 -0.0017314 0.0000817 0.0001396 -0.0007842 0.0003833 -0.0007199 0.0016158 -0.0005715 0.0008932 -0.0003356 -0.0002777 -0.0006969 0.0008892 -0.0003842 0.0010475 0.0000672 0.0002477 -0.0002461 0.0003525
-0.0011384 -0.0008505 0.0001228 -0.0004361 -0.0007111 0.0000534 -0.0006314 0.0010972 -0.0005362 0.0001545 -0.0003014 -0.0009825 -0.0006109 0.0002751 -0.0002617 0.0005665 0.0001085 0.0000320 -0.0001650 0.0002446
-0.0016969 0.0000601 0.0002003 -0.0005409 -0.0006096 -0.0001459 -0.0005555 0.0007343 -0.0004985 -0.0001455 -0.0002046 -0.0008805 -0.0004556 0.0001739 -0.0001332 0.0002907 0.0001292 -0.0000241 -0.0000892 0.0002753
-0.0008062 -0.0005701 0.0002848 -0.0002652 -0.0005108 -0.0001243 -0.0004749 0.0007311 -0.0004446 0.0000250 -0.0001080 -0.0003426 -0.0003150 0.0004224 -0.0000881 0.0000822 0.0001022 0.0000331 -0.0000598 0.0003295
-0.0003553 -0.0004255 0.0002956 0.0000179 -0.0004509 -0.0000734 -0.0003980 0.0008305 -0.0003902 0.0000660 -0.0000689 -0.0003070 -0.0002334 0.0003326 -0.0000761 -0.0003151 0.0000558 -0.0001949 -0.0000708 0.0000797
0.0000887 -0.0007586 0.0002954 -0.0002887 -0.0004240 -0.0004313 -0.0003321 0.0005090 -0.0003428 -0.0004080 -0.0000702 -0.0009096 -0.0002012 -0.0001889 -0.0000532 -0.0008197 0.0000861 -0.0005690 -0.0000266 -0.0002267
0.0013568 -0.0022862 0.0003698 -0.0007436 -0.0003952 -0.0008585 -0.0002599 0.0001406 -0.0002976 -0.0007130 -0.0000667 -0.0011476 -0.0001634 -0.0003683 -0.0000122 -0.0008962 0.0001317 -0.0006217 0.0000481 -0.0001961
0.0018419 -0.0022124 0.0004463 -0.0007290 -0.0003586 -0.0008245 -0.0001897 0.0002119 -0.0002630 -0.0005135 -0.0000475 -0.0008913 -0.0001111 -0.0001834 0.0000405 -0.0007390 0.0001672 -0.0005038 0.0000936 -0.0000316
0.0019259 -0.0020931 0.0004816 -0.0005255 -0.0003389 -0.0005902 -0.0001497 0.0004749 -0.0002560 -0.0001455 -0.0000161 -0.0005499 -0.0000564 -0.0000469 0.0000659 -0.0008495 0.0001661 -0.0004734 0.0001268 -0.0000536
0.0010597 -0.0016442 0.0005235 -0.0007420 -0.0003311 -0.0007108 -0.0001135 0.0003533 -0.0002446 -0.0003303 -0.0000128 -0.0008519 -0.0000301 -0.0003528 0.0000732 -0.0013402 0.0001783 -0.0006113 0.0002002 -0.0002656
0.0003629 -0.0010415 0.0006007 -0.0012563 -0.0003167 -0.0011376 -0.0000509 -0.0000299 -0.0002073 -0.0007610 -0.0000032 -0.0012890 -0.0000002 -0.0006888 0.0001161 -0.0016095 0.0002212 -0.0006641 0.0003065 -0.0003105
0.0003673 -0.0013649 0.0006867 -0.0013921 -0.0002916 -0.0012596 0.0000230 -0.0000716 -0.0001698 -0.0007067 0.0000396 -0.0011179 0.0000553 -0.0006056 0.0001664 -0.0014881 0.0002517 -0.0006137 0.0003664 -0.0002084
-0.0008394 -0.0001538 0.0007173 -0.0011756 -0.0002748 -0.0011081 0.0000808 0.0001357 -0.0001470 -0.0003754 0.0000701 -0.0007063 0.0001081 -0.0003173 0.0001971 -0.0012697 0.0002462 -0.0004716 0.0003547 -0.0001852
-0.0018265 0.0012169 0.0007230 -0.0011489 -0.0002717 -0.0011226 0.0001183 0.0001256 -0.0001217 -0.0004049 0.0000777 -0.0008879 0.0001438 -0.0004969 0.0001649 -0.0015999 0.0002653 -0.0005836 0.0003536 -0.0003979
-0.0001667 -0.0007808 0.0007172 -0.0015168 -0.0002889 -0.0014954 0.0001664 -0.0002488 -0.0000860 -0.0008392 0.0000873 -0.0014536 0.0001765 -0.0009593 0.0001730 -0.0020018 0.0002984 -0.0007583 0.0004060 -0.0005414
0.0011246 -0.0018443 0.0006689 -0.0015895 -0.0002740 -0.0016908 0.0002306 -0.0004294 -0.0000549 -0.0009627 0.0001173 -0.0014859 0.0002348 -0.0009697 0.0002412 -0.0018791 0.0002919 -0.0006836 0.0004345 -0.0004187
0.0013476 -0.0013799 0.0005767 -0.0013605 -0.0002584 -0.0015460 0.0002930 -0.0002218 -0.0000240 -0.0006218 0.0001429 -0.0012081 0.0002859 -0.0007317 0.0002395 -0.0017408 0.0002857 -0.0006392 0.0004409 -0.0002654
0.0018058 -0.0019493 0.0005282 -0.0010608 -0.0003162 -0.0012199 0.0003105 0.0001819 -0.0000008 -0.0000342 0.0001765 -0.0007517 0.0003133 -0.0004171 0.0002156 -0.0016696 0.0002786 -0.0004374 0.0004603 -0.0002087
0.0016299 -0.0018525 0.0005208 -0.0009745 -0.0003968 -0.0010174 0.0002847 0.0002242 0.0000199 -0.0000315 0.0001723 -0.0010810 0.0002999 -0.0007072 0.0001866 -0.0019723 0.0003292 -0.0004267 0.0005035 -0.0003226
0.0011462 -0.0019216 0.0004823 -0.0013278 -0.0004299 -0.0011485 0.0002856 -0.0002281 0.0000537 -0.0005663 0.0001472 -0.0018777 0.0002740 -0.0013141 0.0001904 -0.0022675 0.0004270 -0.0005967 0.0005898 -0.0004367
0.0002988 -0.0018508 0.0004565 -0.0015114 -0.0004162 -0.0012457 0.0003214 -0.0004914 0.0000761 -0.0007803 0.0001743 -0.0019593 0.0002915 -0.0013883 0.0002304 -0.0021956 0.0004782 -0.0005963 0.0006735 -0.0003616
-0.0002129 -0.0009803 0.0004686 -0.0012831 -0.0003944 -0.0010734 0.0003465 -0.0003992 0.0000759 -0.0006031 0.0002035 -0.0016076 0.0003223 -0.0011417 0.0002242 -0.0020234 0.0004331 -0.0004985 0.0007117 -0.0002011
0.0002678 -0.0009695 0.0004821 -0.0009575 -0.0003694 -0.0007985 0.0003466 -0.0001647 0.0000331 -0.0002495 0.0002186 -0.0011076 0.0003399 -0.0007795 0.0002161 -0.0017716 0.0003943 -0.0003419 0.0007087 -0.0001065
0.0002128 -0.0012113 0.0004758 -0.0008676 -0.0003064 -0.0005501 0.0003328 -0.0001653 -0.0000375 -0.0003458 0.0001967 -0.0012870 0.0003112 -0.0009884 0.0001757 -0.0020003 0.0004124 -0.0004355 0.0007152 -0.0002260
-0.0002613 -0.0008713 0.0004887 -0.0010380 -0.0002176 -0.0004749 0.0003241 -0.0005526 -0.0000768 -0.0008493 0.0001649 -0.0018634 0.0002681 -0.0014900 0.0001603 -0.0023155 0.0004858 -0.0005271 0.0007531 -0.0003007
0.0009825 -0.0017061 0.0004815 -0.0011242 -0.0001609 -0.0006047 0.0003570 -0.0008173 -0.0000712 -0.0010720 0.0001724 -0.0019099 0.0002737 -0.0015016 0.0002191 -0.0021632 0.0005441 -0.0003786 0.0007698 -0.0001544
0.0020662 -0.0024256 0.0004327 -0.0009689 -0.0001354 -0.0006482 0.0004068 -0.0007267 -0.0000489 -0.0009365 0.0001937 -0.0016003 0.0003019 -0.0012296 0.0002644 -0.0019184 0.0005395 -0.0002203 0.0007573 0.0000526
0.0017970 -0.0017325 0.0003820 -0.0006903 -0.0001115 -0.0005316 0.0004304 -0.0005530 -0.0000418 -0.0008512 0.0002098 -0.0015163 0.0003200 -0.0011606 0.0002691 -0.0020046 0.0005165 -0.0002886 0.0007349 -0.0000372
0.0013201 -0.0015775 0.0003681 -0.0008447 -0.0001004 -0.0007253 0.0004398 -0.0007739 -0.0000306 -0.0011860 0.0002123 -0.0018535 0.0003250 -0.0014296 0.0002794 -0.0023180 0.0005693 -0.0005687 0.0007485 -0.0002646
0.0010597 -0.0016427 0.0003467 -0.0010891 -0.0000839 -0.0010508 0.0004676 -0.0011164 -0.0000001 -0.0015025 0.0002289 -0.0019721 0.0003494 -0.0015073 0.0003329 -0.0023374 0.0006132 -0.0006576 0.0007930 -0.0002216
0.0004078 -0.0009859 0.0002963 -0.0009003 -0.0000466 -0.0010266 0.0005079 -0.0010670 0.0000280 -0.0013993 0.0002635 -0.0016850 0.0003862 -0.0012700 0.0003890 -0.0020910 0.0005731 -0.0004929 0.0008068 -0.0000284
-0.0007819 -0.0002009 0.0002513 -0.0005925 -0.0000312 -0.0008464 0.0005239 -0.0008137 0.0000349 -0.0010645 0.0002917 -0.0012380 0.0004232 -0.0009260 0.0004079 -0.0019377 0.0005693 -0.0004145 0.0007794 -0.0000112
-0.0014454 0.0004816 0.0001913 -0.0006449 -0.0000236 -0.0009472 0.0005281 -0.0009079 0.0000433 -0.0012513 0.0002887 -0.0014382 0.0004283 -0.0011167 0.0004090 -0.0022172 0.0005931 -0.0005582 0.0007852 -0.0002270
0.0002480 -0.0007619 0.0001138 -0.0009815 0.0000041 -0.0013646 0.0005594 -0.0013794 0.0000884 -0.0018061 0.0002838 -0.0019695 0.0004234 -0.0015446 0.0004593 -0.0024525 0.0006352 -0.0006362 0.0008140 -0.0002511
0.0013968 -0.0018989 0.0000292 -0.0009672 0.0000303 -0.0015530 0.0006143 -0.0015197 0.0001456 -0.0018503 0.0003048 -0.0018650 0.0004617 -0.0014557 0.0005208 -0.0022919 0.0006681 -0.0005251 0.0008082 -0.0000650
0.0009485 -0.0010529 -0.0000289 -0.0006237 0.0000350 -0.0014019 0.0006411 -0.0012796 0.0001695 -0.0015425 0.0003241 -0.0014236 0.0004867 -0.0011159 0.0005467 -0.0019435 0.0006520 -0.0003541 0.0007754 0.0001569
0.0013030 -0.0006584 -0.0000425 -0.0002316 0.0000197 -0.0011097 0.0006277 -0.0009359 0.0001675 -0.0012163 0.0003361 -0.0011783 0.0004931 -0.0009474 0.0005182 -0.0019260 0.0006296 -0.0003582 0.0007185 0.0000735
0.0017638 -0.0015839 -0.0000723 -0.0004019 -0.0000108 -0.0012399 0.0006151 -0.0010580 0.0001729 -0.0014273 0.0003298 -0.0015360 0.0004808 -0.0012191 0.0004901 -0.0022531 0.0006160 -0.0005375 0.0007031 -0.0001813
0.0011858 -0.0015376 -0.0001270 -0.0007626 -0.0000353 -0.0015988 0.0006250 -0.0014224 0.0001897 -0.0017896 0.0003236 -0.0018483 0.0004731 -0.0014279 0.0005021 -0.0023142 0.0005878 -0.0005590 0.0007139 -0.0001710
-0.0000948 -0.0002164 -0.0001606 -0.0006754 -0.0000476 -0.0015734 0.0006408 -0.0013539 0.0002070 -0.0015856 0.0003262 -0.0016564 0.0004748 -0.0012816 0.0004906 -0.0021278 0.0006363 -0.0003715 0.0007154 0.0000482
-0.0004387 -0.0004190 -0.0002012 -0.0004113 -0.0001056 -0.0013012 0.0006338 -0.0009894 0.0002117 -0.0010691 0.0003345 -0.0012211 0.0004727 -0.0009494 0.0005446 -0.0016511 0.0007115 -0.0000282 0.0006879 0.0002399
-0.0008578 -0.0003819 -0.0003007 -0.0005100 -0.0001480 -0.0012794 0.0006158 -0.0009384 0.0001871 -0.0011227 0.0003343 -0.0013153 0.0004610 -0.0010276 0.0005921 -0.0015908 0.0007028 -0.0000371 0.0006338 0.0000640
-0.0011606 0.0002591 -0.0003666 -0.0008836 -0.0001508 -0.0015701 0.0006278 -0.0012613 0.0001796 -0.0015744 0.0003291 -0.0017639 0.0004531 -0.0013831 0.0005394 -0.0019633 0.0006635 -0.0003790 0.0006303 -0.0001972
-0.0005835 -0.0003305 -0.0003572 -0.0008722 -0.0001690 -0.0016079 0.0006716 -0.0012239 0.0002136 -0.0014592 0.0003463 -0.0016731 0.0004668 -0.0013213 0.0004890 -0.0019460 0.0006381 -0.0004270 0.0006499 -0.0001441
0.0011823 -0.0018602 -0.0003586 -0.0005602 -0.0001851 -0.0013447 0.0007000 -0.0008642 0.0002264 -0.0010157 0.0003634 -0.0012971 0.0004816 -0.0010212 0.0004787 -0.0016664 0.0006113 -0.0002504 0.0006429 0.0000761
0.0018646 -0.0019283 -0.0003754 -0.0001890 -0.0002099 -0.0009213 0.0006948 -0.0003818 0.0002138 -0.0004437 0.0003687 -0.0008116 0.0005017 -0.0006241 0.0004768 -0.0014293 0.0005992 -0.0001632 0.0005991 0.0001108
0.0012914 -0.0013890 -0.0004224 -0.0003184 -0.0002404 -0.0007843 0.0006813 -0.0002743 0.0002064 -0.0004576 0.0003412 -0.0010534 0.0004769 -0.0008122 0.0004501 -0.0016565 0.0006044 -0.0003841 0.0005674 -0.0001732
0.0013451 -0.0018112 -0.0004160 -0.0007939 -0.0002655 -0.0010025 0.0006750 -0.0006251 0.0002143 -0.0009121 0.0003151 -0.0016839 0.0004582 -0.0012959 0.0004051 -0.0019976 0.0005973 -0.0005702 0.0005885 -0.0004002
0.0012048 -0.0021007 -0.0003397 -0.0008080 -0.0002869 -0.0009337 0.0006738 -0.0006953 0.0002509 -0.0008566 0.0003455 -0.0016625 0.0004802 -0.0012547 0.0004000 -0.0018389 0.0005942 -0.0004818 0.0006252 -0.0003331
0.0000809 -0.0012411 -0.0002966 -0.0005012 -0.0002955 -0.0006275 0.0006683 -0.0004825 0.0002662 -0.0005621 0.0003733 -0.0013395 0.0004909 -0.0009619 0.0004467 -0.0014079 0.0005763 -0.0003455 0.0006333 -0.0001487
-0.0010937 0.0001564 -0.0002963 -0.0001955 -0.0002935 -0.0003310 0.0006579 -0.0002104 0.0002446 -0.0003407 0.0003777 -0.0012150 0.0004957 -0.0008728 0.0004387 -0.0013649 0.0005571 -0.0004082 0.0006152 -0.0002601
-0.0010194 -0.0003287 -0.0002964 -0.0003750 -0.0002989 -0.0003809 0.0006339 -0.0003506 0.0002327 -0.0005450 0.0003659 -0.0015667 0.0004824 -0.0011961 0.0004045 -0.0016387 0.0005504 -0.0006490 0.0006359 -0.0005466
-0.0007307 -0.0011033 -0.0003061 -0.0007140 -0.0003048 -0.0006316 0.0006288 -0.0006974 0.0002384 -0.0008454 0.0003554 -0.0017996 0.0004794 -0.0013910 0.0004088 -0.0016302 0.0005546 -0.0007088 0.0006566 -0.0005745
-0.0002865 -0.0007720 -0.0003368 -0.0006295 -0.0003019 -0.0005999 0.0006436 -0.0006493 0.0002397 -0.0007132 0.0003629 -0.0015650 0.0004919 -0.0011970 0.0004366 -0.0013208 0.0005521 -0.0005631 0.0006426 -0.0004101
0.0004091 -0.0012376 -0.0003444 -0.0003744 -0.0002995 -0.0003835 0.0006303 -0.0004109 0.0002245 -0.0003890 0.0003690 -0.0011569 0.0004989 -0.0008743 0.0004456 -0.0010707 0.0005311 -0.0004680 0.0005971 -0.0003814
0.0019423 -0.0031610 -0.0003541 -0.0004222 -0.0003058 -0.0003829 0.0006019 -0.0004701 0.0002027 -0.0005230 0.0003499 -0.0013673 0.0004731 -0.0010879 0.0004010 -0.0013165 0.0005045 -0.0006324 0.0005647 -0.0006403
0.0020890 -0.0030044 -0.0003546 -0.0007769 -0.0003143 -0.0006744 0.0005914 -0.0008589 0.0001931 -0.0009686 0.0003312 -0.0018855 0.0004450 -0.0015430 0.0003866 -0.0015622 0.0005062 -0.0007962 0.0005857 -0.0007955
0.0015511 -0.0024551 -0.0003324 -0.0008604 -0.0003051 -0.0007657 0.0005993 -0.0009838 0.0001963 -0.0010055 0.0003387 -0.0018312 0.0004483 -0.0015086 0.0004190 -0.0013599 0.0005022 -0.0007127 0.0005989 -0.0006904
0.0012166 -0.0025802 -0.0002983 -0.0006566 -0.0002725 -0.0006000 0.0005955 -0.0008343 0.0001713 -0.0008269 0.0003305 -0.0015140 0.0004280 -0.0012790 0.0004617 -0.0009354 0.0004914 -0.0005137 0.0005794 -0.0004612
-0.0000308 -0.0008837 -0.0002789 -0.0003637 -0.0001951 -0.0003160 0.0005518 -0.0008047 0.0000926 -0.0008494 0.0003104 -0.0015109 0.0003988 -0.0013403 0.0004273 -0.0009910 0.0005292 -0.0004963 0.0005557 -0.0005309
-0.0009331 0.0000690 -0.0002610 -0.0005429 -0.0001194 -0.0004727 0.0005131 -0.0011651 0.0000397 -0.0012327 0.0002924 -0.0018655 0.0003957 -0.0016684 0.0003712 -0.0013277 0.0005693 -0.0006038 0.0005772 -0.0007346
-0.0006902 -0.0006971 -0.0002315 -0.0008404 -0.0000924 -0.0008661 0.0005247 -0.0014918 0.0000466 -0.0014773 0.0002925 -0.0018983 0.0004142 -0.0016982 0.0003910 -0.0012388 0.0005667 -0.0005509 0.0006093 -0.0006824
-0.0002518 -0.0008683 -0.0002313 -0.0006695 -0.0000796 -0.0008544 0.0005387 -0.0014084 0.0000560 -0.0013149 0.0003105 -0.0015365 0.0004368 -0.0014173 0.0004089 -0.0009369 0.0005324 -0.0003833 0.0006042 -0.0005078
0.0000198 -0.0006944 -0.0002585 -0.0003535 -0.0000720 -0.0006514 0.0005287 -0.0011674 0.0000476 -0.0011155 0.0003245 -0.0013270 0.0004456 -0.0013057 0.0003867 -0.0009210 0.0004875 -0.0003728 0.0005747 -0.0005359
0.0008010 -0.0012534 -0.0002729 -0.0005186 -0.0000738 -0.0008276 0.0005202 -0.0013427 0.0000452 -0.0013350 0.0003127 -0.0015897 0.0004373 -0.0015562 0.0003372 -0.0012195 0.0004635 -0.0005450 0.0005845 -0.0007260
0.0012587 -0.0017562 -0.0002602 -0.0008770 -0.0000738 -0.0011961 0.0005399 -0.0016692 0.0000688 -0.0015934 0.0003078 -0.0017432 0.0004364 -0.0016625 0.0003192 -0.0012264 0.0004754 -0.0005503 0.0006126 -0.0006964
0.0018420 -0.0025749 -0.0002472 -0.0007722 -0.0000571 -0.0011771 0.0005636 -0.0015745 0.0000941 -0.0014145 0.0003225 -0.0014499 0.0004466 -0.0014170 0.0003182 -0.0009611 0.0004724 -0.0003787 0.0005984 -0.0005055
0.0013428 -0.0018022 -0.0002359 -0.0004728 -0.0000458 -0.0009346 0.0005633 -0.0012886 0.0001065 -0.0010680 0.0003384 -0.0010889 0.0004535 -0.0012048 0.0002927 -0.0009014 0.0004631 -0.0002934 0.0005625 -0.0005077
0.0007746 -0.0011562 -0.0002336 -0.0006165 -0.0000407 -0.0010182 0.0005583 -0.0013988 0.0001122 -0.0012459 0.0003267 -0.0013424 0.0004259 -0.0014440 0.0002514 -0.0011686 0.0004798 -0.0004353 0.0005806 -0.0007161
0.0006212 -0.0018117 -0.0002079 -0.0010327 -0.0000303 -0.0013451 0.0005707 -0.0017529 0.0001281 -0.0016415 0.0003070 -0.0017523 0.0004023 -0.0017231 0.0002144 -0.0013034 0.0005033 -0.0005007 0.0006147 -0.0007584
-0.0004926 -0.0008586 -0.0001912 -0.0009722 -0.0000355 -0.0013049 0.0005999 -0.0016528 0.0001540 -0.0014359 0.0003215 -0.0015412 0.0004215 -0.0015573 0.0002072 -0.0010836 0.0004970 -0.0003596 0.0005972 -0.0005958
-0.0013886 0.0004089 -0.0002066 -0.0006686 -0.0000565 -0.0009947 0.0006276 -0.0011700 0.0001679 -0.0008978 0.0003401 -0.0011218 0.0004267 -0.0012081 0.0002272 -0.0006801 0.0004588 -0.0001750 0.0005600 -0.0004854
-0.0002618 -0.0007269 -0.0002314 -0.0006167 -0.0001047 -0.0008122 0.0006273 -0.0009332 0.0001748 -0.0007395 0.0003311 -0.0012655 0.0004073 -0.0013169 0.0001817 -0.0008459 0.0004491 -0.0003127 0.0005394 -0.0006730
0.0006880 -0.0015383 -0.0002564 -0.0008464 -0.0001641 -0.0009672 0.0006193 -0.0011612 0.0001967 -0.0009797 0.0003127 -0.0017089 0.0003980 -0.0016699 0.0001266 -0.0012375 0.0004461 -0.0005009 0.0005470 -0.0008279
0.0008328 -0.0016217 -0.0002630 -0.0008723 -0.0001929 -0.0010266 0.0006304 -0.0012346 0.0002187 -0.0009378 0.0003229 -0.0016575 0.0004081 -0.0016138 0.0001249 -0.0010996 0.0004448 -0.0003934 0.0005318 -0.0007239
0.0015771 -0.0025104 -0.0002522 -0.0006602 -0.0001975 -0.0007669 0.0006222 -0.0009980 0.0002109 -0.0006441 0.0003268 -0.0013266 0.0004009 -0.0013405 0.0001311 -0.0007259 0.0004546 -0.0002230 0.0004977 -0.0005044
0.0016349 -0.0018897 -0.0002676 -0.0004016 -0.0001863 -0.0003981 0.0005910 -0.0007400 0.0001773 -0.0005224 0.0003037 -0.0013461 0.0003641 -0.0013527 0.0000918 -0.0007619 0.0004323 -0.0002816 0.0004708 -0.0006074
0.0012186 -0.0017029 -0.0002824 -0.0006254 -0.0001806 -0.0004378 0.0005787 -0.0009280 0.0001671 -0.0008256 0.0002684 -0.0018530 0.0003280 -0.0017363 0.0000394 -0.0011038 0.0004136 -0.0004876 0.0004817 -0.0008680
0.0002425 -0.0018280 -0.0002521 -0.0010069 -0.0001640 -0.0006556 0.0006009 -0.0012155 0.0001833 -0.0010519 0.0002549 -0.0020719 0.0003148 -0.0018617 0.0000286 -0.0010796 0.0004019 -0.0004909 0.0005016 -0.0008451
-0.0004993 -0.0008002 -0.0002361 -0.0008888 -0.0001337 -0.0005134 0.0006213 -0.0010835 0.0001922 -0.0008643 0.0002553 -0.0018346 0.0003081 -0.0016418 0.0000261 -0.0007904 0.0004001 -0.0003397 0.0004949 -0.0006788
-0.0000673 -0.0007817 -0.0002468 -0.0006124 -0.0001213 -0.0002229 0.0006143 -0.0007855 0.0001783 -0.0005093 0.0002433 -0.0014579 0.0002944 -0.0013186 0.0000099 -0.0004982 0.0003599 -0.0001848 0.0004568 -0.0006015
-0.0003578 -0.0008305 -0.0002812 -0.0006006 -0.0001168 -0.0000978 0.0005986 -0.0007546 0.0001591 -0.0005970 0.0002032 -0.0017084 0.0002622 -0.0015014 -0.0000470 -0.0006868 0.0003287 -0.0003514 0.0004522 -0.0007630
-0.0009539 -0.0002093 -0.0002938 -0.0008675 -0.0000800 -0.0001777 0.0006152 -0.0010183 0.0001623 -0.0010214 0.0001519 -0.0023060 0.0002199 -0.0019382 -0.0001035 -0.0009814 0.0003177 -0.0005913 0.0004950 -0.0008702
0.0003943 -0.0011602 -0.0002803 -0.0009538 -0.0000161 -0.0001038 0.0006552 -0.0010575 0.0001719 -0.0011070 0.0001214 -0.0024124 0.0001978 -0.0019233 -0.0001354 -0.0008204 0.0002763 -0.0006052 0.0005185 -0.0008108
0.0014940 -0.0021178 -0.0003222 -0.0008270 0.0000391 0.0001875 0.0006932 -0.0008004 0.0001679 -0.0009180 0.0001084 -0.0022071 0.0002009 -0.0016386 -0.0001361 -0.0005441 0.0002467 -0.0006004 0.0005232 -0.0007020
0.0013814 -0.0017340 -0.0004080 -0.0007015 0.0000733 0.0005249 0.0007370 -0.0004610 0.0001611 -0.0008041 0.0000938 -0.0022332 0.0002227 -0.0015398 -0.0001592 -0.0006980 0.0002212 -0.0008368 0.0005398 -0.0008957
0.0009576 -0.0018273 -0.0004547 -0.0011026 0.0000953 0.0004693 0.0007906 -0.0005303 0.0001691 -0.0011606 0.0000715 -0.0026771 0.0002479 -0.0017892 -0.0001866 -0.0010580 0.0001767 -0.0011313 0.0005786 -0.0012024
0.0006521 -0.0021189 -0.0004611 -0.0015942 0.0001268 0.0002546 0.0008512 -0.0007397 0.0001953 -0.0014317 0.0000765 -0.0028542 0.0002681 -0.0018751 -0.0001860 -0.0010913 0.0001456 -0.0011399 0.0005929 -0.0012021
0.0000664 -0.0015880 -0.0004485 -0.0014914 0.0001647 0.0003734 0.0008836 -0.0005962 0.0002167 -0.0011951 0.0001022 -0.0025591 0.0002798 -0.0016587 -0.0001716 -0.0008383 0.0001790 -0.0009576 0.0005689 -0.0010083
-0.0011105 -0.0007490 -0.0004260 -0.0011763 0.0001915 0.0006514 0.0008778 -0.0003230 0.0002136 -0.0007936 0.0001202 -0.0020764 0.0002824 -0.0013004 -0.0001623 -0.0005073 0.0001790 -0.0007476 0.0005016 -0.0008832
-0.0017301 -0.0000672 -0.0004199 -0.0011077 0.0002009 0.0007514 0.0008564 -0.0003294 0.0002084 -0.0009069 0.0001050 -0.0022404 0.0002574 -0.0014433 -0.0002020 -0.0006523 0.0001272 -0.0008001 0.0004684 -0.0010104
-0.0001272 -0.0012727 -0.0004117 -0.0013390 0.0001994 0.0005617 0.0008483 -0.0006806 0.0002196 -0.0013905 0.0000797 -0.0027577 0.0002349 -0.0018830 -0.0002288 -0.0009288 0.0001542 -0.0009849 0.0005000 -0.0011125
0.0010033 -0.0024948 -0.0003996 -0.0013753 0.0002070 0.0004787 0.0008540 -0.0008143 0.0002345 -0.0014504 0.0000768 -0.0027479 0.0002418 -0.0018882 -0.0002257 -0.0008267 0.0001729 -0.0009127 0.0005016 -0.0010372
0.0005606 -0.0017281 -0.0004027 -0.0011451 0.0002124 0.0006266 0.0008505 -0.0006315 0.0002396 -0.0011647 0.0000772 -0.0024286 0.0002352 -0.0016559 -0.0002259 -0.0006050 0.0001623 -0.0006904 0.0004512 -0.0008513
0.0010268 -0.0015073 -0.0003982 -0.0008856 0.0001873 0.0008492 0.0008175 -0.0003887 0.0002296 -0.0009184 0.0000684 -0.0023044 0.0002284 -0.0016456 -0.0002141 -0.0007159 0.0001918 -0.0006115 0.0004318 -0.0008103
0.0014870 -0.0026981 -0.0004546 -0.0011955 0.0001404 0.0005746 0.0008139 -0.0005251 0.0002091 -0.0011819 0.0000765 -0.0024914 0.0002854 -0.0018030 -0.0001171 -0.0010197 0.0002032 -0.0006366 0.0004679 -0.0008637
0.0008010 -0.0025220 -0.0005334 -0.0016366 0.0001402 0.0001143 0.0008565 -0.0007729 0.0002017 -0.0014696 0.0000981 -0.0024717 0.0003525 -0.0017155 -0.0000569 -0.0010664 0.0001683 -0.0006126 0.0004631 -0.0008965
-0.0003405 -0.0009127 -0.0004945 -0.0014421 0.0001701 0.0002425 0.0008559 -0.0006483 0.0002099 -0.0011973 0.0001113 -0.0021145 0.0003538 -0.0014553 -0.0001198 -0.0009321 0.0001410 -0.0004987 0.0004135 -0.0008476
-0.0005911 -0.0009136 -0.0004464 -0.0010827 0.0001562 0.0005099 0.0008295 -0.0003279 0.0002150 -0.0006858 0.0001270 -0.0016064 0.0003644 -0.0010758 -0.0001691 -0.0007461 0.0001431 -0.0003737 0.0003826 -0.0007773
-0.0008419 -0.0010578 -0.0004645 -0.0010645 0.0001236 0.0004527 0.0008207 -0.0002760 0.0002283 -0.0007464 0.0001297 -0.0017335 0.0003716 -0.0011545 -0.0001814 -0.0008800 0.0001430 -0.0004595 0.0003872 -0.0008769
-0.0013806 -0.0004289 -0.0004726 -0.0013065 0.0001029 0.0001686 0.0008340 -0.0005305 0.0002605 -0.0011256 0.0001366 -0.0020815 0.0003811 -0.0014345 -0.0001812 -0.0010890 0.0001466 -0.0005314 0.0003991 -0.0008950
-0.0012344 -0.0006337 -0.0004480 -0.0013055 0.0000958 0.0000587 0.0008543 -0.0005283 0.0002955 -0.0010306 0.0001791 -0.0017558 0.0004322 -0.0012393 -0.0001652 -0.0009811 0.0001715 -0.0004017 0.0003809 -0.0007242
0.0006513 -0.0020913 -0.0004285 -0.0010403 0.0000873 0.0001801 0.0008564 -0.0002744 0.0003144 -0.0006886 0.0002316 -0.0011426 0.0004620 -0.0008381 -0.0001441 -0.0006896 0.0001671 -0.0001959 0.0003278 -0.0004774
0.0015084 -0.0022029 -0.0004248 -0.0007978 0.0000822 0.0003117 0.0008388 -0.0001162 0.0003131 -0.0006046 0.0002581 -0.0009639 0.0004605 -0.0007785 -0.0001532 -0.0007229 0.0001519 -0.0002247 0.0003060 -0.0004975
0.0010470 -0.0018306 -0.0004008 -0.0009042 0.0000755 0.0001604 0.0008200 -0.0002941 0.0003166 -0.0008836 0.0002586 -0.0011969 0.0004494 -0.0010204 -0.0001657 -0.0009322 0.0001595 -0.0003319 0.0003212 -0.0006242
0.0010116 -0.0020493 -0.0003257 -0.0010566 0.0000861 -0.0000173 0.0008162 -0.0004573 0.0003306 -0.0009727 0.0002652 -0.0011058 0.0004502 -0.0009862 -0.0001493 -0.0008012 0.0001618 -0.0002273 0.0003260 -0.0005216
0.0006539 -0.0016199 -0.0002808 -0.0008747 0.0001488 0.0000753 0.0008006 -0.0004709 0.0003102 -0.0010772 0.0002904 -0.0007124 0.0004731 -0.0006833 0.0000322 -0.0001727 0.0002036 0.0001687 0.0002993 -0.0002832
-0.0004279 0.0002617 -0.0002934 -0.0006700 0.0004565 0.0004536 0.0007807 -0.0005097 0.0003035 -0.0010006 0.0002621 -0.0002865 0.0004446 -0.0004768 0.0000725 0.0000266 0.0002992 0.0007161 0.0002180 -0.0001502
-0.0012391 0.0016520 -0.0002785 -0.0007491 0.0006772 0.0004570 0.0007749 -0.0006440 0.0003420 -0.0009275 0.0002038 -0.0005071 0.0003933 -0.0007073 -0.0000736 -0.0005147 0.0003869 0.0008320 0.0002046 -0.0002124
-0.0010865 0.0007319 -0.0002390 -0.0009720 0.0006027 -0.0000531 0.0007580 -0.0009022 0.0003598 -0.0012113 0.0002120 -0.0008910 0.0004165 -0.0008978 -0.0000692 -0.0006482 0.0003825 0.0007517 0.0002618 -0.0002298
-0.0009745 0.0001796 -0.0002160 -0.0008786 0.0005217 -0.0002439 0.0007358 -0.0009207 0.0003599 -0.0012105 0.0002440 -0.0006391 0.0004433 -0.0006951 -0.0000495 -0.0003976 0.0003632 0.0008530 0.0002680 -0.0001300
-0.0006302 0.0004906 -0.0002066 -0.0005126 0.0004404 -0.0001085 0.0007120 -0.0006255 0.0003583 -0.0008171 0.0002464 -0.0001933 0.0004175 -0.0003900 -0.0001080 -0.0001968 0.0003900 0.0010870 0.0002372 0.0000564
-0.0002361 0.0000547 -0.0002333 -0.0001871 0.0003257 0.0001058 0.0006581 -0.0002220 0.0003334 -0.0003469 0.0002562 0.0000693 0.0004058 -0.0002309 -0.0001421 -0.0002281 0.0003706 0.0011181 0.0002131 0.0000508
0.0016085 -0.0023825 -0.0002886 -0.0004085 0.0001897 -0.0001011 0.0006223 -0.0002032 0.0003011 -0.0004619 0.0002571 -0.0002068 0.0004121 -0.0003998 -0.0000807 -0.0003600 0.0003081 0.0008496 0.0002183 -0.0001402
0.0020008 -0.0020616 -0.0002754 -0.0007568 0.0001411 -0.0004054 0.0006422 -0.0003704 0.0002870 -0.0007325 0.0002506 -0.0004251 0.0004004 -0.0004971 -0.0000773 -0.0003991 0.0002406 0.0006511 0.0002100 -0.0002458
0.0014276 -0.0012560 -0.0001941 -0.0005938 0.0001466 -0.0002755 0.0006686 -0.0001618 0.0002918 -0.0004810 0.0002650 -0.0001404 0.0003849 -0.0002816 -0.0001540 -0.0003221 0.0001733 0.0006674 0.0001708 -0.0001980
0.0010826 -0.0019968 -0.0001102 -0.0002967 0.0001280 0.0000441 0.0006638 0.0002260 0.0002899 -0.0000140 0.0002664 0.0002765 0.0003594 0.0000365 -0.0002139 -0.0000919 0.0001673 0.0008339 0.0001152 0.0000091
-0.0010389 0.0002480 -0.0000990 -0.0000544 0.0001060 0.0003258 0.0006350 0.0004558 0.0002620 0.0001203 0.0002503 0.0002496 0.0003302 0.0000078 -0.0002448 -0.0001522 0.0001845 0.0007786 0.0000982 -0.0000045
-0.0026889 0.0017860 -0.0001078 -0.0002154 0.0000839 0.0002281 0.0006140 0.0002890 0.0002499 -0.0001665 0.0002266 -0.0001534 0.0002996 -0.0003079 -0.0002719 -0.0004008 0.0001798 0.0006171 0.0001137 -0.0001714
-0.0019051 0.0003265 -0.0000834 -0.0004245 0.0000763 0.0000818 0.0006132 0.0001324 0.0002589 -0.0002632 0.0002165 -0.0001764 0.0002831 -0.0003022 -0.0002813 -0.0003189 0.0001705 0.0006927 0.0001080 -0.0001313
-0.0008813 -0.0001873 -0.0000896 -0.0002246 0.0000788 0.0002307 0.0006043 0.0002981 0.0002531 -0.0000151 0.0002191 0.0001691 0.0002848 -0.0000129 -0.0002747 -0.0000608 0.0001882 0.0008479 0.0000806 0.0000296
-0.0004465 -0.0000373 -0.0001184 0.0000727 0.0000704 0.0004726 0.0005741 0.0005857 0.0002282 0.0003456 0.0002223 0.0006075 0.0002685 0.0003604 -0.0002783 0.0002661 0.0001845 0.0010128 0.0000326 0.0002534
0.0005698 -0.0006549 -0.0001363 0.0003879 0.0000544 0.0007837 0.0005303 0.0009376 0.0001955 0.0006324 0.0002175 0.0007737 0.0002410 0.0004763 -0.0003088 0.0002502 0.0001432 0.0009690 -0.0000004 0.0002515
0.0008679 -0.0007857 -0.0001386 0.0002402 0.0000352 0.0007082 0.0004939 0.0007968 0.0001793 0.0003457 0.0001786 0.0003619 0.0002010 0.0001442 -0.0003357 -0.0000924 0.0001344 0.0007231 0.0000109 0.0000625
0.0011270 -0.0016208 -0.0001192 -0.0001516 0.0000294 0.0004043 0.0004849 0.0004115 0.0001848 -0.0000348 0.0001511 0.0000410 0.0001663 -0.0000552 -0.0003408 -0.0001763 0.0001273 0.0006880 0.0000235 0.0000474
0.0006121 -0.0013133 -0.0000836 -0.0001181 0.0000434 0.0004432 0.0004815 0.0004563 0.0001823 0.0000967 0.0001616 0.0002593 0.0001532 0.0001505 -0.0003404 0.0000239 0.0001205 0.0008568 -0.0000016 0.0001767
0.0000687 -0.0004424 -0.0000642 0.0001235 0.0000536 0.0006641 0.0004623 0.0006993 0.0001605 0.0004019 0.0001648 0.0006600 0.0001350 0.0004897 -0.0003430 0.0003245 0.0001073 0.0010787 -0.0000360 0.0003587
-0.0001576 -0.0004306 -0.0000579 0.0004039 0.0000455 0.0009349 0.0004180 0.0010248 0.0001208 0.0007896 0.0001640 0.0010310 0.0001273 0.0007449 -0.0003609 0.0004062 0.0000957 0.0011230 -0.0000682 0.0003971
-0.0015238 0.0006498 -0.0000713 0.0003488 0.0000259 0.0008870 0.0003780 0.0009541 0.0000925 0.0006086 0.0001364 0.0007384 0.0000981 0.0005242 -0.0003843 0.0001715 0.0000794 0.0009486 -0.0000614 0.0002636
-0.0024550 0.0015882 -0.0000604 0.0000693 0.0000138 0.0006177 0.0003619 0.0006217 0.0000921 0.0001691 0.0001121 0.0002868 0.0000601 0.0002461 -0.0003942 0.0000547 0.0000624 0.0008863 -0.0000518 0.0002256
-0.0007967 -0.0000219 -0.0000387 0.0000641 0.0000216 0.0006144 0.0003539 0.0006238 0.0000902 0.0002491 0.0001186 0.0004405 0.0000463 0.0003932 -0.0003920 0.0002025 0.0000680 0.0009874 -0.0000755 0.0003303
0.0004896 -0.0007375 -0.0000649 0.0003146 0.0000261 0.0008242 0.0003341 0.0008611 0.0000683 0.0005461 0.0001213 0.0008213 0.0000307 0.0007218 -0.0003774 0.0005008 0.0000592 0.0011237 -0.0001109 0.0005045
0.0005347 -0.0001673 -0.0000921 0.0006103 0.0000206 0.0011024 0.0003055 0.0011091 0.0000497 0.0006896 0.0001199 0.0008510 0.0000100 0.0007399 -0.0004020 0.0004252 0.0000206 0.0010548 -0.0001022 0.0004829
0.0009170 -0.0010257 -0.0000649 0.0004255 0.0000133 0.0009586 0.0002795 0.0009051 0.0000472 0.0003807 0.0001009 0.0004239 -0.0000118 0.0004131 -0.0004357 0.0000353 -0.0000114 0.0007912 -0.0000650 0.0003262
0.0008250 -0.0010561 -0.0000340 0.0001269 0.0000070 0.0006482 0.0002763 0.0006265 0.0000570 0.0001494 0.0000891 0.0002915 -0.0000121 0.0003605 -0.0004151 0.0000023 -0.0000186 0.0007174 -0.0000417 0.0003620
0.0002874 -0.0004020 -0.0000116 0.0002627 0.0000149 0.0007265 0.0002761 0.0007500 0.0000641 0.0003215 0.0001025 0.0005793 -0.0000061 0.0006191 -0.0003766 0.0002923 -0.0000339 0.0008831 -0.0000483 0.0005371
-0.0006967 0.0000914 -0.0000058 0.0004936 0.0000227 0.0009574 0.0002472 0.0010038 0.0000441 0.0006267 0.0001099 0.0009684 -0.0000240 0.0009513 -0.0003630 0.0006414 -0.0000695 0.0010695 -0.0001046 0.0007578
-0.0014168 0.0011390 -0.0000356 0.0007906 0.0000064 0.0012600 0.0002054 0.0013337 0.0000121 0.0009139 0.0001128 0.0010919 -0.0000488 0.0010371 -0.0003991 0.0005842 -0.0000913 0.0010558 -0.0001356 0.0007299
-0.0007391 0.0006694 -0.0000598 0.0006361 -0.0000263 0.0011491 0.0001706 0.0011739 -0.0000092 0.0006319 0.0000889 0.0006435 -0.0000904 0.0006929 -0.0004244 0.0002272 -0.0000672 0.0008555 -0.0001275 0.0005196
-0.0005485 -0.0002459 -0.0000674 0.0002528 -0.0000392 0.0007973 0.0001568 0.0007498 -0.0000075 0.0002029 0.0000595 0.0002495 -0.0001177 0.0004309 -0.0004145 0.0001232 -0.0000391 0.0007898 -0.0001075 0.0004774
-0.0009280 0.0003852 -0.0000743 0.0002684 -0.0000337 0.0007706 0.0001480 0.0007286 -0.0000052 0.0002512 0.0000594 0.0003505 -0.0001235 0.0005405 -0.0004035 0.0002895 -0.0000137 0.0008749 -0.0001171 0.0005865
0.0001578 0.0001118 -0.0000828 0.0004329 -0.0000448 0.0009463 0.0001240 0.0009283 -0.0000169 0.0005290 0.0000536 0.0006408 -0.0001426 0.0008060 -0.0003957 0.0005750 -0.0000410 0.0010910 -0.0001385 0.0007797
0.0010626 -0.0008449 -0.0001032 0.0005241 -0.0000514 0.0011041 0.0000897 0.0010192 -0.0000417 0.0005126 0.0000424 0.0004969 -0.0001740 0.0007047 -0.0003790 0.0004801 -0.0000944 0.0010586 -0.0001295 0.0007030
0.0007866 -0.0008513 -0.0001290 0.0002444 -0.0000493 0.0008912 0.0000683 0.0007234 -0.0000611 0.0000723 0.0000252 -0.0000060 -0.0002070 0.0002998 -0.0003577 0.0001782 -0.0000751 0.0007766 -0.0001164 0.0004578
0.0001507 -0.0004380 -0.0001071 -0.0000455 -0.0000433 0.0006308 0.0000674 0.0004858 -0.0000583 -0.0001051 0.0000198 -0.0001091 -0.0002131 0.0002159 -0.0003357 0.0002025 -0.0000521 0.0007299 -0.0001133 0.0004384
-0.0000382 -0.0003053 -0.0000865 0.0000642 -0.0000373 0.0006997 0.0000644 0.0006490 -0.0000670 0.0001516 0.0000342 0.0001829 -0.0002083 0.0004572 -0.0003252 0.0004023 -0.0000781 0.0008517 -0.0001152 0.0005505
-0.0005844 0.0002402 -0.0001013 0.0003728 -0.0000511 0.0009303 0.0000376 0.0009683 -0.0000960 0.0005619 0.0000735 0.0006795 -0.0001703 0.0008285 -0.0003386 0.0003817 -0.0000510 0.0010773 -0.0000805 0.0006660
-0.0015729 0.0007936 -0.0001252 0.0002901 -0.0000498 0.0009156 0.0000121 0.0008854 -0.0001163 0.0003284 0.0000981 0.0004484 -0.0001485 0.0006414 -0.0003470 -0.0000450 0.0000067 0.0010447 -0.0000100 0.0005884
-0.0019673 0.0008621 -0.0001133 -0.0000930 -0.0000288 0.0005852 0.0000173 0.0004488 -0.0001006 -0.0002518 0.0000897 -0.0001973 -0.0001569 0.0001747 -0.0003439 -0.0003566 -0.0000096 0.0008295 0.0000296 0.0004283
-0.0003142 -0.0002747 -0.0000905 -0.0001646 -0.0000176 0.0004274 0.0000422 0.0003315 -0.0000730 -0.0003031 0.0000931 -0.0002346 -0.0001489 0.0001754 -0.0003131 -0.0002363 -0.0000609 0.0007747 0.0000150 0.0004141
0.0007183 -0.0009270 -0.0001054 0.0000194 -0.0000156 0.0005427 0.0000546 0.0005526 -0.0000616 -0.0000042 0.0000706 -0.0000382 -0.0001719 0.0003613 -0.0003009 0.0000858 -0.0000964 0.0007609 -0.0000448 0.0004861
0.0002716 -0.0001199 -0.0001410 0.0001744 -0.0000296 0.0006620 0.0000524 0.0007211 -0.0000711 0.0000811 0.0000623 -0.0001521 -0.0001511 0.0002979 -0.0003161 -0.0001967 -0.0001274 0.0005922 0.0000032 0.0003631
0.0006509 -0.0002927 -0.0001686 -0.0001166 -0.0000619 0.0004245 0.0000678 0.0005262 -0.0000701 -0.0002003 0.0000871 -0.0005432 -0.0000981 -0.0000283 -0.0003179 -0.0008008 -0.0001659 0.0002729 0.0000944 0.0000566
0.0012138 -0.0014264 -0.0002101 -0.0005223 -0.0001066 0.0000861 0.0000948 0.0003441 -0.0000512 -0.0002613 0.0000847 -0.0006749 -0.0000787 -0.0001165 -0.0002677 -0.0008997 -0.0001912 0.0001145 0.0001587 0.0000346
0.0007272 -0.0010226 -0.0003028 -0.0005875 -0.0001373 0.0000313 0.0001202 0.0004978 -0.0000637 -0.0000135 0.0001040 -0.0003919 -0.0000220 0.0001615 -0.0001895 -0.0007740 -0.0001904 0.0001574 0.0002254 0.0002558
-0.0004639 0.0003644 -0.0003450 -0.0004268 -0.0001465 0.0001811 0.0001379 0.0008243 -0.0000845 0.0003846 0.0001423 -0.0000171 0.0000354 0.0004266 -0.0001805 -0.0007848 -0.0001936 0.0001831 0.0002303 0.0002417
-0.0007740 -0.0001182 -0.0003285 -0.0005397 -0.0001524 0.0001435 0.0001454 0.0007991 -0.0000769 0.0002582 0.0000972 -0.0004942 -0.0000093 0.0001352 -0.0002076 -0.0009031 -0.0001911 0.0000670 0.0002456 -0.0000043
-0.0012257 -0.0004077 -0.0003344 -0.0008891 -0.0001421 -0.0000964 0.0001698 0.0004767 -0.0000636 -0.0001941 0.0000509 -0.0011807 -0.0000709 -0.0002556 -0.0002022 -0.0008539 -0.0001601 -0.0000122 0.0002495 -0.0000997
-0.0018632 0.0004743 -0.0003259 -0.0008485 -0.0001283 -0.0001141 0.0001910 0.0004378 -0.0000585 -0.0001471 0.0000705 -0.0011124 -0.0000571 -0.0001578 -0.0001830 -0.0006865 -0.0001338 0.0001202 0.0002339 0.0001000
-0.0018016 0.0005645 -0.0003236 -0.0006145 -0.0001105 0.0001033 0.0001957 0.0006583 -0.0000708 0.0001456 0.0000889 -0.0007882 -0.0000258 0.0001476 -0.0001505 -0.0004525 -0.0001397 0.0003630 0.0002515 0.0003859
0.0004096 -0.0012581 -0.0003831 -0.0005918 -0.0001000 0.0002749 0.0002187 0.0008634 -0.0000821 0.0001865 0.0000906 -0.0008860 0.0000215 0.0001244 -0.0001638 -0.0007680 -0.0001638 0.0001903 0.0002380 0.0001496
0.0015116 -0.0022578 -0.0004345 -0.0008736 -0.0001159 0.0001369 0.0002630 0.0007832 -0.0000640 -0.0000497 0.0000810 -0.0012761 0.0000440 -0.0001549 -0.0001935 -0.0011931 -0.0001621 -0.0001797 0.0001962 -0.0002084
0.0009928 -0.0018079 -0.0004201 -0.0010254 -0.0001169 0.0000178 0.0002920 0.0006703 -0.0000371 -0.0000878 0.0000785 -0.0013117 0.0000276 -0.0002002 -0.0001694 -0.0010564 -0.0001612 -0.0002024 0.0001875 -0.0000931
0.0012699 -0.0015653 -0.0003763 -0.0009240 -0.0000961 0.0001145 0.0002931 0.0008084 -0.0000394 0.0001758 0.0000726 -0.0010973 0.0000127 -0.0000344 -0.0001680 -0.0008497 -0.0001672 -0.0000594 0.0001500 0.0001108
0.0015886 -0.0020818 -0.0004056 -0.0008027 -0.0001297 0.0002310 0.0002817 0.0011086 -0.0000680 0.0004875 0.0000381 -0.0010917 -0.0000216 -0.0000678 -0.0001833 -0.0010440 -0.0002009 -0.0001794 0.0000804 -0.0000765
0.0000643 -0.0011562 -0.0005345 -0.0010814 -0.0002514 0.0000010 0.0002879 0.0011455 -0.0000784 0.0004345 -0.0000206 -0.0014387 -0.0000694 -0.0003866 -0.0002173 -0.0014945 -0.0002492 -0.0005689 0.0000488 -0.0004024
-0.0022802 0.0009520 -0.0006104 -0.0015090 -0.0003253 -0.0003033 0.0003246 0.0010240 -0.0000680 0.0003028 -0.0000361 -0.0015658 -0.0000790 -0.0004607 -0.0002187 -0.0015438 -0.0002772 -0.0006278 0.0000657 -0.0003628
-0.0021659 0.0002734 -0.0006096 -0.0015193 -0.0002984 -0.0002195 0.0003498 0.0011664 -0.0000623 0.0005550 -0.0000077 -0.0012458 -0.0000536 -0.0002089 -0.0001893 -0.0012959 -0.0002643 -0.0004079 0.0000830 -0.0001516
-0.0019778 0.0000754 -0.0006015 -0.0011701 -0.0002534 0.0001176 0.0003505 0.0014780 -0.0000624 0.0010153 0.0000243 -0.0007354 -0.0000246 0.0001558 -0.0002027 -0.0010972 -0.0002179 -0.0003835 0.0000817 -0.0000333
-0.0022350 0.0010955 -0.0005647 -0.0009647 -0.0002021 0.0003349 0.0003457 0.0014618 -0.0000488 0.0008877 0.0000446 -0.0007633 -0.0000221 0.0001668 -0.0002105 -0.0010956 -0.0002177 -0.0005140 0.0000885 -0.0000876
-0.0017998 0.0005284 -0.0005165 -0.0010661 -0.0001515 0.0003358 0.0003437 0.0012351 -0.0000341 0.0005098 0.0000549 -0.0009581 -0.0000343 0.0000461 -0.0002172 -0.0010543 -0.0002237 -0.0005629 0.0000741 -0.0000448
0.0007185 -0.0017813 -0.0004561 -0.0008860 -0.0001005 0.0005494 0.0003313 0.0012727 -0.0000339 0.0006408 0.0000769 -0.0006307 -0.0000604 0.0002592 -0.0002141 -0.0006529 -0.0002118 -0.0003330 0.0000112 0.0002249
0.0016581 -0.0017979 -0.0004214 -0.0004961 -0.0000413 0.0009563 0.0002933 0.0014673 -0.0000525 0.0009323 0.0000895 -0.0001545 -0.0000962 0.0006078 -0.0001874 -0.0001768 -0.0001738 0.0000015 -0.0000632 0.0004115
0.0010327 -0.0009245 -0.0004225 -0.0004254 -0.0000060 0.0011211 0.0002548 0.0014677 -0.0000755 0.0008318 0.0000687 -0.0002756 -0.0001411 0.0005230 -0.0001960 -0.0001780 -0.0001573 0.0000130 -0.0000923 0.0003451
0.0009586 -0.0010986 -0.0003749 -0.0006061 0.0000068 0.0010259 0.0002382 0.0012863 -0.0000777 0.0005602 0.0000320 -0.0006563 -0.0001990 0.0002292 -0.0002194 -0.0002924 -0.0001166 -0.0000228 -0.0000976 0.0003632
0.0005387 -0.0009518 -0.0003427 -0.0005581 0.0000185 0.0010730 0.0002321 0.0013090 -0.0000711 0.0006727 0.0000155 -0.0005310 -0.0002260 0.0003172 -0.0002344 -0.0001977 -0.0001037 0.0000504 -0.0000989 0.0004960
-0.0006961 0.0001006 -0.0003462 -0.0002216 0.0000109 0.0013317 0.0002056 0.0015477 -0.0000794 0.0009963 0.0000271 -0.0001468 -0.0002182 0.0006206 -0.0002313 -0.0000739 -0.0001795 0.0000761 -0.0000869 0.0005234
-0.0020779 0.0014596 -0.0003566 -0.0002118 -0.0000023 0.0013380 0.0001804 0.0015404 -0.0000971 0.0009105 0.0000169 -0.0002472 -0.0002312 0.0005545 -0.0002187 -0.0001804 -0.0001768 -0.0000906 -0.0000676 0.0004291
-0.0019447 0.0006872 -0.0003568 -0.0004983 -0.0000214 0.0010960 0.0001774 0.0013126 -0.0000995 0.0006102 -0.0000031 -0.0005960 -0.0002522 0.0002893 -0.0002289 -0.0003712 -0.0001619 -0.0002447 -0.0000732 0.0003263
-0.0018421 0.0002486 -0.0003665 -0.0004761 -0.0000387 0.0010612 0.0001794 0.0013613 -0.0000962 0.0007528 -0.0000025 -0.0004172 -0.0002521 0.0004238 -0.0002377 -0.0002514 -0.0001918 -0.0001808 -0.0001071 0.0003563
-0.0017898 0.0011164 -0.0004016 -0.0002200 -0.0000461 0.0012363 0.0001723 0.0016334 -0.0001034 0.0011144 0.0000031 -0.0000379 -0.0002301 0.0006947 -0.0002313 -0.0001489 -0.0002002 -0.0001973 -0.0001136 0.0003554
-0.0013468 0.0006389 -0.0004129 -0.0002740 -0.0000563 0.0012085 0.0001595 0.0016220 -0.0001159 0.0010267 0.0000019 -0.0001437 -0.0002278 0.0006182 -0.0002239 -0.0003015 -0.0001849 -0.0002660 -0.0000911 0.0002879
0.0009651 -0.0020460 -0.0004133 -0.0005215 -0.0000657 0.0009976 0.0001570 0.0013702 -0.0001206 0.0007014 0.0000034 -0.0004398 -0.0002531 0.0003941 -0.0002131 -0.0004265 -0.0001250 -0.0002652 -0.0000504 0.0003331
0.0019053 -0.0021592 -0.0004165 -0.0004688 -0.0000831 0.0009712 0.0001578 0.0013786 -0.0001251 0.0008313 0.0000085 -0.0002745 -0.0002533 0.0004852 -0.0002079 -0.0004043 -0.0001001 -0.0001860 -0.0000399 0.0004437
0.0014432 -0.0011770 -0.0004644 -0.0003331 -0.0001281 0.0010644 0.0001488 0.0016411 -0.0001436 0.0012073 -0.0000039 -0.0000104 -0.0002474 0.0006343 -0.0002148 -0.0004742 -0.0001356 -0.0001321 -0.0000513 0.0004507
0.0013958 -0.0014811 -0.0004407 -0.0005059 -0.0001729 0.0009626 0.0001387 0.0016234 -0.0001564 0.0011234 -0.0000301 -0.0002295 -0.0002606 0.0004540 -0.0002199 -0.0007241 -0.0001112 -0.0002587 -0.0000084 0.0003302
0.0005982 -0.0010978 -0.0003972 -0.0007590 -0.0001853 0.0007184 0.0001447 0.0013529 -0.0001463 0.0007957 -0.0000337 -0.0005517 -0.0002690 0.0002315 -0.0002104 -0.0008805 -0.0000935 -0.0002948 0.0000568 0.0002836
-0.0013772 0.0005982 -0.0004054 -0.0006839 -0.0001858 0.0007019 0.0001522 0.0013678 -0.0001418 0.0009190 -0.0000087 -0.0003303 -0.0002502 0.0004034 -0.0001862 -0.0007229 -0.0000877 -0.0001579 0.0000701 0.0003961
-0.0033518 0.0026363 -0.0003961 -0.0004350 -0.0001876 0.0009011 0.0001500 0.0015888 -0.0001516 0.0011719 0.0000101 -0.0001240 -0.0002326 0.0005349 -0.0001758 -0.0007014 -0.0000700 -0.0001713 0.0000665 0.0003631
-0.0033812 0.0018698 -0.0003889 -0.0005102 -0.0001956 0.0008434 0.0001427 0.0014988 -0.0001574 0.0010309 0.0000053 -0.0003008 -0.0002309 0.0003654 -0.0001712 -0.0009099 -0.0000563 -0.0003088 0.0001047 0.0002113
-0.0031049 0.0010064 -0.0003980 -0.0006901 -0.0002113 0.0006181 0.0001426 0.0012441 -0.0001527 0.0008041 0.0000028 -0.0004459 -0.0002314 0.0002508 -0.0001438 -0.0009725 -0.0000136 -0.0002872 0.0001573 0.0002274
-0.0022844 0.0015258 -0.0004531 -0.0006352 -0.0002208 0.0005884 0.0001487 0.0013013 -0.0001537 0.0009473 0.0000096 -0.0002735 -0.0002137 0.0003731 -0.0000875 -0.0008849 -0.0000317 -0.0000945 0.0001894 0.0002672
-0.0011032 0.0005071 -0.0004846 -0.0006010 -0.0002537 0.0005559 0.0001499 0.0013996 -0.0001739 0.0009922 0.0000234 -0.0002725 -0.0001173 0.0004066 -0.0000315 -0.0012225 -0.0000902 -0.0002204 0.0002103 0.0000254
0.0010017 -0.0025289 -0.0005228 -0.0009135 -0.0002788 0.0002610 0.0001789 0.0012229 -0.0001863 0.0006883 0.0000559 -0.0005241 -0.0000145 0.0002725 0.0000059 -0.0016191 -0.0001239 -0.0006077 0.0002092 -0.0003171
0.0014459 -0.0027015 -0.0005272 -0.0011843 -0.0002596 -0.0000011 0.0002180 0.0010028 -0.0001686 0.0004955 0.0000594 -0.0006765 0.0000150 0.0002034 0.0000516 -0.0015457 -0.0001710 -0.0008370 0.0002373 -0.0003948
0.0006905 -0.0016784 -0.0004849 -0.0010521 -0.0002358 0.0000413 0.0002296 0.0010637 -0.0001686 0.0006847 0.0001041 -0.0003879 0.0000790 0.0004257 0.0001118 -0.0013914 -0.0001486 -0.0007073 0.0002867 -0.0002961
0.0005432 -0.0020683 -0.0004373 -0.0010975 -0.0002058 0.0000035 0.0002373 0.0010224 -0.0001765 0.0005845 0.0001564 -0.0003881 0.0001288 0.0003806 0.0001414 -0.0014394 -0.0001057 -0.0006407 0.0003123 -0.0002454
-0.0000154 -0.0019391 -0.0003593 -0.0012664 -0.0001511 -0.0001912 0.0002461 0.0006672 -0.0001439 0.0001514 0.0001689 -0.0007961 0.0001301 0.0000590 0.0001715 -0.0015024 -0.0001161 -0.0008975 0.0003413 -0.0002779
-0.0010263 -0.0011894 -0.0002844 -0.0011806 -0.0000682 -0.0002712 0.0002605 0.0004288 -0.0001039 -0.0000189 0.0002086 -0.0007853 0.0001581 0.0001044 0.0002114 -0.0013168 -0.0001264 -0.0009584 0.0003540 -0.0002575
-0.0019946 -0.0002504 -0.0002383 -0.0008932 -0.0000057 -0.0001216 0.0002857 0.0005520 -0.0000904 0.0001706 0.0002465 -0.0004499 0.0001971 0.0004061 0.0002313 -0.0010718 -0.0001213 -0.0008533 0.0003338 -0.0002331
-0.0020126 -0.0007354 -0.0002220 -0.0008710 0.0000162 -0.0000506 0.0003108 0.0006063 -0.0000714 0.0001521 0.0002657 -0.0004950 0.0002200 0.0003338 0.0002387 -0.0011772 -0.0000720 -0.0009938 0.0003174 -0.0004389
-0.0021557 -0.0011944 -0.0002339 -0.0011161 0.0000159 -0.0002680 0.0003488 0.0004120 -0.0000439 -0.0001177 0.0002845 -0.0007781 0.0002598 0.0000651 0.0002638 -0.0014096 -0.0000198 -0.0011231 0.0003488 -0.0006126
-0.0018770 -0.0007698 -0.0002554 -0.0011682 0.0000221 -0.0004044 0.0003981 0.0003672 -0.0000211 -0.0001032 0.0003271 -0.0006536 0.0003158 0.0001847 0.0003200 -0.0012433 0.0000511 -0.0007990 0.0004070 -0.0004195
-0.0011248 -0.0012415 -0.0002454 -0.0009521 0.0000501 -0.0002588 0.0004287 0.0005717 -0.0000093 0.0001697 0.0003697 -0.0002974 0.0003629 0.0004984 0.0003652 -0.0009705 0.0001310 -0.0004257 0.0004559 -0.0001463
0.0012058 -0.0037050 -0.0002438 -0.0008628 0.0000690 -0.0002076 0.0004382 0.0005827 -0.0000136 0.0000727 0.0003896 -0.0003626 0.0003753 0.0004368 0.0003782 -0.0010526 0.0001728 -0.0004237 0.0004658 -0.0001934
0.0021559 -0.0040202 -0.0002375 -0.0009626 0.0000774 -0.0003382 0.0004483 0.0003450 0.0000028 -0.0002566 0.0003796 -0.0007426 0.0003712 0.0001193 0.0003589 -0.0012935 0.0001496 -0.0006231 0.0004435 -0.0003615
0.0017446 -0.0033544 -0.0002241 -0.0009613 0.0001030 -0.0003240 0.0004742 0.0002965 0.0000272 -0.0002374 0.0003835 -0.0006873 0.0004024 0.0001927 0.0003737 -0.0012206 0.0002128 -0.0005719 0.0004803 -0.0001811
0.0017110 -0.0034060 -0.0001849 -0.0007726 0.0001484 -0.0000291 0.0004891 0.0005418 0.0000282 0.0000189 0.0004060 -0.0003627 0.0004130 0.0004656 0.0003981 -0.0009767 0.0002494 -0.0003458 0.0005071 0.0000590
0.0012638 -0.0030185 -0.0001793 -0.0007029 0.0001572 0.0001589 0.0004771 0.0006140 0.0000207 -0.0000008 0.0003668 -0.0005477 0.0003363 0.0002586 0.0003370 -0.0011042 0.0001705 -0.0005723 0.0004283 -0.0001133
-0.0004769 -0.0014505 -0.0002238 -0.0008777 0.0001207 0.0000589 0.0004581 0.0003660 0.0000141 -0.0003070 0.0003238 -0.0009672 0.0002701 -0.0001185 0.0002820 -0.0013626 0.0001657 -0.0007642 0.0003757 -0.0003141
-0.0027480 0.0007782 -0.0002174 -0.0009067 0.0001010 -0.0000098 0.0004736 0.0003038 0.0000223 -0.0002733 0.0003330 -0.0008507 0.0002765 -0.0000010 0.0002786 -0.0012390 0.0001809 -0.0005563 0.0003655 -0.0001851
-0.0026226 -0.0000327 -0.0001972 -0.0007006 0.0000911 0.0000724 0.0004941 0.0005730 0.0000414 0.0001436 0.0003524 -0.0003989 0.0003032 0.0003725 0.0002651 -0.0009658 0.0001621 -0.0003576 0.0003250 -0.0000494
-0.0024120 -0.0004786 -0.0002205 -0.0005563 0.0000779 0.0001456 0.0004852 0.0006794 0.0000505 0.0002287 0.0003576 -0.0003739 0.0002887 0.0003793 0.0002341 -0.0009661 0.0001590 -0.0003430 0.0003089 -0.0000455
-0.0025714 0.0007376 -0.0002377 -0.0005887 0.0000635 0.0000573 0.0004796 0.0005027 0.0000554 0.0000037 0.0003453 -0.0006304 0.0002649 0.0001774 0.0002144 -0.0010953 0.0001789 -0.0004029 0.0003304 0.0000098
-0.0019601 -0.0000537 -0.0002384 -0.0006341 0.0000548 0.0000123 0.0004903 0.0005103 0.0000593 0.0000882 0.0003322 -0.0004998 0.0002781 0.0003008 0.0002086 -0.0009908 0.0001793 -0.0003098 0.0003359 0.0001674
0.0016115 -0.0034414 -0.0002726 -0.0004812 0.0000480 0.0001834 0.0004917 0.0007630 0.0000528 0.0003913 0.0003321 -0.0001878 0.0002877 0.0005117 0.0002032 -0.0008314 0.0001742 -0.0002625 0.0003195 0.0002454
0.0029775 -0.0036463 -0.0003128 -0.0004740 0.0000373 0.0001887 0.0004785 0.0007381 0.0000416 0.0002915 0.0003132 -0.0003532 0.0002570 0.0003656 0.0001875 -0.0008730 0.0001382 -0.0003609 0.0003011 0.0001580
0.0020172 -0.0025710 -0.0003085 -0.0006311 0.0000335 0.0000516 0.0004770 0.0005198 0.0000460 0.0000165 0.0003141 -0.0006196 0.0002496 0.0001889 0.0001616 -0.0010111 0.0001356 -0.0003978 0.0003201 0.0001142
0.0020128 -0.0026429 -0.0002228 -0.0005786 0.0000553 0.0000855 0.0004744 0.0005493 0.0000441 0.0001013 0.0003468 -0.0003525 0.0002783 0.0003997 0.0001640 -0.0008364 0.0001454 -0.0002507 0.0003455 0.0003202
0.0019482 -0.0027708 -0.0001973 -0.0003495 0.0000779 0.0003250 0.0004757 0.0008440 0.0000318 0.0003285 0.0003553 -0.0001923 0.0002860 0.0005128 0.0001450 -0.0007653 0.0001312 -0.0002595 0.0003266 0.0003539
0.0002983 -0.0015658 -0.0002410 -0.0004204 0.0000712 0.0003569 0.0004848 0.0008312 0.0000324 0.0002039 0.0003415 -0.0004385 0.0002734 0.0003040 0.0001021 -0.0009673 0.0001159 -0.0004286 0.0003093 0.0001368
-0.0024130 0.0009301 -0.0002162 -0.0006999 0.0000713 0.0002092 0.0004930 0.0005614 0.0000393 -0.0000673 0.0003381 -0.0006355 0.0002485 0.0001221 0.0000973 -0.0009652 0.0001295 -0.0004081 0.0003277 0.0001363
-0.0022649 0.0000178 -0.0001812 -0.0007311 0.0000830 0.0002750 0.0005030 0.0006430 0.0000392 0.0001243 0.0003500 -0.0004101 0.0002647 0.0003143 0.0000977 -0.0007652 0.0001244 -0.0001884 0.0003383 0.0003011
-0.0017778 -0.0005983 -0.0002258 -0.0005981 0.0000638 0.0004119 0.0005130 0.0009473 0.0000450 0.0004283 0.0003476 -0.0002814 0.0002697 0.0004054 0.0000604 -0.0007670 0.0000767 -0.0003006 0.0002801 0.0001740
-0.0019157 0.0003873 -0.0002813 -0.0007971 0.0000318 0.0002912 0.0005175 0.0009039 0.0000527 0.0003410 0.0003064 -0.0005964 0.0002303 0.0001387 0.0000295 -0.0009224 0.0000477 -0.0006848 0.0002426 -0.0001161
-0.0015542 0.0000744 -0.0002661 -0.0011108 0.0000394 0.0001105 0.0005258 0.0007182 0.0000577 0.0002155 0.0002814 -0.0006931 0.0002285 0.0000787 0.0000459 -0.0008677 0.0000128 -0.0008098 0.0002556 -0.0001494
0.0003994 -0.0014972 -0.0002598 -0.0009827 0.0000465 0.0002248 0.0005342 0.0009149 0.0000532 0.0005235 0.0002992 -0.0003040 0.0002601 0.0003841 0.0000495 -0.0006357 -0.0000216 -0.0005886 0.0002467 0.0000922
0.0013403 -0.0019665 -0.0002756 -0.0007020 0.0000452 0.0005117 0.0005243 0.0011532 0.0000340 0.0006689 0.0003254 -0.0001708 0.0002960 0.0004746 0.0000395 -0.0007095 0.0000426 -0.0003260 0.0002934 0.0001762
0.0006407 -0.0014109 -0.0002727 -0.0008158 0.0000607 0.0005474 0.0005121 0.0010220 0.0000245 0.0003963 0.0003381 -0.0003937 0.0003119 0.0002711 0.0000426 -0.0009653 0.0001142 -0.0003292 0.0003189 0.0000484
0.0008156 -0.0015806 -0.0002189 -0.0010655 0.0000751 0.0004218 0.0005152 0.0008544 0.0000333 0.0003028 0.0003308 -0.0004281 0.0002963 0.0002269 0.0000403 -0.0009121 0.0000919 -0.0003803 0.0002818 0.0000892
0.0012633 -0.0022630 -0.0001840 -0.0009331 0.0000840 0.0005830 0.0004991 0.0009959 0.0000080 0.0005138 0.0003376 -0.0001136 0.0002853 0.0004444 0.0000783 -0.0006263 0.0000560 -0.0002785 0.0002783 0.0002857
0.0006004 -0.0014933 -0.0002090 -0.0007014 0.0001306 0.0009149 0.0004639 0.0011168 -0.0000348 0.0005030 0.0003466 -0.0000299 0.0003008 0.0005015 0.0001169 -0.0005935 0.0000037 -0.0004166 0.0002976 0.0002635
-0.0007331 0.0000297 -0.0001920 -0.0008398 0.0001566 0.0008163 0.0004723 0.0009773 -0.0000198 0.0002701 0.0003429 -0.0003107 0.0003079 0.0002858 0.0000889 -0.0008433 -0.0000315 -0.0006758 0.0003053 0.0000080
-0.0008927 -0.0004546 -0.0001056 -0.0009628 0.0001349 0.0005854 0.0004868 0.0008536 0.0000243 0.0003172 0.0003442 -0.0003014 0.0003054 0.0002812 0.0000442 -0.0008422 -0.0000359 -0.0006235 0.0002845 -0.0000177
-0.0011008 -0.0006014 -0.0000557 -0.0006651 0.0001389 0.0007674 0.0004729 0.0010402 0.0000309 0.0006200 0.0003602 0.0000870 0.0003123 0.0005868 0.0000696 -0.0004398 -0.0000475 -0.0004079 0.0002774 0.0002041
-0.0018396 0.0003821 -0.0000642 -0.0003978 0.0001589 0.0010488 0.0004554 0.0012409 0.0000196 0.0007146 0.0003583 0.0001111 0.0003001 0.0006035 0.0000648 -0.0004128 -0.0000375 -0.0004268 0.0002894 0.0001505
-0.0021561 0.0006631 -0.0000528 -0.0004861 0.0001502 0.0010456 0.0004405 0.0011368 0.0000314 0.0005700 0.0003250 -0.0002177 0.0002613 0.0002956 -0.0000069 -0.0007822 0.0000067 -0.0005306 0.0002904 -0.0000630
-0.0003578 -0.0009271 -0.0000428 -0.0006008 0.0001069 0.0008961 0.0004189 0.0010444 0.0000392 0.0006124 0.0003142 -0.0001928 0.0002259 0.0002633 0.0000309 -0.0005804 0.0000783 -0.0001996 0.0002818 0.0001419
0.0007161 -0.0017561 -0.0000795 -0.0004901 0.0001104 0.0009881 0.0003997 0.0012277 0.0000204 0.0008765 0.0003370 0.0002037 0.0002308 0.0005651 0.0001070 -0.0001054 0.0001154 0.0001631 0.0002650 0.0003545
0.0001382 -0.0008116 -0.0001016 -0.0004537 0.0001327 0.0010272 0.0003919 0.0012674 0.0000031 0.0008084 0.0003334 0.0001611 0.0002239 0.0005115 0.0000876 -0.0002349 0.0001257 0.0000128 0.0002501 0.0001663
0.0007268 -0.0010158 -0.0000534 -0.0006073 0.0001243 0.0008584 0.0003821 0.0010579 0.0000074 0.0005308 0.0003193 -0.0001797 0.0001923 0.0001966 0.0000602 -0.0005056 0.0001393 -0.0001071 0.0002405 -0.0000026
0.0015657 -0.0023079 -0.0000292 -0.0007067 0.0001313 0.0007932 0.0003832 0.0010124 0.0000140 0.0005463 0.0003213 -0.0001017 0.0001686 0.0002321 0.0000841 -0.0002291 0.0001889 0.0001138 0.0001988 0.0001312
0.0010455 -0.0016845 -0.0000379 -0.0004459 0.0001465 0.0010123 0.0003700 0.0012470 0.0000062 0.0008724 0.0003077 0.0002263 0.0001381 0.0004359 0.0000710 -0.0000091 0.0002522 0.0002606 0.0001200 0.0001601
-0.0001887 -0.0003874 -0.0000264 -0.0004726 0.0001520 0.0010773 0.0003446 0.0012274 -0.0000007 0.0008157 0.0002780 0.0000336 0.0000794 0.0002374 0.0000529 -0.0001032 0.0002820 0.0002650 0.0001071 0.0000043
-0.0002514 -0.0009237 -0.0000060 -0.0007801 0.0001622 0.0009165 0.0003407 0.0009658 0.0000119 0.0004878 0.0002675 -0.0003808 0.0000422 -0.0000818 0.0000634 -0.0001465 0.0003144 0.0002326 0.0001598 -0.0000529
-0.0007782 -0.0007241 0.0000045 -0.0007863 0.0001814 0.0009120 0.0003470 0.0009295 0.0000247 0.0005235 0.0002740 -0.0002707 0.0000427 -0.0000030 0.0000740 0.0000473 0.0003049 0.0003267 0.0001634 0.0000374
-0.0022545 0.0005116 -0.0000121 -0.0005847 0.0001933 0.0011134 0.0003406 0.0011249 0.0000192 0.0007709 0.0002857 0.0000141 0.0000523 0.0001649 0.0000591 0.0000608 0.0002750 0.0002971 0.0001581 -0.0000016
-0.0027639 0.0010664 -0.0000387 -0.0006655 0.0001853 0.0010820 0.0003318 0.0010698 0.0000120 0.0006564 0.0002750 -0.0002043 0.0000446 -0.0000377 0.0000170 -0.0002810 0.0002438 0.0000216 0.0001873 -0.0002138
-0.0006459 -0.0005934 -0.0000467 -0.0009689 0.0001876 0.0008671 0.0003390 0.0007846 0.0000270 0.0003135 0.0002646 -0.0005899 0.0000322 -0.0003293 0.0000228 -0.0003834 0.0002459 -0.0000908 0.0002114 -0.0002818
0.0005509 -0.0019423 -0.0000351 -0.0009608 0.0002174 0.0008850 0.0003510 0.0007239 0.0000494 0.0003298 0.0002811 -0.0004384 0.0000368 -0.0002227 0.0000531 -0.0000913 0.0002795 0.0000397 0.0001996 -0.0001410
-0.0001013 -0.0008207 -0.0000276 -0.0006539 0.0002530 0.0010835 0.0003386 0.0008458 0.0000533 0.0004716 0.0003019 -0.0002554 0.0000472 -0.0001386 0.0000493 -0.0000789 0.0002693 0.0000080 0.0001866 -0.0001812
0.0007191 -0.0009332 0.0000100 -0.0006523 0.0002556 0.0009979 0.0003240 0.0006965 0.0000578 0.0002931 0.0003010 -0.0004798 0.0000621 -0.0003508 0.0000255 -0.0004251 0.0002405 -0.0001750 0.0002112 -0.0003588
0.0016849 -0.0025004 0.0000479 -0.0008908 0.0002478 0.0007199 0.0003472 0.0004273 0.0000808 0.0000189 0.0003056 -0.0006454 0.0000803 -0.0004457 0.0000646 -0.0004245 0.0002535 -0.0001216 0.0002479 -0.0002539
0.0014397 -0.0023450 0.0000572 -0.0007620 0.0002718 0.0007529 0.0003706 0.0004793 0.0000947 0.0001069 0.0003328 -0.0003333 0.0001003 -0.0001948 0.0001201 -0.0000756 0.0002610 0.0001054 0.0002449 -0.0000060
0.0006065 -0.0013219 0.0001001 -0.0004487 0.0003014 0.0010364 0.0003680 0.0007342 0.0000924 0.0004105 0.0003467 0.0000350 0.0000991 0.0000086 0.0001098 0.0000555 0.0002646 0.0002461 0.0002152 0.0000488
0.0003418 -0.0013206 0.0001230 -0.0005217 0.0003039 0.0010192 0.0003506 0.0006483 0.0000853 0.0002507 0.0003376 -0.0001804 0.0000800 -0.0001866 0.0001123 -0.0000894 0.0003092 0.0002169 0.0002377 -0.0000880
-0.0001797 -0.0012309 0.0001343 -0.0008031 0.0002981 0.0007488 0.0003571 0.0003296 0.0000945 -0.0001187 0.0003335 -0.0005363 0.0000891 -0.0004132 0.0001396 -0.0001295 0.0003488 0.0002279 0.0002601 -0.0000818
-0.0015006 -0.0006180 0.0001620 -0.0007690 0.0003139 0.0007472 0.0003859 0.0003423 0.0001079 -0.0000385 0.0003485 -0.0003877 0.0001031 -0.0002952 0.0001638 0.0000976 0.0003415 0.0004511 0.0002295 0.0000979
-0.0022915 0.0003987 0.0001659 -0.0005010 0.0003236 0.0009561 0.0003905 0.0005553 0.0001009 0.0002281 0.0003297 -0.0001316 0.0000873 -0.0001397 0.0002037 0.0002856 0.0003682 0.0006942 0.0001974 0.0002058
-0.0008768 -0.0003914 0.0001474 -0.0005392 0.0003165 0.0009392 0.0003801 0.0004920 0.0000741 0.0000761 0.0003146 -0.0003178 0.0000830 -0.0003246 0.0001992 0.0001057 0.0004037 0.0006450 0.0002177 0.0000849
-0.0002301 -0.0015515 0.0001420 -0.0008062 0.0003179 0.0006872 0.0003874 0.0002023 0.0000601 -0.0002988 0.0003463 -0.0005947 0.0001139 -0.0005487 0.0001721 -0.0000798 0.0003970 0.0005008 0.0002493 -0.0000006
-0.0008674 -0.0007329 0.0001641 -0.0007345 0.0003390 0.0006785 0.0004137 0.0002066 0.0000754 -0.0002057 0.0003636 -0.0004143 0.0001413 -0.0004122 0.0001955 0.0001251 0.0004101 0.0006387 0.0002244 0.0001848
0.0004727 -0.0011126 0.0001737 -0.0004654 0.0003489 0.0008937 0.0004258 0.0004594 0.0000908 0.0001475 0.0003714 -0.0000566 0.0001545 -0.0001688 0.0002007 0.0002588 0.0004076 0.0007692 0.0001757 0.0002634
0.0015054 -0.0021629 0.0001522 -0.0005027 0.0003378 0.0008731 0.0004239 0.0004135 0.0001033 0.0000443 0.0003750 -0.0002602 0.0001565 -0.0003421 0.0001840 0.0000491 0.0004168 0.0006431 0.0001849 0.0001175
0.0013507 -0.0022801 0.0001499 -0.0007754 0.0003436 0.0006062 0.0004404 0.0000806 0.0001298 -0.0003457 0.0003866 -0.0006884 0.0001658 -0.0006275 0.0001845 -0.0001072 0.0004094 0.0005725 0.0002305 0.0000649
0.0010370 -0.0022504 0.0002020 -0.0007975 0.0003633 0.0005692 0.0004695 0.0000673 0.0001543 -0.0002965 0.0004244 -0.0004806 0.0002107 -0.0004325 0.0001967 0.0000462 0.0004006 0.0006542 0.0002429 0.0002099
0.0008832 -0.0017832 0.0002166 -0.0005680 0.0003721 0.0007681 0.0004803 0.0003517 0.0001573 0.0000420 0.0004482 -0.0000406 0.0002385 -0.0000692 0.0002498 0.0004458 0.0003813 0.0008246 0.0002544 0.0004610
0.0004410 -0.0009691 0.0001757 -0.0004767 0.0004098 0.0008684 0.0004786 0.0004172 0.0001287 0.0000136 0.0004482 -0.0000739 0.0002564 -0.0000762 0.0002319 0.0003244 0.0003609 0.0008609 0.0002585 0.0004212
-0.0006333 -0.0007842 0.0002069 -0.0006650 0.0004278 0.0006678 0.0004978 0.0001194 0.0001248 -0.0003844 0.0004468 -0.0005251 0.0002625 -0.0004137 0.0001611 -0.0001172 0.0004001 0.0007523 0.0002698 0.0002275
-0.0012731 -0.0004279 0.0002575 -0.0007323 0.0004142 0.0004732 0.0005380 -0.0000232 0.0001533 -0.0004563 0.0004585 -0.0005670 0.0002747 -0.0004484 0.0001617 -0.0000767 0.0004492 0.0007459 0.0002891 0.0003235
-0.0005665 -0.0006324 0.0002440 -0.0005903 0.0004160 0.0005612 0.0005665 0.0001626 0.0001636 -0.0002115 0.0004804 -0.0002371 0.0003092 -0.0001808 0.0001980 0.0002449 0.0004394 0.0009247 0.0003042 0.0005739
-0.0004384 -0.0007706 0.0002220 -0.0003569 0.0004175 0.0007714 0.0005710 0.0003615 0.0001651 -0.0000776 0.0004882 -0.0002521 0.0003266 -0.0001815 0.0001887 0.0002105 0.0004010 0.0009620 0.0003093 0.0005776
-0.0010623 -0.0001047 0.0002115 -0.0005222 0.0004210 0.0006389 0.0005702 0.0001825 0.0001693 -0.0003584 0.0004789 -0.0006463 0.0003292 -0.0004699 0.0001707 -0.0000673 0.0004213 0.0006955 0.0003381 0.0003783
0.0000336 -0.0010282 0.0002372 -0.0007561 0.0004215 0.0004125 0.0005801 -0.0000426 0.0001915 -0.0005274 0.0004955 -0.0006810 0.0003483 -0.0004909 0.0001726 -0.0000584 0.0003758 0.0005874 0.0003614 0.0003682
0.0009693 -0.0017950 0.0002559 -0.0004904 0.0004278 0.0005729 0.0005869 0.0001245 0.0002034 -0.0002879 0.0005292 -0.0002912 0.0003720 -0.0002006 0.0002035 0.0002564 0.0003257 0.0007195 0.0003603 0.0005953
0.0009009 -0.0014028 0.0002400 -0.0002288 0.0004390 0.0007910 0.0005879 0.0003205 0.0002028 -0.0001819 0.0005435 -0.0002606 0.0003837 -0.0001789 0.0001944 0.0001889 0.0003109 0.0006299 0.0003722 0.0005387
0.0009009 -0.0017909 0.0002519 -0.0004573 0.0004354 0.0006075 0.0006002 0.0001556 0.0002137 -0.0004332 0.0005403 -0.0006313 0.0003949 -0.0004654 0.0001519 -0.0001758 0.0002845 0.0003859 0.0003905 0.0003170
0.0008685 -0.0018769 0.0002816 -0.0006740 0.0004327 0.0003873 0.0006208 -0.0000099 0.0002322 -0.0005195 0.0005342 -0.0006932 0.0003802 -0.0005765 0.0002123 -0.0000364 0.0003001 0.0006319 0.0004054 0.0004676
0.0005436 -0.0014275 0.0002934 -0.0004902 0.0004467 0.0005266 0.0006262 0.0001495 0.0002281 -0.0002984 0.0004901 -0.0004148 0.0003403 -0.0003838 0.0003521 0.0003927 0.0003628 0.0013498 0.0003972 0.0007608
-0.0005371 -0.0007923 0.0002901 -0.0003529 0.0005316 0.0007133 0.0006155 0.0001685 0.0001443 -0.0003661 0.0004703 -0.0003071 0.0003620 -0.0002358 0.0003060 0.0002516 0.0004151 0.0014307 0.0003224 0.0006270
-0.0014791 0.0002930 0.0003516 -0.0003591 0.0006354 0.0006735 0.0005941 -0.0001544 0.0000930 -0.0007132 0.0005250 -0.0004286 0.0004191 -0.0003516 0.0001810 -0.0001731 0.0004109 0.0010109 0.0003380 0.0003996
-0.0007598 -0.0002218 0.0003857 -0.0004891 0.0006420 0.0004578 0.0006297 -0.0002304 0.0001410 -0.0007036 0.0005725 -0.0003420 0.0004565 -0.0003028 0.0001920 -0.0001048 0.0003845 0.0008884 0.0004452 0.0005421
-0.0004882 -0.0005685 0.0003505 -0.0003572 0.0006219 0.0004256 0.0006816 0.0000209 0.0001652 -0.0004302 0.0005973 0.0000313 0.0004991 0.0000193 0.0002153 0.0001950 0.0003218 0.0008465 0.0004501 0.0006864
-0.0009681 0.0003072 0.0003377 -0.0002064 0.0006261 0.0004574 0.0006840 0.0000379 0.0001634 -0.0005159 0.0006004 0.0000095 0.0004983 -0.0000303 0.0002097 0.0001444 0.0002818 0.0007161 0.0004514 0.0005826
0.0000704 -0.0005569 0.0003432 -0.0004336 0.0006114 0.0002123 0.0006886 -0.0002203 0.0001782 -0.0008319 0.0005889 -0.0003404 0.0004877 -0.0003280 0.0001663 -0.0001851 0.0003171 0.0005431 0.0004649 0.0004249
0.0007914 -0.0013802 0.0003500 -0.0005221 0.0005810 0.0000110 0.0007152 -0.0002830 0.0002073 -0.0008000 0.0005956 -0.0002760 0.0005067 -0.0002391 0.0001872 -0.0000443 0.0003175 0.0006687 0.0004593 0.0005454
0.0007846 -0.0010445 0.0003335 -0.0002884 0.0005781 0.0001400 0.0007399 -0.0000125 0.0002219 -0.0004438 0.0006089 0.0000918 0.0005178 0.0000663 0.0001765 0.0002127 0.0002718 0.0008321 0.0004374 0.0006433
0.0008399 -0.0012516 0.0003479 -0.0001720 0.0005554 0.0003201 0.0007343 0.0001856 0.0002440 -0.0002809 0.0006020 0.0000242 0.0004890 -0.0000238 0.0001206 0.0000979 0.0002570 0.0007121 0.0004185 0.0004918
0.0008269 -0.0014008 0.0003542 -0.0004266 0.0004941 0.0002523 0.0007201 0.0000623 0.0002779 -0.0004366 0.0005599 -0.0004450 0.0004163 -0.0004866 0.0001717 -0.0000575 0.0003298 0.0007754 0.0004183 0.0003855
0.0006457 -0.0008688 0.0003002 -0.0007283 0.0006577 0.0002205 0.0007499 -0.0002518 0.0002467 -0.0007733 0.0004949 -0.0004645 0.0003711 -0.0005283 0.0002938 0.0001387 0.0004250 0.0013267 0.0004145 0.0005661
-0.0002888 0.0005034 0.0002086 -0.0007524 0.0009778 0.0006730 0.0007996 -0.0002101 0.0002748 -0.0005198 0.0004820 0.0000705 0.0003891 -0.0001150 0.0003206 0.0003372 0.0004154 0.0016036 0.0003940 0.0007349
-0.0007834 0.0019375 0.0001459 -0.0004616 0.0010659 0.0012157 0.0007776 0.0000949 0.0003159 -0.0000963 0.0005321 0.0003771 0.0004457 0.0000802 0.0002414 0.0001565 0.0003675 0.0013483 0.0003818 0.0006056
-0.0002516 0.0014019 0.0001635 -0.0005499 0.0009085 0.0008399 0.0007135 -0.0000447 0.0002737 -0.0003723 0.0005649 0.0000394 0.0004726 -0.0001792 0.0001647 -0.0001357 0.0003434 0.0009758 0.0004093 0.0003853
-0.0002078 0.0003841 0.0002294 -0.0008278 0.0006970 0.0000519 0.0006788 -0.0003128 0.0002745 -0.0005276 0.0005686 -0.0001789 0.0004673 -0.0003099 0.0001470 -0.0000159 0.0003641 0.0008391 0.0004421 0.0004247
-0.0004922 0.0006244 0.0003011 -0.0005899 0.0005731 -0.0000537 0.0006669 -0.0002032 0.0002876 -0.0002892 0.0005706 0.0000527 0.0004679 -0.0001029 0.0001483 0.0002771 0.0003584 0.0009005 0.0004277 0.0005511
0.0001903 0.0002947 0.0003239 -0.0002680 0.0005386 0.0001661 0.0006539 0.0000455 0.0002674 -0.0001334 0.0005617 0.0001036 0.0004610 -0.0000747 0.0001333 0.0002868 0.0003385 0.0008524 0.0004147 0.0004568
0.0007596 -0.0003269 0.0003149 -0.0004301 0.0005323 0.0000998 0.0006535 -0.0000562 0.0002564 -0.0003476 0.0005374 -0.0002254 0.0004532 -0.0003460 0.0001140 0.0000425 0.0003332 0.0006869 0.0004434 0.0002454
0.0007417 -0.0005386 0.0003262 -0.0007187 0.0005351 -0.0000816 0.0006797 -0.0002455 0.0002816 -0.0004945 0.0005409 -0.0003029 0.0004607 -0.0004317 0.0000773 -0.0000704 0.0002971 0.0005335 0.0004655 0.0001953
0.0007041 -0.0007279 0.0003574 -0.0005539 0.0005715 0.0002415 0.0007194 0.0000560 0.0003361 -0.0001579 0.0005629 0.0000757 0.0004684 -0.0001593 0.0000745 0.0002185 0.0002717 0.0006243 0.0004721 0.0003620
0.0006219 -0.0004854 0.0003766 -0.0002381 0.0005913 0.0007645 0.0007273 0.0004224 0.0003797 0.0001188 0.0005583 0.0001929 0.0004477 -0.0000901 0.0000610 0.0003281 0.0002496 0.0005959 0.0004633 0.0003253
0.0003192 -0.0004361 0.0003744 -0.0004110 0.0005714 0.0008070 0.0006971 0.0002143 0.0003897 -0.0001777 0.0005320 -0.0001711 0.0004035 -0.0004089 0.0000420 0.0002159 0.0002774 0.0003894 0.0004592 0.0001313
-0.0003374 -0.0005708 0.0003997 -0.0007515 0.0005722 0.0006395 0.0006808 -0.0001665 0.0004092 -0.0004950 0.0005227 -0.0003184 0.0003726 -0.0005094 0.0000624 0.0004015 0.0003322 0.0004099 0.0004500 0.0001679
-0.0006849 -0.0000900 0.0004116 -0.0006554 0.0005894 0.0007840 0.0006785 -0.0001291 0.0004295 -0.0003810 0.0005214 -0.0000332 0.0003569 -0.0002618 0.0000732 0.0008101 0.0003463 0.0005836 0.0004312 0.0003569
-0.0001516 -0.0001353 0.0003879 -0.0003969 0.0005890 0.0010339 0.0006559 0.0000581 0.0004264 -0.0002124 0.0005022 0.0000875 0.0003252 -0.0001871 0.0000778 0.0010217 0.0003239 0.0005325 0.0004324 0.0003993
-0.0000790 -0.0005739 0.0003435 -0.0005999 0.0005742 0.0009635 0.0006288 -0.0001577 0.0004136 -0.0004851 0.0004571 -0.0003025 0.0002864 -0.0004880 0.0000797 0.0009455 0.0002823 0.0001666 0.0004357 0.0002494
-0.0004086 -0.0003488 0.0003105 -0.0010185 0.0005888 0.0007551 0.0006251 -0.0005685 0.0004141 -0.0008848 0.0004146 -0.0006209 0.0002662 -0.0006955 0.0000843 0.0010228 0.0002185 -0.0000394 0.0004057 0.0001728
0.0005462 -0.0007063 0.0002978 -0.0010144 0.0006092 0.0007975 0.0006351 -0.0005680 0.0004236 -0.0008253 0.0003911 -0.0005113 0.0002573 -0.0005695 0.0000821 0.0012766 0.0001560 -0.0000178 0.0003402 0.0002187
0.0013082 -0.0013711 0.0002586 -0.0008085 0.0005955 0.0009495 0.0006282 -0.0003565 0.0004202 -0.0006247 0.0003706 -0.0004453 0.0002478 -0.0005051 0.0000715 0.0012959 0.0001324 -0.0000931 0.0003066 0.0001557
0.0009440 -0.0012192 0.0002242 -0.0009291 0.0005754 0.0008435 0.0006189 -0.0005047 0.0004111 -0.0008374 0.0003397 -0.0007993 0.0002290 -0.0007891 0.0000622 0.0010489 0.0001263 -0.0002748 0.0003285 -0.0000631
0.0003695 -0.0010518 0.0002551 -0.0012732 0.0005763 0.0005817 0.0006342 -0.0008430 0.0004261 -0.0011561 0.0003165 -0.0010931 0.0002131 -0.0009933 0.0000586 0.0009902 0.0001308 -0.0003390 0.0003371 -0.0001385
0.0002440 -0.0010295 0.0002845 -0.0012279 0.0005940 0.0006296 0.0006468 -0.0008082 0.0004413 -0.0010643 0.0003158 -0.0009081 0.0002087 -0.0008174 0.0000571 0.0012236 0.0001297 -0.0002243 0.0003252 -0.0000088
-0.0002336 -0.0004467 0.0002670 -0.0009541 0.0006006 0.0008698 0.0006381 -0.0005579 0.0004322 -0.0007921 0.0003188 -0.0005705 0.0002109 -0.0005647 0.0000510 0.0013793 0.0000909 -0.0001114 0.0003110 0.0000513
-0.0013586 0.0001879 0.0002429 -0.0010175 0.0005919 0.0008497 0.0006263 -0.0006098 0.0004203 -0.0009183 0.0003077 -0.0008011 0.0001935 -0.0007206 0.0000409 0.0012171 0.0000826 -0.0002087 0.0003279 -0.0000791
-0.0020300 0.0006078 0.0002468 -0.0013205 0.0005867 0.0006078 0.0006326 -0.0009324 0.0004303 -0.0012728 0.0002876 -0.0012414 0.0001732 -0.0009985 0.0000357 0.0011193 0.0001213 -0.0002845 0.0003449 -0.0001086
-0.0002617 -0.0005044 0.0002431 -0.0012892 0.0005910 0.0006040 0.0006472 -0.0009636 0.0004470 -0.0012536 0.0002907 -0.0011183 0.0001820 -0.0008785 0.0000446 0.0012956 0.0001404 -0.0001484 0.0003291 0.0000402
0.0009091 -0.0015723 0.0002041 -0.0010449 0.0005926 0.0007994 0.0006465 -0.0007372 0.0004461 -0.0010175 0.0002930 -0.0007712 0.0001848 -0.0005962 0.0000438 0.0015836 0.0001379 0.0000746 0.0002962 0.0002432
0.0003900 -0.0007626 0.0001609 -0.0009396 0.0005856 0.0009104 0.0006326 -0.0006498 0.0004358 -0.0010106 0.0002786 -0.0008140 0.0001745 -0.0006266 0.0000274 0.0015159 0.0001313 0.0000284 0.0002714 0.0001945
0.0009833 -0.0008848 0.0001654 -0.0012037 0.0005700 0.0007141 0.0006288 -0.0009131 0.0004438 -0.0013245 0.0002746 -0.0011619 0.0001800 -0.0008914 0.0000310 0.0012292 0.0001434 -0.0001983 0.0002780 0.0000117
0.0016070 -0.0021192 0.0001889 -0.0013770 0.0005670 0.0005416 0.0006420 -0.0010631 0.0004696 -0.0014060 0.0003011 -0.0010720 0.0002037 -0.0008051 0.0000488 0.0012775 0.0001551 -0.0001469 0.0002592 0.0000840
0.0007526 -0.0014157 0.0001803 -0.0011416 0.0005700 0.0006749 0.0006471 -0.0008496 0.0004813 -0.0011478 0.0003309 -0.0006431 0.0002163 -0.0004748 0.0000478 0.0015045 0.0001441 0.0000726 0.0002225 0.0002988
-0.0007753 0.0004490 0.0001659 -0.0008226 0.0005519 0.0009242 0.0006283 -0.0005115 0.0004705 -0.0007821 0.0003503 -0.0002454 0.0002270 -0.0002148 0.0000359 0.0015487 0.0001294 0.0001454 0.0002014 0.0003594
-0.0010918 0.0001684 0.0001554 -0.0009569 0.0005254 0.0008670 0.0006077 -0.0005690 0.0004602 -0.0009142 0.0003396 -0.0004740 0.0002170 -0.0004063 0.0000242 0.0013065 0.0001301 -0.0000370 0.0002116 0.0001653
-0.0013190 -0.0002490 0.0001492 -0.0013150 0.0005113 0.0005695 0.0006106 -0.0009113 0.0004745 -0.0012777 0.0003296 -0.0008352 0.0002043 -0.0006283 0.0000070 0.0012021 0.0001417 -0.0001253 0.0002099 0.0000861
-0.0019791 0.0007033 0.0001453 -0.0012318 0.0005069 0.0005868 0.0006175 -0.0008858 0.0004932 -0.0011620 0.0003360 -0.0006305 0.0001994 -0.0004635 0.0000014 0.0013863 0.0001398 0.0000616 0.0001835 0.0002791
-0.0017769 0.0006486 0.0001257 -0.0009487 0.0005008 0.0008367 0.0006044 -0.0006017 0.0004804 -0.0008705 0.0003328 -0.0002136 0.0001862 -0.0001459 0.0000306 0.0017168 0.0001171 0.0003994 0.0001424 0.0005800
0.0005681 -0.0010885 0.0000760 -0.0006223 0.0004916 0.0011203 0.0005759 -0.0002375 0.0004527 -0.0005093 0.0003404 0.0001274 0.0001870 0.0000978 0.0000017 0.0017680 0.0001067 0.0004972 0.0000918 0.0006302
0.0014791 -0.0014413 0.0000443 -0.0006707 0.0004625 0.0011060 0.0005473 -0.0002661 0.0004538 -0.0005210 0.0002738 -0.0002789 0.0000840 -0.0003581 -0.0000614 0.0013829 0.0001334 0.0005025 0.0000603 0.0008577
0.0006115 -0.0010274 -0.0000607 -0.0012411 0.0004027 0.0008102 0.0005535 -0.0005279 0.0003862 -0.0008382 0.0003047 0.0003238 0.0001950 0.0002820 0.0002400 0.0017034 0.0002457 0.0013220 0.0000276 0.0012076
0.0003258 -0.0007952 -0.0002073 -0.0017646 0.0004713 0.0005135 0.0006178 -0.0005191 0.0003103 -0.0009245 0.0004221 0.0015792 0.0004249 0.0013339 0.0003748 0.0017107 0.0003032 0.0019900 -0.0000268 0.0010417
0.0001197 -0.0001306 -0.0002726 -0.0016631 0.0004621 0.0004587 0.0006806 0.0000269 0.0003392 -0.0001874 0.0004292 0.0018957 0.0004116 0.0013554 0.0000436 0.0010200 0.0002349 0.0018047 -0.0000987 0.0009199
-0.0008278 0.0007681 -0.0002975 -0.0012193 0.0003068 0.0007009 0.0006919 0.0006574 0.0003774 0.0004731 0.0004167 0.0016178 0.0003524 0.0011519 -0.0001561 0.0006792 0.0002154 0.0014125 -0.0001145 0.0008426
-0.0018474 0.0012392 -0.0003021 -0.0013499 0.0002453 0.0006664 0.0006853 0.0006188 0.0004090 0.0002727 0.0003756 0.0009043 0.0002899 0.0006653 -0.0002084 0.0003877 0.0002279 0.0011201 -0.0000801 0.0007193
-0.0017413 0.0006170 -0.0003004 -0.0015742 0.0002209 0.0005467 0.0006862 0.0004933 0.0004309 0.0002123 0.0003409 0.0007437 0.0002542 0.0005652 -0.0002180 0.0004367 0.0001978 0.0011813 -0.0000668 0.0007966
-0.0014187 0.0005213 -0.0003069 -0.0013020 0.0002286 0.0006772 0.0006781 0.0006539 0.0004201 0.0004671 0.0003483 0.0011641 0.0002525 0.0008893 -0.0002343 0.0006792 0.0001873 0.0013667 -0.0000964 0.0009482
-0.0008965 0.0009456 -0.0003140 -0.0008301 0.0002268 0.0009074 0.0006452 0.0009635 0.0003979 0.0008788 0.0003660 0.0018057 0.0002583 0.0013697 -0.0002543 0.0010135 0.0001462 0.0016270 -0.0001119 0.0012106
-0.0004092 0.0007058 -0.0003025 -0.0002759 0.0002107 0.0012295 0.0005775 0.0012947 0.0003717 0.0012857 0.0004044 0.0025943 0.0002807 0.0019477 -0.0002800 0.0010910 0.0000508 0.0017001 -0.0000189 0.0013351
0.0012017 -0.0015130 -0.0002279 0.0000711 0.0001825 0.0010916 0.0004371 0.0009087 0.0003088 0.0006990 0.0004759 0.0030053 0.0001883 0.0019487 -0.0003435 0.0009021 0.0000357 0.0014080 0.0001290 0.0012373
0.0013270 -0.0015077 -0.0001075 0.0001263 0.0001880 0.0007696 0.0003134 0.0001900 0.0002476 -0.0002133 0.0006346 0.0027554 0.0000707 0.0016473 -0.0003401 0.0010385 0.0000446 0.0012007 0.0001774 0.0011464
0.0008253 -0.0011436 0.0000120 0.0003444 0.0002564 0.0009093 0.0002495 0.0000384 0.0002103 -0.0003191 0.0008281 0.0027938 0.0000780 0.0019740 -0.0001847 0.0018891 0.0000521 0.0012932 0.0000989 0.0012176
0.0004192 -0.0018239 0.0001078 0.0007320 0.0003074 0.0011931 0.0002035 0.0002758 0.0001718 -0.0000649 0.0009895 0.0035164 0.0001119 0.0026516 0.0000707 0.0031791 0.0000500 0.0014432 -0.0000083 0.0014556
-0.0018967 0.0008188 0.0001213 0.0012057 0.0003327 0.0015984 0.0001675 0.0006990 0.0001295 0.0004383 0.0015743 0.0054270 0.0001278 0.0033104 0.0002928 0.0043027 0.0000060 0.0015978 -0.0000992 0.0017852
-0.0035769 0.0029642 0.0000766 0.0016188 0.0003512 0.0020724 0.0001306 0.0011842 0.0000910 0.0010410 0.0021682 0.0072000 0.0001044 0.0037878 0.0003449 0.0048865 -0.0000647 0.0019968 -0.0001606 0.0021706
-0.0026196 0.0018662 -0.0000117 0.0018969 0.0003028 0.0024033 0.0001002 0.0017344 0.0000626 0.0017274 0.0023281 0.0079608 0.0000548 0.0041061 0.0002029 0.0047667 -0.0001444 0.0022729 -0.0002586 0.0022736
-0.0015775 0.0012373 -0.0001559 0.0016813 0.0002174 0.0022625 0.0001119 0.0018782 0.0000576 0.0016105 0.0022747 0.0071670 -0.0000341 0.0034971 0.0001158 0.0042905 -0.0001876 0.0019999 -0.0004191 0.0019975
-0.0011626 0.0008015 -0.0002696 0.0009837 0.0001559 0.0017747 0.0001441 0.0015315 0.0000928 0.0009797 0.0022031 0.0057022 -0.0000919 0.0025348 0.0000925 0.0037256 -0.0000384 0.0020189 -0.0004018 0.0019048
0.0000174 -0.0007850 -0.0002626 0.0007622 0.0001206 0.0015210 0.0001102 0.0013110 0.0001170 0.0009001 0.0022571 0.0056681 -0.0000814 0.0024939 0.0000288 0.0034476 0.0001084 0.0024241 -0.0003111 0.0021183
0.0003500 -0.0005068 -0.0002391 0.0010396 0.0001013 0.0015869 0.0000574 0.0014687 0.0000949 0.0011695 0.0022841 0.0060166 -0.0000904 0.0028007 -0.0000047 0.0036643 0.0000640 0.0025826 -0.0003480 0.0023387
0.0002990 -0.0001899 -0.0002525 0.0013724 0.0000735 0.0017755 0.0000024 0.0017722 0.0000362 0.0015499 0.0022647 0.0063501 -0.0001168 0.0031693 -0.0000253 0.0040470 0.0000236 0.0028461 -0.0004051 0.0026432
-0.0007817 0.0005088 -0.0002712 0.0016749 0.0000356 0.0019967 -0.0000551 0.0021748 -0.0000308 0.0020645 0.0022385 0.0067080 -0.0001531 0.0035603 -0.0000675 0.0044273 0.0000014 0.0032001 -0.0004936 0.0029427
-0.0018666 0.0019141 -0.0003609 0.0018767 -0.0000472 0.0023040 -0.0001003 0.0027849 -0.0000866 0.0028494 0.0021759 0.0070434 -0.0002341 0.0038795 -0.0001114 0.0047714 -0.0000345 0.0035075 -0.0006132 0.0030577
-0.0018433 0.0018683 -0.0005000 0.0015932 -0.0001154 0.0024033 -0.0001339 0.0029949 -0.0001532 0.0027550 0.0021133 0.0065245 -0.0003126 0.0034400 -0.0000918 0.0044581 -0.0000491 0.0034228 -0.0006939 0.0028146
-0.0025639 0.0018257 -0.0006130 0.0009442 -0.0001302 0.0020454 -0.0001617 0.0026193 -0.0002188 0.0019810 0.0020898 0.0056680 -0.0003401 0.0027489 -0.0000599 0.0039235 -0.0000352 0.0031372 -0.0007465 0.0024917
-0.0028909 0.0025793 -0.0006269 0.0006945 -0.0001219 0.0017340 -0.0001876 0.0023906 -0.0002475 0.0018961 0.0020850 0.0055964 -0.0003577 0.0027034 -0.0000912 0.0039196 -0.0000234 0.0031321 -0.0008026 0.0024594
-0.0008750 0.0014198 -0.0005666 0.0009693 -0.0001324 0.0018230 -0.0002229 0.0025842 -0.0002678 0.0023304 0.0020792 0.0058867 -0.0003780 0.0029689 -0.0000935 0.0042244 -0.0000488 0.0033491 -0.0008663 0.0026544
0.0005330 0.0002152 -0.0005685 0.0013878 -0.0001570 0.0020675 -0.0002844 0.0029298 -0.0003237 0.0028152 0.0020762 0.0063351 -0.0003887 0.0034361 -0.0000264 0.0047794 -0.0000827 0.0036357 -0.0009236 0.0029720
0.0001562 0.0011889 -0.0006068 0.0017761 -0.0001424 0.0024353 -0.0003759 0.0032253 -0.0004111 0.0030648 0.0020765 0.0064718 -0.0004054 0.0035809 -0.0000518 0.0047122 -0.0001095 0.0035219 -0.0009691 0.0028690
-0.0006722 0.0015350 -0.0005491 0.0015716 -0.0001394 0.0023433 -0.0004439 0.0030189 -0.0004435 0.0026350 0.0020384 0.0059559 -0.0004586 0.0032486 -0.0001258 0.0042490 -0.0001423 0.0032234 -0.0009592 0.0025297
-0.0011535 0.0010832 -0.0004949 0.0011291 -0.0001393 0.0019466 -0.0004645 0.0026659 -0.0004418 0.0020854 0.0020062 0.0054776 -0.0004759 0.0031333 -0.0000909 0.0043953 -0.0001528 0.0031149 -0.0008976 0.0024824
-0.0017468 0.0015278 -0.0004454 0.0012708 -0.0001134 0.0020857 -0.0005091 0.0027512 -0.0004344 0.0022654 0.0020154 0.0055532 -0.0005086 0.0033327 -0.0000324 0.0049544 -0.0001508 0.0030948 -0.0009037 0.0025891
-0.0028051 0.0023784 -0.0003730 0.0017151 -0.0001219 0.0024924 -0.0005800 0.0030510 -0.0004300 0.0027581 0.0020130 0.0058607 -0.0005739 0.0036304 -0.0000226 0.0054877 -0.0001320 0.0032256 -0.0009329 0.0028525
-0.0035559 0.0030564 -0.0003816 0.0020798 -0.0001535 0.0028241 -0.0006442 0.0033199 -0.0004601 0.0029081 0.0020066 0.0057416 -0.0005905 0.0035555 -0.0000239 0.0053423 -0.0001182 0.0030974 -0.0009164 0.0027654
-0.0013709 0.0010961 -0.0004309 0.0016397 -0.0001866 0.0024644 -0.0006744 0.0029900 -0.0004688 0.0024037 0.0019755 0.0050343 -0.0006324 0.0029909 -0.0000128 0.0048632 -0.0001585 0.0026056 -0.0009161 0.0022743
0.0002198 -0.0006186 -0.0004356 0.0009858 -0.0001890 0.0018755 -0.0006710 0.0024684 -0.0004678 0.0018997 0.0019598 0.0045660 -0.0006333 0.0027027 0.0000388 0.0047688 -0.0001353 0.0024203 -0.0008324 0.0021806
-0.0005912 0.0001867 -0.0003806 0.0010094 -0.0001282 0.0019229 -0.0006756 0.0023995 -0.0004665 0.0018655 0.0020269 0.0047220 -0.0005731 0.0028442 0.0000795 0.0048567 -0.0000470 0.0026789 -0.0007035 0.0024576
-0.0006819 0.0005900 -0.0003298 0.0012882 -0.0000718 0.0022401 -0.0006992 0.0026064 -0.0004736 0.0021237 0.0020756 0.0050984 -0.0005518 0.0031441 0.0000954 0.0050962 -0.0000485 0.0028821 -0.0006927 0.0026237
-0.0007678 0.0006601 -0.0003220 0.0012927 -0.0000430 0.0023383 -0.0007063 0.0026457 -0.0004793 0.0020097 0.0020625 0.0048119 -0.0005757 0.0029159 0.0000894 0.0048223 -0.0000876 0.0026103 -0.0006964 0.0023498
-0.0013627 0.0008900 -0.0003182 0.0008555 -0.0000233 0.0020724 -0.0006976 0.0022984 -0.0004636 0.0015333 0.0020630 0.0042313 -0.0005813 0.0024259 0.0000780 0.0042913 -0.0000899 0.0023119 -0.0006276 0.0020010
-0.0019873 0.0012306 -0.0002853 0.0006076 0.0000038 0.0019246 -0.0006808 0.0020759 -0.0004526 0.0014164 0.0021038 0.0042100 -0.0005407 0.0023971 0.0001114 0.0042741 -0.0000542 0.0023598 -0.0005441 0.0020109
-0.0018632 0.0010848 -0.0002566 0.0008024 0.0000381 0.0021224 -0.0006683 0.0022119 -0.0004560 0.0016602 0.0021345 0.0044991 -0.0005020 0.0026324 0.0001452 0.0045294 -0.0000250 0.0024885 -0.0005168 0.0021743
-0.0016323 0.0011146 -0.0002572 0.0011474 0.0000485 0.0024538 -0.0006847 0.0025110 -0.0004731 0.0020237 0.0021461 0.0047430 -0.0004922 0.0027764 0.0001476 0.0045557 -0.0000584 0.0024106 -0.0005277 0.0021030
-0.0013010 0.0010826 -0.0002579 0.0009520 0.0000511 0.0023920 -0.0006967 0.0023419 -0.0004693 0.0017532 0.0021240 0.0043552 -0.0005214 0.0024484 0.0001397 0.0042443 -0.0001131 0.0021438 -0.0005066 0.0018491
-0.0008840 0.0004949 -0.0002263 0.0005068 0.0000618 0.0020623 -0.0006907 0.0018937 -0.0004464 0.0012461 0.0020941 0.0038975 -0.0005460 0.0021011 0.0001568 0.0041119 -0.0001038 0.0019915 -0.0004734 0.0018007
-0.0003027 -0.0001529 -0.0001844 0.0005766 0.0000541 0.0021142 -0.0006765 0.0019182 -0.0004142 0.0014886 0.0020669 0.0040135 -0.0005560 0.0019964 0.0002769 0.0041257 -0.0000091 0.0022857 -0.0004540 0.0023044
-0.0002921 0.0005913 -0.0002537 0.0005677 0.0000878 0.0023331 -0.0006391 0.0021392 -0.0004373 0.0018211 0.0020960 0.0047372 -0.0004717 0.0023342 0.0004102 0.0039659 0.0000130 0.0025936 -0.0004521 0.0025422
-0.0002351 0.0010942 -0.0003265 0.0001536 0.0001406 0.0021906 -0.0005952 0.0020212 -0.0004745 0.0015173 0.0021697 0.0047984 -0.0003939 0.0022911 0.0003534 0.0034092 -0.0000438 0.0023547 -0.0004393 0.0020208
-0.0003114 0.0006360 -0.0002457 -0.0002249 0.0001257 0.0017936 -0.0005521 0.0017226 -0.0004402 0.0011627 0.0021784 0.0041075 -0.0004049 0.0017989 0.0002529 0.0030240 -0.0000491 0.0020251 -0.0003994 0.0016628
-0.0012587 0.0013901 -0.0001563 -0.0002007 0.0001080 0.0016773 -0.0005052 0.0016958 -0.0004036 0.0012625 0.0021830 0.0040417 -0.0003841 0.0018584 0.0002628 0.0032458 -0.0000281 0.0019744 -0.0003617 0.0016969
-0.0018491 0.0022657 -0.0000936 0.0001351 0.0001216 0.0018995 -0.0004849 0.0019000 -0.0003863 0.0015642 0.0021926 0.0043093 -0.0003692 0.0021239 0.0002779 0.0035281 -0.0000343 0.0020915 -0.0003392 0.0017642
-0.0012241 0.0015464 -0.0000687 0.0001737 0.0001241 0.0019463 -0.0004731 0.0019041 -0.0003751 0.0014965 0.0021816 0.0040684 -0.0003737 0.0019123 0.0002707 0.0032907 -0.0000314 0.0019524 -0.0003073 0.0015949
-0.0006058 0.0008734 -0.0000674 -0.0001477 0.0001183 0.0016872 -0.0004456 0.0015925 -0.0003455 0.0011106 0.0021781 0.0035488 -0.0003653 0.0014469 0.0002844 0.0029603 -0.0000005 0.0017262 -0.0002486 0.0014316
-0.0003107 0.0006647 -0.0000374 -0.0002268 0.0001393 0.0016118 -0.0004135 0.0014578 -0.0003101 0.0010653 0.0021956 0.0035638 -0.0003316 0.0014567 0.0003233 0.0030749 0.0000336 0.0017555 -0.0002097 0.0014627
0.0002463 0.0001887 0.0000064 0.0000017 0.0001708 0.0018117 -0.0003910 0.0016271 -0.0002903 0.0013103 0.0022125 0.0038601 -0.0003053 0.0017218 0.0003740 0.0033999 0.0000749 0.0018824 -0.0001847 0.0016239
0.0003021 0.0005267 0.0000220 0.0001573 0.0001904 0.0019616 -0.0003796 0.0017238 -0.0002851 0.0013139 0.0022152 0.0037673 -0.0002931 0.0016430 0.0003920 0.0032656 0.0000829 0.0017774 -0.0001531 0.0015115
-0.0000457 0.0006363 0.0000366 -0.0001386 0.0001991 0.0017352 -0.0003615 0.0014364 -0.0002721 0.0009299 0.0022190 0.0033043 -0.0002757 0.0012474 0.0004058 0.0028651 0.0000939 0.0014921 -0.0000793 0.0012375
-0.0006999 0.0005033 0.0000868 -0.0004321 0.0002203 0.0015000 -0.0003197 0.0011676 -0.0002438 0.0007136 0.0022354 0.0032016 -0.0002303 0.0011934 0.0004772 0.0029517 0.0001153 0.0014426 -0.0000235 0.0012234
-0.0010320 0.0010900 0.0001375 -0.0003012 0.0002865 0.0016358 -0.0002877 0.0012097 -0.0002164 0.0008127 0.0022492 0.0034303 -0.0001974 0.0014159 0.0005177 0.0032889 0.0001261 0.0016096 -0.0000579 0.0013263
-0.0004658 0.0009584 0.0001930 0.0000501 0.0003216 0.0019769 -0.0002823 0.0013999 -0.0001900 0.0010069 0.0022550 0.0034577 -0.0001889 0.0014383 0.0005020 0.0033063 0.0001838 0.0016064 -0.0000757 0.0012778
-0.0002155 0.0001173 0.0002267 -0.0000895 0.0003170 0.0019439 -0.0002720 0.0011900 -0.0001607 0.0007521 0.0022525 0.0030873 -0.0001754 0.0011215 0.0005463 0.0031100 0.0002655 0.0013826 -0.0000178 0.0010984
-0.0003434 0.0000757 0.0002532 -0.0005070 0.0003447 0.0016829 -0.0002370 0.0007668 -0.0001271 0.0003594 0.0022557 0.0028783 -0.0001441 0.0009409 0.0006210 0.0031383 0.0003142 0.0013092 0.0000454 0.0010718
0.0003143 0.0000320 0.0002995 -0.0004712 0.0003799 0.0017365 -0.0001897 0.0007794 -0.0000931 0.0004261 0.0022724 0.0030566 -0.0000980 0.0010626 0.0006759 0.0033324 0.0003281 0.0014117 0.0000762 0.0012121
0.0008996 -0.0004333 0.0003138 -0.0002656 0.0003932 0.0019237 -0.0001603 0.0010139 -0.0000776 0.0006914 0.0022973 0.0033270 -0.0000595 0.0012123 0.0007061 0.0033591 0.0003289 0.0014080 0.0000924 0.0011935
0.0004264 -0.0002143 0.0003121 -0.0004008 0.0003966 0.0019049 -0.0001371 0.0009191 -0.0000550 0.0005675 0.0023042 0.0030574 -0.0000518 0.0009398 0.0007308 0.0030729 0.0003386 0.0012061 0.0001395 0.0009673
-0.0003728 0.0002698 0.0003409 -0.0008272 0.0004161 0.0015831 -0.0000918 0.0005070 -0.0000190 0.0001337 0.0023174 0.0026303 -0.0000259 0.0005987 0.0007735 0.0028935 0.0003647 0.0010232 0.0001814 0.0008029
-0.0004092 0.0000231 0.0004047 -0.0008780 0.0004478 0.0014768 -0.0000276 0.0004312 0.0000215 0.0001047 0.0023622 0.0027543 0.0000352 0.0007108 0.0008073 0.0030406 0.0003973 0.0011045 0.0002017 0.0008133
-0.0005477 0.0002256 0.0004391 -0.0005974 0.0004729 0.0016973 0.0000140 0.0006575 0.0000507 0.0003710 0.0023899 0.0030835 0.0000706 0.0010040 0.0008378 0.0033674 0.0004218 0.0013533 0.0002198 0.0009918
-0.0008006 0.0009910 0.0004221 -0.0003777 0.0004887 0.0019315 0.0000301 0.0008015 0.0000612 0.0004146 0.0023880 0.0030406 0.0000852 0.0009630 0.0008314 0.0032790 0.0004476 0.0012660 0.0002369 0.0008986
-0.0004493 0.0003290 0.0004194 -0.0006410 0.0004910 0.0017501 0.0000535 0.0005320 0.0000823 0.0000920 0.0023845 0.0026093 0.0001039 0.0006087 0.0008350 0.0029576 0.0004560 0.0010285 0.0002708 0.0006382
0.0008593 -0.0013277 0.0004344 -0.0009448 0.0005076 0.0015277 0.0000989 0.0002570 0.0001176 -0.0001071 0.0023892 0.0024805 0.0001302 0.0005196 0.0008815 0.0030061 0.0004605 0.0010362 0.0002972 0.0006457
0.0012014 -0.0010995 0.0004322 -0.0008405 0.0005451 0.0016845 0.0001407 0.0003472 0.0001474 0.0000062 0.0023939 0.0026694 0.0001436 0.0006583 0.0009173 0.0032298 0.0004697 0.0011791 0.0003178 0.0008421
0.0007679 -0.0003806 0.0004021 -0.0006367 0.0005682 0.0019313 0.0001513 0.0005700 0.0001541 0.0002542 0.0023924 0.0028898 0.0001435 0.0007637 0.0009436 0.0032918 0.0004626 0.0012709 0.0003509 0.0008952
0.0005720 -0.0004965 0.0003636 -0.0008028 0.0005904 0.0019662 0.0001562 0.0004866 0.0001618 0.0001038 0.0023674 0.0026049 0.0001284 0.0004651 0.0009499 0.0030303 0.0004388 0.0010897 0.0003772 0.0006906
-0.0002095 -0.0000021 0.0003229 -0.0011761 0.0006075 0.0017476 0.0001867 0.0001162 0.0001883 -0.0002919 0.0023689 0.0021984 0.0001476 0.0001559 0.0009528 0.0028201 0.0004644 0.0008840 0.0003958 0.0005690
-0.0010776 0.0007552 0.0002862 -0.0012085 0.0006236 0.0016806 0.0002387 0.0000475 0.0002180 -0.0003183 0.0024017 0.0023128 0.0001904 0.0002845 0.0009586 0.0029344 0.0004894 0.0009081 0.0004093 0.0006375
-0.0009367 0.0005920 0.0002447 -0.0009992 0.0006474 0.0019189 0.0002659 0.0002464 0.0002338 -0.0001186 0.0024085 0.0026144 0.0001864 0.0005664 0.0009741 0.0033123 0.0004781 0.0010489 0.0003837 0.0008237
-0.0006914 0.0008745 0.0001639 -0.0008049 0.0006686 0.0022053 0.0002566 0.0003211 0.0002254 -0.0001290 0.0024019 0.0025863 0.0001740 0.0005436 0.0009738 0.0033183 0.0005051 0.0009790 0.0003541 0.0007244
-0.0002158 0.0004462 0.0000707 -0.0010365 0.0006675 0.0020513 0.0002565 -0.0000026 0.0002228 -0.0005006 0.0023930 0.0021568 0.0001830 0.0001651 0.0009662 0.0029943 0.0005228 0.0007658 0.0003480 0.0004141
0.0009854 -0.0011243 0.0000531 -0.0012850 0.0006625 0.0017994 0.0002708 -0.0003243 0.0002510 -0.0006969 0.0023927 0.0020544 0.0001945 0.0000923 0.0009949 0.0030832 0.0005381 0.0007662 0.0003536 0.0004174
0.0010603 -0.0008771 0.0000513 -0.0011061 0.0006622 0.0018188 0.0002759 -0.0002686 0.0002745 -0.0005533 0.0024106 0.0023521 0.0002113 0.0003679 0.0010095 0.0033552 0.0005517 0.0009243 0.0003481 0.0005916
0.0005042 -0.0002384 0.0000211 -0.0007931 0.0006340 0.0019075 0.0002734 -0.0000007 0.0002735 -0.0002349 0.0024303 0.0027386 0.0002463 0.0006957 0.0009970 0.0034478 0.0005445 0.0010207 0.0003065 0.0005940
-0.0000654 -0.0001086 0.0000110 -0.0007876 0.0006031 0.0018454 0.0002698 -0.0000197 0.0002712 -0.0002824 0.0024306 0.0025932 0.0002476 0.0005598 0.0009837 0.0032838 0.0005550 0.0009000 0.0002941 0.0004169
-0.0003926 -0.0000062 0.0000150 -0.0010491 0.0005961 0.0016186 0.0002767 -0.0003760 0.0002830 -0.0006493 0.0024239 0.0021593 0.0002258 0.0002146 0.0009961 0.0031534 0.0005680 0.0007582 0.0003171 0.0003436
-0.0001959 -0.0001543 0.0000024 -0.0010981 0.0006022 0.0015467 0.0003041 -0.0004667 0.0002989 -0.0006754 0.0024253 0.0021923 0.0002335 0.0002490 0.0009981 0.0032412 0.0005533 0.0008519 0.0003117 0.0004176
-0.0002048 -0.0001929 -0.0000346 -0.0008645 0.0005979 0.0016976 0.0003189 -0.0002611 0.0003075 -0.0004382 0.0024286 0.0024786 0.0002481 0.0004881 0.0009925 0.0034820 0.0005539 0.0010627 0.0002751 0.0006008
-0.0003499 0.0002615 -0.0000802 -0.0006793 0.0005948 0.0018689 0.0003134 -0.0001334 0.0003003 -0.0003946 0.0024196 0.0024676 0.0002422 0.0004862 0.0009860 0.0034539 0.0005548 0.0009973 0.0002523 0.0005545
0.0004477 -0.0002112 -0.0001068 -0.0009040 0.0005886 0.0017336 0.0003113 -0.0003801 0.0002999 -0.0006989 0.0023998 0.0021160 0.0002289 0.0001884 0.0009788 0.0032229 0.0005709 0.0007675 0.0002505 0.0003359
0.0013414 -0.0014633 -0.0001111 -0.0011194 0.0005865 0.0015710 0.0003240 -0.0006110 0.0003185 -0.0008527 0.0023958 0.0020486 0.0002312 0.0001531 0.0009974 0.0032678 0.0005763 0.0007675 0.0002436 0.0003474
0.0008512 -0.0009184 -0.0001330 -0.0009804 0.0005885 0.0016532 0.0003378 -0.0004843 0.0003312 -0.0006654 0.0024044 0.0023205 0.0002349 0.0004035 0.0010127 0.0034921 0.0005485 0.0009834 0.0002272 0.0005172
-0.0004385 0.0005914 -0.0001452 -0.0007284 0.0005825 0.0018638 0.0003310 -0.0002160 0.0003239 -0.0003720 0.0024168 0.0026730 0.0002420 0.0006786 0.0010170 0.0036204 0.0005437 0.0010467 0.0001947 0.0005929
-0.0009180 0.0004706 -0.0001541 -0.0008302 0.0005708 0.0018276 0.0003204 -0.0002917 0.0003136 -0.0005008 0.0024055 0.0024807 0.0002323 0.0005124 0.0009931 0.0034002 0.0005473 0.0008433 0.0001828 0.0004038
-0.0012425 0.0001717 -0.0001602 -0.0011350 0.0005626 0.0015651 0.0003264 -0.0006586 0.0003244 -0.0008662 0.0023834 0.0020786 0.0002214 0.0002440 0.0009860 0.0032789 0.0005588 0.0007245 0.0001887 0.0003233
-0.0015667 0.0008590 -0.0001768 -0.0011423 0.0005658 0.0015479 0.0003443 -0.0007026 0.0003446 -0.0008508 0.0023840 0.0021833 0.0002342 0.0003785 0.0010072 0.0034653 0.0005714 0.0008098 0.0001967 0.0004608
-0.0009739 0.0004112 -0.0001924 -0.0009239 0.0005697 0.0017511 0.0003488 -0.0004794 0.0003487 -0.0006338 0.0023883 0.0025032 0.0002407 0.0006612 0.0010080 0.0037168 0.0005515 0.0010021 0.0001656 0.0006400
0.0011610 -0.0015655 -0.0002196 -0.0006297 0.0005616 0.0020087 0.0003301 -0.0001837 0.0003317 -0.0004098 0.0023837 0.0027047 0.0002445 0.0008264 0.0009903 0.0037512 0.0005194 0.0010373 0.0001184 0.0006834
0.0016919 -0.0013675 -0.0002495 -0.0007317 0.0005438 0.0019235 0.0003139 -0.0003016 0.0003236 -0.0005791 0.0023649 0.0024399 0.0002208 0.0005939 0.0009786 0.0035152 0.0005216 0.0008634 0.0001222 0.0005430
0.0011291 -0.0010963 -0.0002246 -0.0010917 0.0005437 0.0016729 0.0003216 -0.0006692 0.0003371 -0.0009060 0.0023407 0.0021518 0.0001873 0.0003532 0.0010154 0.0034805 0.0005492 0.0008281 0.0001582 0.0005572
0.0007784 -0.0014474 -0.0001805 -0.0011309 0.0005570 0.0016722 0.0003309 -0.0006857 0.0003517 -0.0008745 0.0023078 0.0021722 0.0001564 0.0003199 0.0010556 0.0035862 0.0005445 0.0010613 0.0001781 0.0007561
-0.0005075 -0.0000151 -0.0001787 -0.0008722 0.0005467 0.0018272 0.0003296 -0.0004292 0.0003626 -0.0005284 0.0022947 0.0024201 0.0001511 0.0004884 0.0010086 0.0035457 0.0005031 0.0013192 0.0001465 0.0008700
-0.0015099 0.0009176 -0.0002172 -0.0008161 0.0004968 0.0017714 0.0003347 -0.0002919 0.0003574 -0.0004206 0.0023505 0.0025688 0.0002061 0.0006015 0.0009601 0.0032620 0.0004628 0.0011636 0.0001330 0.0006813
-0.0011962 0.0001784 -0.0002351 -0.0011173 0.0004534 0.0014374 0.0003495 -0.0005089 0.0003510 -0.0007082 0.0023912 0.0024101 0.0002507 0.0004746 0.0009593 0.0029885 0.0004573 0.0008711 0.0001140 0.0004243
-0.0005857 -0.0002157 -0.0002165 -0.0011211 0.0004226 0.0012590 0.0003748 -0.0005806 0.0003672 -0.0006961 0.0023893 0.0024394 0.0002742 0.0005379 0.0009607 0.0030644 0.0004852 0.0009416 0.0000900 0.0004734
-0.0001268 -0.0002877 -0.0002056 -0.0008005 0.0004084 0.0013807 0.0003861 -0.0003441 0.0003740 -0.0004033 0.0023862 0.0027352 0.0002847 0.0007979 0.0009623 0.0032907 0.0005228 0.0011093 0.0000610 0.0006348
0.0008598 -0.0010932 -0.0001980 -0.0005135 0.0004143 0.0016568 0.0003671 -0.0000112 0.0003625 -0.0000484 0.0023865 0.0030872 0.0002797 0.0010523 0.0009596 0.0034208 0.0005149 0.0011689 0.0000168 0.0006670
0.0010552 -0.0009488 -0.0001861 -0.0005444 0.0004098 0.0016250 0.0003382 -0.0000664 0.0003410 -0.0001792 0.0023791 0.0029234 0.0002529 0.0009022 0.0009674 0.0032400 0.0004786 0.0010401 0.0000638 0.0005701
0.0006819 -0.0009376 -0.0001448 -0.0008274 0.0003998 0.0013250 0.0003316 -0.0004214 0.0003407 -0.0005687 0.0023516 0.0024602 0.0002153 0.0004919 0.0009464 0.0028967 0.0004596 0.0009636 0.0001427 0.0005634
-0.0004944 -0.0007202 -0.0000903 -0.0007900 0.0003651 0.0012146 0.0003523 -0.0004031 0.0003680 -0.0004173 0.0023094 0.0023784 0.0001875 0.0003800 0.0009054 0.0027965 0.0005023 0.0012069 0.0001409 0.0007370
-0.0014162 0.0004934 -0.0001341 -0.0005421 0.0003324 0.0013634 0.0003829 -0.0000333 0.0003648 0.0000224 0.0022902 0.0026535 0.0001885 0.0006236 0.0008548 0.0028165 0.0005325 0.0014646 0.0000873 0.0009137
-0.0004629 0.0004837 -0.0002244 -0.0002839 0.0002777 0.0015504 0.0003953 0.0004408 0.0003394 0.0004808 0.0023091 0.0029910 0.0002040 0.0008418 0.0007897 0.0026362 0.0004784 0.0013967 0.0000765 0.0008744
0.0000241 -0.0002540 -0.0002859 -0.0004076 0.0001788 0.0013499 0.0003988 0.0004893 0.0003309 0.0004389 0.0022785 0.0027322 0.0001885 0.0004832 0.0007430 0.0020224 0.0004397 0.0012225 0.0001305 0.0006023
-0.0002037 -0.0001689 -0.0003565 -0.0008967 0.0001170 0.0009329 0.0004420 0.0002965 0.0003332 0.0002110 0.0022297 0.0024030 0.0002061 0.0001692 0.0007047 0.0013020 0.0004131 0.0011925 0.0001688 0.0003653
0.0006335 -0.0002519 -0.0004265 -0.0012109 0.0001152 0.0007890 0.0005144 0.0005195 0.0003401 0.0004253 0.0022324 0.0026269 0.0002823 0.0005127 0.0006698 0.0012698 0.0003490 0.0011728 0.0001406 0.0002545
0.0014494 -0.0008967 -0.0003945 -0.0009685 0.0001371 0.0010963 0.0005283 0.0009250 0.0003537 0.0008716 0.0022667 0.0030622 0.0002963 0.0009097 0.0005804 0.0015167 0.0002835 0.0011744 0.0001163 0.0004239
0.0006688 -0.0002973 -0.0003471 -0.0004529 0.0001551 0.0015375 0.0004843 0.0012490 0.0003362 0.0012664 0.0022440 0.0033888 0.0002407 0.0011731 0.0005512 0.0018122 0.0002510 0.0013190 0.0001142 0.0006999
-0.0009123 0.0012771 -0.0003430 -0.0001004 0.0001431 0.0018482 0.0004498 0.0016110 0.0002952 0.0014571 0.0021979 0.0033713 0.0002246 0.0012524 0.0005516 0.0018668 0.0001769 0.0011874 0.0000703 0.0005794
-0.0014412 0.0008871 -0.0003138 -0.0003184 0.0001263 0.0017353 0.0004333 0.0015250 0.0002962 0.0011737 0.0021672 0.0029914 0.0001790 0.0009185 0.0005294 0.0016562 0.0001520 0.0008472 0.0000209 0.0003186
-0.0017218 0.0004288 -0.0003172 -0.0008366 0.0001367 0.0013935 0.0004282 0.0011190 0.0003120 0.0007835 0.0021087 0.0026763 0.0001020 0.0006490 0.0005485 0.0018020 0.0001566 0.0007531 -0.0000109 0.0003088
-0.0016728 0.0015311 -0.0003403 -0.0008172 0.0001431 0.0013801 0.0004140 0.0010844 0.0003080 0.0008644 0.0020685 0.0027951 0.0000615 0.0007694 0.0005310 0.0020898 0.0001153 0.0007607 -0.0000736 0.0003786
-0.0003080 0.0002096 -0.0003534 -0.0006319 0.0001420 0.0015838 0.0003802 0.0013045 0.0002819 0.0011461 0.0020481 0.0031027 0.0000357 0.0010355 0.0005267 0.0024007 0.0001377 0.0009649 -0.0000981 0.0005822
0.0033795 -0.0036490 -0.0003860 -0.0003842 0.0001814 0.0019958 0.0003171 0.0015654 0.0002249 0.0013980 0.0020450 0.0034467 0.0000179 0.0012911 0.0005168 0.0025479 0.0001382 0.0010938 -0.0000873 0.0007356
0.0034041 -0.0021120 -0.0004146 -0.0004440 0.0002097 0.0020591 0.0002630 0.0014747 0.0001841 0.0011915 0.0019949 0.0031728 -0.0000426 0.0010105 0.0004503 0.0022116 0.0000425 0.0008730 -0.0001177 0.0004883
0.0016467 -0.0004773 -0.0003986 -0.0009311 0.0001618 0.0016398 0.0002622 0.0012426 0.0001895 0.0009495 0.0019109 0.0026431 -0.0000972 0.0006009 0.0003586 0.0018153 -0.0000178 0.0005590 -0.0001471 0.0001974
0.0010177 -0.0013433 -0.0003497 -0.0011152 0.0001158 0.0014243 0.0002663 0.0013103 0.0001927 0.0011150 0.0018867 0.0027437 -0.0001006 0.0007417 0.0003424 0.0019399 -0.0000127 0.0005621 -0.0001480 0.0002661
-0.0011308 0.0009768 -0.0003376 -0.0008445 0.0001055 0.0015624 0.0002418 0.0015617 0.0001661 0.0014448 0.0018835 0.0031212 -0.0001003 0.0010735 0.0003452 0.0022339 -0.0000335 0.0007931 -0.0001532 0.0004718
-0.0022351 0.0026044 -0.0003360 -0.0004317 0.0000853 0.0018355 0.0001983 0.0019075 0.0001334 0.0019250 0.0018678 0.0035398 -0.0001093 0.0014323 0.0003198 0.0023951 -0.0000560 0.0009672 -0.0001627 0.0005666
-0.0011784 0.0013221 -0.0003475 -0.0004299 0.0000585 0.0018284 0.0001632 0.0019270 0.0001074 0.0018518 0.0018263 0.0033694 -0.0001571 0.0012671 0.0002781 0.0021432 -0.0000605 0.0008398 -0.0001612 0.0003897
-0.0001833 0.0003937 -0.0003703 -0.0007239 0.0000266 0.0015730 0.0001319 0.0016511 0.0000975 0.0014867 0.0017679 0.0028996 -0.0002267 0.0007757 0.0002498 0.0017662 -0.0000124 0.0007584 -0.0001447 0.0003233
-0.0000381 0.0003372 -0.0003730 -0.0007871 0.0000057 0.0014983 0.0001019 0.0016167 0.0000764 0.0015228 0.0017316 0.0029435 -0.0002538 0.0007657 0.0003215 0.0018727 0.0000468 0.0010166 -0.0001177 0.0006004
0.0005753 -0.0002114 -0.0003607 -0.0006650 0.0000308 0.0016404 0.0000804 0.0018128 0.0000471 0.0018168 0.0017305 0.0033419 -0.0002507 0.0010898 0.0003468 0.0020937 0.0000455 0.0012910 -0.0001422 0.0007929
0.0005168 0.0002127 -0.0003500 -0.0004262 0.0000386 0.0018193 0.0000554 0.0020555 0.0000251 0.0020361 0.0017628 0.0036041 -0.0002337 0.0012543 0.0002852 0.0019394 0.0000478 0.0012563 -0.0001684 0.0006630
-0.0001966 0.0004831 -0.0003588 -0.0006140 0.0000181 0.0016181 0.0000317 0.0019397 -0.0000046 0.0017774 0.0017805 0.0034522 -0.0002219 0.0011162 0.0002697 0.0016600 0.0000544 0.0009687 -0.0001069 0.0004532
-0.0014268 0.0006074 -0.0003249 -0.0009135 0.0000103 0.0012964 0.0000191 0.0017130 -0.0000226 0.0015751 0.0017873 0.0033960 -0.0002112 0.0010900 0.0002622 0.0015711 0.0000369 0.0009556 -0.0000504 0.0004999
-0.0021197 0.0013353 -0.0003119 -0.0008366 0.0000107 0.0013051 0.0000215 0.0018667 -0.0000304 0.0018097 0.0017849 0.0035909 -0.0002009 0.0012551 0.0002470 0.0016708 0.0000116 0.0010470 -0.0000651 0.0006669
-0.0005484 0.0006704 -0.0003156 -0.0006251 0.0000043 0.0014000 0.0000061 0.0020950 -0.0000399 0.0021144 0.0017471 0.0037872 -0.0002141 0.0014032 0.0003251 0.0019627 0.0000394 0.0011121 -0.0000949 0.0007175
0.0005276 -0.0002062 -0.0002951 -0.0006801 0.0000668 0.0013559 -0.0000213 0.0018680 -0.0000690 0.0017296 0.0017245 0.0035398 -0.0002086 0.0012335 0.0003181 0.0017873 0.0000434 0.0009429 -0.0001335 0.0004208
0.0002316 -0.0001858 -0.0002521 -0.0009722 0.0001170 0.0012779 -0.0000151 0.0016242 -0.0000489 0.0013936 0.0017168 0.0031607 -0.0002277 0.0009475 0.0002035 0.0014708 0.0000011 0.0004934 -0.0001469 0.0001594
0.0003649 -0.0006111 -0.0001386 -0.0008736 0.0001151 0.0012905 -0.0000085 0.0016250 -0.0000073 0.0015108 0.0017319 0.0032839 -0.0002249 0.0010875 0.0002860 0.0018822 0.0000010 0.0005288 -0.0000686 0.0003769
0.0003047 -0.0006735 -0.0000570 -0.0005605 0.0001620 0.0014059 -0.0000182 0.0017072 -0.0000152 0.0016057 0.0017691 0.0036356 -0.0001702 0.0014648 0.0003814 0.0023156 -0.0000340 0.0005510 0.0000066 0.0005846
-0.0003799 0.0001653 -0.0000459 -0.0003644 0.0002185 0.0016580 -0.0000248 0.0018897 -0.0000143 0.0016441 0.0017842 0.0036210 -0.0001676 0.0013882 0.0002888 0.0019619 -0.0002000 -0.0001155 0.0000786 0.0001881
-0.0010642 0.0003874 -0.0000506 -0.0007353 0.0002271 0.0014871 -0.0000397 0.0016112 -0.0000143 0.0012564 0.0017298 0.0030704 -0.0002231 0.0009314 0.0002336 0.0015830 -0.0002849 -0.0006681 0.0001588 -0.0002294
-0.0010822 -0.0000384 -0.0000830 -0.0013518 0.0002208 0.0011065 -0.0000312 0.0012368 -0.0000085 0.0009771 0.0016830 0.0027863 -0.0002301 0.0008142 0.0002929 0.0017522 -0.0002223 -0.0007878 0.0001879 -0.0002416
-0.0007161 0.0000028 -0.0001083 -0.0014413 0.0002531 0.0011806 -0.0000109 0.0012435 0.0000191 0.0010501 0.0016972 0.0029819 -0.0002070 0.0009870 0.0003424 0.0020265 -0.0001960 -0.0007526 0.0001857 -0.0001309
-0.0002443 0.0001650 -0.0001016 -0.0011581 0.0002802 0.0014902 -0.0000143 0.0014205 0.0000291 0.0012420 0.0017105 0.0032790 -0.0001897 0.0011982 0.0003679 0.0021902 -0.0002043 -0.0006209 0.0001979 -0.0000310
0.0001016 -0.0001326 -0.0000924 -0.0011681 0.0002859 0.0015111 -0.0000209 0.0013364 0.0000354 0.0010821 0.0017210 0.0031547 -0.0001664 0.0010775 0.0003690 0.0019563 -0.0001759 -0.0006217 0.0002128 -0.0001720
0.0003784 -0.0007814 -0.0000859 -0.0014456 0.0003168 0.0013233 -0.0000015 0.0010337 0.0000560 0.0007250 0.0017316 0.0028638 -0.0001475 0.0008452 0.0003784 0.0017727 -0.0001048 -0.0006618 0.0001952 -0.0002724
0.0001994 -0.0005643 -0.0000409 -0.0013419 0.0003416 0.0013338 0.0000327 0.0010013 0.0000854 0.0007784 0.0017583 0.0030027 -0.0001176 0.0009518 0.0004416 0.0019420 -0.0000547 -0.0003821 0.0001924 -0.0000965
-0.0000601 -0.0000545 0.0000037 -0.0009824 0.0003506 0.0015070 0.0000466 0.0012024 0.0001003 0.0010601 0.0017729 0.0033691 -0.0001070 0.0012198 0.0004984 0.0022737 0.0000019 0.0000038 0.0001894 0.0001888
-0.0001767 0.0001801 0.0000190 -0.0006232 0.0003793 0.0018385 0.0000197 0.0014163 0.0000919 0.0011960 0.0017867 0.0035627 -0.0001288 0.0013197 0.0004805 0.0023657 0.0000423 0.0000137 0.0001753 0.0001769
-0.0007556 0.0005694 0.0000308 -0.0007426 0.0003865 0.0018830 -0.0000400 0.0011778 0.0000860 0.0009073 0.0017837 0.0033356 -0.0001872 0.0011029 0.0004543 0.0023058 0.0000726 -0.0001332 0.0001586 0.0000156
-0.0010694 0.0009231 0.0000461 -0.0011138 0.0003984 0.0017571 -0.0000828 0.0007684 0.0000903 0.0005776 0.0017549 0.0031451 -0.0002432 0.0009746 0.0004731 0.0024822 0.0000992 -0.0001132 0.0001628 0.0001088
-0.0001912 0.0004528 0.0000561 -0.0010968 0.0004253 0.0018545 -0.0000927 0.0007465 0.0000957 0.0005941 0.0017540 0.0032816 -0.0002431 0.0011035 0.0005039 0.0026638 0.0001067 0.0000230 0.0001988 0.0003554
0.0004818 -0.0000089 0.0000475 -0.0008610 0.0004479 0.0020856 -0.0000986 0.0009232 0.0000885 0.0007403 0.0017787 0.0035468 -0.0002096 0.0012705 0.0005133 0.0026850 0.0000738 0.0001131 0.0001968 0.0004378
0.0003353 0.0000619 0.0000386 -0.0009239 0.0004512 0.0020775 -0.0001056 0.0007931 0.0000804 0.0005303 0.0017747 0.0033468 -0.0002179 0.0011079 0.0005034 0.0024848 0.0000552 -0.0000819 0.0001767 0.0002094
-0.0001043 0.0000865 0.0000524 -0.0012868 0.0004473 0.0017457 -0.0000936 0.0004049 0.0000928 0.0001279 0.0017673 0.0029577 -0.0002229 0.0008747 0.0005174 0.0023377 0.0000890 -0.0002445 0.0001925 0.0000830
-0.0004008 0.0000719 0.0000717 -0.0013313 0.0004546 0.0016198 -0.0000606 0.0003399 0.0001134 0.0001197 0.0017819 0.0030197 -0.0001896 0.0009500 0.0005401 0.0024258 0.0001035 -0.0001589 0.0002234 0.0001739
-0.0006690 0.0003917 0.0000554 -0.0010894 0.0004659 0.0017862 -0.0000400 0.0005660 0.0001174 0.0003733 0.0018111 0.0033417 -0.0001507 0.0012162 0.0005477 0.0025325 0.0001271 0.0000345 0.0002677 0.0002452
-0.0010648 0.0009494 0.0000097 -0.0010942 0.0004855 0.0018992 -0.0000386 0.0006067 0.0001032 0.0003147 0.0018415 0.0032714 -0.0001212 0.0011197 0.0005406 0.0022535 0.0001579 -0.0000554 0.0003151 0.0000211
