-0.0000000 -0.0000000 -0.0000000 -0.0000000 -0.0000000 -0.0000000 -0.0000000 -0.0000000 -0.0000000 -0.0000000 -0.0000000 -0.0000000 -0.0000000 -0.0000000 -0.0000000 -0.0000000 -0.0000000 -0.0000000 -0.0000000 -0.0000000
-0.0000000 -0.0000000 -0.0000000 -0.0000000 -0.0000000 -0.0000000 -0.0000000 -0.0000000 -0.0000000 -0.0000000 -0.0000000 -0.0000000 -0.0000000 -0.0000000 -0.0000000 -0.0000000 -0.0000000 -0.0000000 -0.0000000 -0.0000000
0.0000204 0.0000293 0.0000014 0.0000223 0.0000087 0.0000163 0.0000104 0.0000295 0.0000068 0.0000531 0.0000030 0.0000561 0.0000050 0.0000681 0.0000008 0.0000787 0.0000202 0.0000434 0.0000100 0.0000958
0.0000060 0.0002009 -0.0000098 0.0000986 -0.0000077 0.0000985 -0.0000000 0.0001090 0.0000012 0.0001456 0.0000024 0.0001029 0.0000049 0.0001068 -0.0000066 0.0000525 0.0000046 0.0000184 0.0000020 0.0000672
0.0000199 0.0000472 -0.0000253 0.0000530 -0.0000044 0.0000661 0.0000037 0.0000633 0.0000068 0.0000618 0.0000043 -0.0000176 0.0000142 -0.0000035 -0.0000120 -0.0000629 -0.0000326 -0.0000888 -0.0000301 -0.0001058
0.0000445 -0.0003220 -0.0000194 -0.0000955 0.0000272 -0.0000877 0.0000373 -0.0001136 0.0000322 -0.0001405 0.0000130 -0.0002025 0.0000211 -0.0001442 0.0000049 -0.0001114 -0.0000133 -0.0001188 -0.0000306 -0.0001671
0.0000624 -0.0003055 -0.0000049 -0.0000936 0.0000393 -0.0001453 0.0000598 -0.0001180 0.0000480 -0.0001175 0.0000214 -0.0001687 0.0000200 -0.0000923 0.0000280 -0.0000535 0.0000246 -0.0000715 -0.0000225 -0.0000770
0.0001174 -0.0001831 -0.0000035 -0.0000492 0.0000781 0.0000217 0.0001099 0.0001171 0.0001968 0.0005746 0.0000889 0.0001289 0.0001440 0.0005144 0.0003006 0.0008278 0.0000816 0.0002550 0.0001227 0.0005015
0.0001769 0.0004668 0.0000538 0.0004241 0.0002456 0.0006716 0.0003677 0.0013731 0.0008627 0.0034714 0.0003793 0.0012465 0.0004514 0.0017519 0.0007009 0.0021815 0.0001433 0.0007533 0.0002772 0.0011817
0.0001877 0.0011292 0.0001600 0.0011185 0.0004530 0.0013935 0.0006938 0.0029511 0.0017816 0.0071501 0.0012150 0.0038548 0.0011183 0.0040585 0.0013324 0.0042360 0.0001533 0.0014122 0.0002831 0.0014545
0.0001232 0.0009009 0.0002952 0.0018846 0.0005949 0.0018313 0.0008923 0.0043230 0.0031876 0.0088495 0.0023573 0.0071253 0.0018175 0.0063713 0.0019552 0.0064636 0.0000429 0.0020791 0.0001798 0.0017106
0.0001185 0.0005636 0.0004482 0.0027010 0.0007006 0.0022688 0.0009376 0.0050931 0.0040755 0.0086266 0.0028466 0.0085833 0.0019935 0.0069342 0.0020310 0.0072055 -0.0001637 0.0021791 0.0000426 0.0017479
0.0001827 0.0006100 0.0005181 0.0030529 0.0007308 0.0026919 0.0007945 0.0049557 0.0028738 0.0078825 0.0027201 0.0084150 0.0019484 0.0067750 0.0019546 0.0073263 -0.0003162 0.0020945 -0.0001202 0.0018364
0.0001551 0.0007774 0.0005185 0.0031614 0.0007115 0.0029840 0.0006454 0.0049201 0.0013836 0.0072779 0.0025411 0.0081720 0.0018528 0.0065705 0.0018307 0.0071259 -0.0003738 0.0020077 -0.0002277 0.0019272
0.0000765 0.0008107 0.0004760 0.0030467 0.0006414 0.0029174 0.0004773 0.0043097 0.0022478 0.0066889 0.0019595 0.0063240 0.0012838 0.0043292 0.0013600 0.0050012 -0.0003983 0.0008105 -0.0002745 0.0008965
-0.0000149 0.0001762 0.0002695 0.0017401 0.0000232 0.0008201 -0.0002060 0.0011152 0.0015919 0.0038430 0.0005970 0.0021116 0.0002052 0.0001626 0.0003187 0.0008255 -0.0003002 -0.0008981 -0.0003869 -0.0008318
-0.0001412 -0.0003933 0.0000733 0.0001860 -0.0008047 -0.0019113 -0.0009664 -0.0024650 -0.0010743 -0.0006940 -0.0006086 -0.0012488 -0.0004807 -0.0021317 -0.0005895 -0.0020173 -0.0001021 -0.0013139 -0.0004314 -0.0015345
-0.0001855 -0.0002055 0.0000720 -0.0000435 -0.0009913 -0.0024095 -0.0010369 -0.0028338 -0.0014203 -0.0022258 -0.0008642 -0.0019972 -0.0006375 -0.0025230 -0.0008834 -0.0028708 0.0000234 -0.0012051 -0.0003883 -0.0015137
-0.0001087 -0.0000081 0.0000566 -0.0000142 -0.0010130 -0.0023255 -0.0010152 -0.0026615 -0.0015016 -0.0025179 -0.0009199 -0.0020202 -0.0006933 -0.0024494 -0.0010050 -0.0030597 0.0000660 -0.0010795 -0.0003672 -0.0013363
-0.0001081 0.0001416 0.0000193 -0.0000244 -0.0009808 -0.0021427 -0.0009885 -0.0025436 -0.0015066 -0.0027051 -0.0009242 -0.0021488 -0.0006975 -0.0025249 -0.0010451 -0.0031771 0.0000147 -0.0011488 -0.0003939 -0.0013907
-0.0000071 -0.0002166 -0.0000088 -0.0001713 -0.0009219 -0.0021474 -0.0009331 -0.0026104 -0.0014661 -0.0029349 -0.0009155 -0.0023965 -0.0006748 -0.0027469 -0.0010462 -0.0033275 -0.0000319 -0.0012947 -0.0004140 -0.0015479
0.0002251 -0.0006252 -0.0000126 -0.0002566 -0.0008585 -0.0021434 -0.0008670 -0.0025882 -0.0014114 -0.0029936 -0.0009042 -0.0024983 -0.0006446 -0.0026593 -0.0009273 -0.0030280 -0.0000111 -0.0012254 -0.0002876 -0.0011060
0.0003750 -0.0002816 -0.0000079 -0.0001481 -0.0005328 -0.0011537 -0.0006535 -0.0018792 -0.0012405 -0.0023900 -0.0008588 -0.0024262 -0.0005504 -0.0022145 -0.0006862 -0.0023732 0.0000417 -0.0009519 -0.0000764 -0.0003855
0.0004226 0.0002303 -0.0000057 0.0000369 -0.0002922 -0.0003479 -0.0005045 -0.0012527 -0.0010986 -0.0017595 -0.0008153 -0.0021679 -0.0005163 -0.0018643 -0.0006254 -0.0021254 0.0001176 -0.0006790 -0.0000511 -0.0000871
0.0003247 0.0004382 -0.0000129 0.0001750 -0.0004508 -0.0006876 -0.0005893 -0.0013300 -0.0010976 -0.0017431 -0.0007915 -0.0020158 -0.0005605 -0.0019186 -0.0007565 -0.0024070 0.0000882 -0.0007288 -0.0001865 -0.0004042
0.0000852 0.0002359 -0.0000372 0.0000476 -0.0005607 -0.0011232 -0.0006210 -0.0015891 -0.0010674 -0.0019206 -0.0007715 -0.0021110 -0.0005797 -0.0021514 -0.0008309 -0.0026422 0.0000254 -0.0009286 -0.0002141 -0.0008362
0.0000615 -0.0001744 -0.0000524 -0.0001334 -0.0005240 -0.0012834 -0.0005801 -0.0017759 -0.0010130 -0.0020714 -0.0007533 -0.0021767 -0.0005733 -0.0022697 -0.0008431 -0.0026769 0.0000502 -0.0009583 -0.0001297 -0.0008831
0.0001036 -0.0003194 -0.0000539 -0.0001186 -0.0004978 -0.0012610 -0.0005571 -0.0017522 -0.0009713 -0.0020076 -0.0007280 -0.0020214 -0.0005532 -0.0021667 -0.0008685 -0.0025535 0.0001074 -0.0008022 -0.0000888 -0.0006837
0.0000484 -0.0001972 -0.0000700 -0.0000449 -0.0005510 -0.0013011 -0.0005770 -0.0017087 -0.0009594 -0.0018845 -0.0007162 -0.0017767 -0.0005623 -0.0019916 -0.0009042 -0.0023889 0.0001614 -0.0006101 -0.0000682 -0.0004574
0.0000795 -0.0000299 -0.0000929 0.0000702 -0.0006081 -0.0012530 -0.0006050 -0.0015749 -0.0009604 -0.0017081 -0.0007107 -0.0015491 -0.0005611 -0.0017852 -0.0009066 -0.0022753 0.0001420 -0.0005719 -0.0001133 -0.0003574
0.0000796 -0.0001144 -0.0001089 0.0000594 -0.0005706 -0.0011366 -0.0005770 -0.0015451 -0.0009396 -0.0017809 -0.0007065 -0.0016508 -0.0005443 -0.0018271 -0.0008906 -0.0022797 0.0000887 -0.0006515 -0.0001420 -0.0004567
0.0001004 -0.0003370 -0.0001061 -0.0000164 -0.0004883 -0.0010667 -0.0005026 -0.0015760 -0.0008850 -0.0019353 -0.0007354 -0.0021201 -0.0005074 -0.0018404 -0.0005249 -0.0018685 0.0000753 -0.0007190 0.0001100 0.0002166
0.0001710 -0.0003841 -0.0000895 0.0000942 -0.0001799 -0.0002743 -0.0003097 -0.0010290 -0.0007327 -0.0014806 -0.0004892 -0.0015326 -0.0002660 -0.0010151 -0.0000904 -0.0008504 0.0001503 -0.0002233 0.0003058 0.0009298
0.0001177 -0.0001244 -0.0000788 0.0002451 0.0000394 0.0003694 -0.0001651 -0.0005295 -0.0006116 -0.0010326 -0.0002391 -0.0006024 -0.0001086 -0.0003765 -0.0001179 -0.0004591 0.0002492 0.0003425 0.0002536 0.0008753
0.0000105 0.0002794 -0.0000646 0.0004057 -0.0000653 0.0002138 -0.0001878 -0.0004655 -0.0006106 -0.0009665 -0.0002641 -0.0005553 -0.0001783 -0.0005414 -0.0002862 -0.0008236 0.0002055 0.0002192 0.0001730 0.0006204
-0.0000592 0.0001774 -0.0000582 0.0003758 -0.0001200 -0.0000306 -0.0001941 -0.0005830 -0.0005922 -0.0010831 -0.0002617 -0.0007201 -0.0001994 -0.0007940 -0.0003110 -0.0010791 0.0001243 -0.0000755 0.0001562 0.0003432
-0.0000642 -0.0001653 -0.0000550 0.0002543 -0.0001264 -0.0003123 -0.0001683 -0.0007765 -0.0005566 -0.0012509 -0.0002567 -0.0008539 -0.0001758 -0.0009201 -0.0002769 -0.0010749 0.0001308 -0.0001145 0.0001926 0.0003111
0.0000121 -0.0001696 -0.0000466 0.0002805 -0.0001041 -0.0002992 -0.0001098 -0.0006595 -0.0005147 -0.0011358 -0.0002289 -0.0007179 -0.0000817 -0.0006365 -0.0000601 -0.0003823 0.0001621 0.0001126 0.0001972 0.0007613
0.0000962 0.0002004 -0.0000907 0.0003869 0.0003058 0.0011192 0.0004232 0.0014330 0.0004322 0.0027649 0.0007344 0.0024220 0.0007460 0.0025731 0.0009900 0.0033326 0.0001491 0.0011200 0.0001892 0.0016405
0.0001337 0.0009822 -0.0000511 0.0011847 0.0007584 0.0028979 0.0009359 0.0041085 0.0024847 0.0052800 0.0017947 0.0056569 0.0015254 0.0055063 0.0018445 0.0063584 0.0000237 0.0018518 0.0001206 0.0019966
0.0000788 0.0011322 0.0000157 0.0017376 0.0008593 0.0030569 0.0009153 0.0044172 0.0036563 0.0044514 0.0018999 0.0056413 0.0015482 0.0055433 0.0019635 0.0065532 -0.0000621 0.0017261 0.0000980 0.0019503
0.0000801 0.0011720 0.0000506 0.0016255 0.0009260 0.0027349 0.0009277 0.0040184 0.0035975 0.0042511 0.0019162 0.0055462 0.0014111 0.0042331 0.0015943 0.0018771 -0.0001094 0.0006142 0.0003539 0.0020811
0.0002501 0.0013061 0.0002426 0.0017314 0.0009477 0.0026817 0.0010183 0.0042350 0.0034874 0.0042011 0.0022668 0.0069786 0.0007056 0.0008969 0.0011090 -0.0029465 -0.0000383 -0.0001752 0.0006159 0.0023620
0.0002337 0.0011381 0.0002813 0.0017132 0.0009281 0.0028473 0.0009510 0.0042663 0.0033272 0.0042125 0.0024345 0.0077658 0.0004071 0.0002917 0.0011341 -0.0008562 0.0012683 0.0029477 0.0010462 0.0032178
0.0000764 0.0014894 0.0001999 0.0017252 0.0009523 0.0033622 0.0008696 0.0044166 0.0031488 0.0044845 0.0024590 0.0078344 0.0009274 0.0025451 0.0014305 0.0011268 0.0019556 0.0050263 0.0014106 0.0041470
-0.0000110 0.0015199 0.0001605 0.0016797 0.0009888 0.0036370 0.0008488 0.0045455 0.0030577 0.0047669 0.0023479 0.0073177 0.0008934 0.0022838 0.0016379 0.0025366 0.0011371 0.0040398 0.0010857 0.0039387
-0.0000281 0.0011497 0.0001076 0.0017122 0.0009424 0.0036995 0.0007327 0.0047406 0.0031514 0.0060513 0.0022544 0.0068368 0.0011030 0.0037823 0.0021458 0.0060523 0.0005356 0.0045207 0.0005954 0.0035903
-0.0000064 0.0010476 0.0001315 0.0019903 0.0008482 0.0037546 0.0005855 0.0050005 0.0032514 0.0072455 0.0024215 0.0075515 0.0012675 0.0052157 0.0023446 0.0081885 0.0003288 0.0050107 0.0003750 0.0035882
-0.0000150 0.0010909 0.0001500 0.0021106 0.0007896 0.0037460 0.0005020 0.0049832 0.0031465 0.0071241 0.0023979 0.0077134 0.0011053 0.0048460 0.0021486 0.0075704 0.0002918 0.0050302 0.0002980 0.0038137
0.0000122 0.0012900 0.0001541 0.0021895 0.0007392 0.0037983 0.0004488 0.0049751 0.0029955 0.0070371 0.0022419 0.0071680 0.0010569 0.0046482 0.0020519 0.0065781 0.0001298 0.0042831 0.0002395 0.0035155
-0.0001126 0.0012624 0.0001504 0.0021243 0.0007365 0.0037141 0.0004217 0.0047401 0.0028692 0.0068971 0.0021950 0.0067523 0.0009760 0.0040517 0.0019637 0.0052533 -0.0001536 0.0026277 0.0002166 0.0027333
-0.0001755 0.0010781 0.0001592 0.0020330 0.0007581 0.0035270 0.0004262 0.0045051 0.0027644 0.0067315 0.0021560 0.0065137 0.0009946 0.0040418 0.0020134 0.0052746 -0.0001406 0.0025880 0.0002599 0.0026415
-0.0002385 0.0012759 0.0001795 0.0020579 0.0007474 0.0035465 0.0004321 0.0045812 0.0026786 0.0066163 0.0021446 0.0066612 0.0010155 0.0043340 0.0020026 0.0055723 -0.0000555 0.0030024 0.0002681 0.0026876
-0.0002943 0.0015639 0.0001814 0.0021372 0.0007078 0.0037063 0.0003970 0.0047508 0.0026259 0.0065240 0.0021938 0.0071375 0.0009966 0.0046215 0.0019467 0.0057065 -0.0000081 0.0031845 0.0002791 0.0027167
-0.0002285 0.0016669 0.0001643 0.0021883 0.0006818 0.0038522 0.0003481 0.0047894 0.0025526 0.0064257 0.0021515 0.0070576 0.0009321 0.0044883 0.0018780 0.0057518 -0.0000602 0.0030342 0.0002437 0.0026527
-0.0001537 0.0014106 0.0001515 0.0021085 0.0006625 0.0036870 0.0003160 0.0045309 0.0024263 0.0063237 0.0020723 0.0066406 0.0008939 0.0042206 0.0018294 0.0054909 -0.0001087 0.0028177 0.0001979 0.0024804
-0.0000264 0.0011071 0.0001577 0.0020309 0.0006479 0.0034978 0.0002952 0.0043672 0.0023160 0.0062276 0.0020155 0.0064753 0.0008540 0.0040843 0.0017698 0.0049186 -0.0001231 0.0025118 0.0001839 0.0023908
0.0001259 0.0010527 0.0001796 0.0020144 0.0005462 0.0031305 0.0000468 0.0033576 0.0011677 0.0062182 0.0016788 0.0055607 0.0005814 0.0029389 0.0015240 0.0036261 -0.0001533 0.0014550 0.0001755 0.0020019
0.0001662 0.0009268 0.0000968 0.0013776 0.0000271 0.0014695 -0.0006594 0.0004268 -0.0009138 0.0030726 0.0007459 0.0031877 -0.0000854 0.0003059 0.0007759 0.0006598 -0.0001448 -0.0002797 0.0001270 0.0009334
0.0000436 0.0007027 -0.0000369 0.0006065 -0.0007355 -0.0007476 -0.0012766 -0.0019968 -0.0020583 -0.0015275 -0.0001305 0.0008802 -0.0006549 -0.0018942 -0.0001426 -0.0026089 -0.0001580 -0.0013798 -0.0000141 -0.0002090
-0.0001280 0.0002342 -0.0000823 0.0002688 -0.0011029 -0.0020043 -0.0013920 -0.0026748 -0.0022661 -0.0027708 -0.0004314 -0.0002718 -0.0008308 -0.0028345 -0.0005968 -0.0043323 -0.0002008 -0.0018388 -0.0000511 -0.0008430
-0.0002313 -0.0000567 -0.0000861 0.0000371 -0.0011461 -0.0024256 -0.0013532 -0.0029451 -0.0023100 -0.0033905 -0.0005386 -0.0007784 -0.0008782 -0.0032189 -0.0007112 -0.0049165 -0.0001616 -0.0019194 0.0000229 -0.0009552
-0.0002003 -0.0000154 -0.0000816 0.0000027 -0.0011456 -0.0024867 -0.0013193 -0.0029802 -0.0023000 -0.0035454 -0.0005577 -0.0007717 -0.0008669 -0.0031790 -0.0007822 -0.0048448 -0.0000966 -0.0017141 0.0000496 -0.0008405
-0.0002015 0.0001115 -0.0001150 -0.0000869 -0.0011506 -0.0024147 -0.0013505 -0.0030921 -0.0024073 -0.0040164 -0.0006875 -0.0009398 -0.0009245 -0.0031380 -0.0009491 -0.0048687 -0.0000242 -0.0016016 0.0000475 -0.0005829
-0.0002542 0.0003427 -0.0001676 -0.0000947 -0.0011840 -0.0022631 -0.0013994 -0.0031071 -0.0025085 -0.0043238 -0.0008755 -0.0012431 -0.0010225 -0.0031713 -0.0011018 -0.0051891 0.0000087 -0.0017379 0.0000700 -0.0005230
-0.0002795 0.0001805 -0.0002088 -0.0001403 -0.0012043 -0.0022533 -0.0013954 -0.0031019 -0.0024872 -0.0043965 -0.0009553 -0.0015755 -0.0010564 -0.0033696 -0.0011832 -0.0054773 -0.0000206 -0.0019111 -0.0000031 -0.0006607
-0.0002890 -0.0001999 -0.0002370 -0.0003437 -0.0012004 -0.0024454 -0.0013512 -0.0032299 -0.0024450 -0.0046440 -0.0009910 -0.0019375 -0.0010513 -0.0036089 -0.0012110 -0.0056390 -0.0000267 -0.0020011 -0.0000352 -0.0006664
-0.0002809 -0.0002405 -0.0002357 -0.0004368 -0.0011644 -0.0025034 -0.0012939 -0.0032418 -0.0024047 -0.0047247 -0.0010244 -0.0020863 -0.0010378 -0.0035680 -0.0011211 -0.0053795 0.0000023 -0.0018823 0.0000745 -0.0003163
-0.0001790 0.0001065 -0.0002321 -0.0003912 -0.0007723 -0.0013690 -0.0010063 -0.0023589 -0.0022046 -0.0039548 -0.0010503 -0.0021862 -0.0009550 -0.0031475 -0.0008104 -0.0043472 0.0000209 -0.0014869 0.0002788 0.0007150
-0.0001281 0.0009147 -0.0002252 0.0000056 -0.0000841 0.0008161 -0.0002576 0.0006121 -0.0008562 0.0016511 0.0000347 0.0013682 -0.0000741 0.0005662 0.0003124 0.0001733 0.0001062 0.0003371 0.0004039 0.0021440
-0.0002304 0.0018506 -0.0000642 0.0012332 0.0004271 0.0026725 0.0003014 0.0037063 0.0014614 0.0060080 0.0015190 0.0058709 0.0008212 0.0042828 0.0012526 0.0041949 0.0000823 0.0020689 0.0003435 0.0028873
-0.0003740 0.0019615 0.0001160 0.0022309 0.0006373 0.0035294 0.0004030 0.0049849 0.0027413 0.0063377 0.0020877 0.0073677 0.0010303 0.0052825 0.0014409 0.0053440 -0.0000687 0.0025087 0.0002563 0.0029951
-0.0004226 0.0016208 0.0001738 0.0024589 0.0006636 0.0037708 0.0003956 0.0052774 0.0017864 0.0065289 0.0021459 0.0075811 0.0010814 0.0056446 0.0015003 0.0058975 -0.0001351 0.0027451 0.0002026 0.0031201
-0.0003957 0.0015922 0.0002414 0.0024610 0.0006254 0.0039476 0.0003423 0.0054394 0.0004676 0.0067073 0.0021004 0.0076863 0.0010565 0.0058354 0.0014776 0.0061131 -0.0001664 0.0028247 0.0001113 0.0032287
-0.0003606 0.0017182 0.0002889 0.0022307 0.0005484 0.0038985 0.0002610 0.0052685 0.0014668 0.0063662 0.0015897 0.0065076 0.0005795 0.0042060 0.0011835 0.0047706 -0.0002911 0.0013873 0.0000075 0.0025956
-0.0001954 0.0018798 0.0001507 0.0017295 -0.0000575 0.0019855 -0.0004175 0.0023140 0.0008567 0.0038053 0.0002442 0.0027888 -0.0003336 0.0005684 0.0002923 0.0010965 -0.0003783 -0.0008655 -0.0000612 0.0011105
-0.0001281 0.0012345 -0.0000780 0.0008648 -0.0009464 -0.0009520 -0.0012696 -0.0015736 -0.0016336 -0.0001924 -0.0009035 -0.0005902 -0.0009001 -0.0018132 -0.0006057 -0.0021857 -0.0002817 -0.0016762 -0.0000927 0.0001696
-0.0003424 0.0006074 -0.0001450 0.0002865 -0.0012717 -0.0020690 -0.0014362 -0.0025133 -0.0020700 -0.0022046 -0.0011501 -0.0014472 -0.0010151 -0.0023880 -0.0009075 -0.0034140 -0.0001758 -0.0017826 -0.0000589 -0.0000433
-0.0004215 0.0006498 -0.0001276 0.0001909 -0.0013227 -0.0021268 -0.0014750 -0.0027436 -0.0023486 -0.0034452 -0.0014354 -0.0022811 -0.0011732 -0.0028883 -0.0011221 -0.0040615 -0.0000892 -0.0019745 0.0000111 -0.0000425
-0.0003851 0.0006824 -0.0001412 0.0000821 -0.0013226 -0.0019313 -0.0015747 -0.0030053 -0.0026916 -0.0048361 -0.0018903 -0.0035323 -0.0014178 -0.0034678 -0.0013062 -0.0045467 -0.0000150 -0.0023164 0.0000650 0.0000434
-0.0004719 0.0009031 -0.0001802 0.0000056 -0.0012953 -0.0016311 -0.0016764 -0.0032818 -0.0030838 -0.0063959 -0.0021325 -0.0043966 -0.0014366 -0.0036696 -0.0013686 -0.0050634 0.0000061 -0.0025851 0.0000686 -0.0002471
-0.0005034 0.0005800 -0.0002130 -0.0001699 -0.0012666 -0.0017106 -0.0016412 -0.0034536 -0.0032416 -0.0072446 -0.0021112 -0.0047592 -0.0012671 -0.0035955 -0.0013620 -0.0055500 0.0000339 -0.0027180 -0.0000049 -0.0006808
-0.0003686 0.0000414 -0.0002408 -0.0003924 -0.0012766 -0.0020121 -0.0015424 -0.0034485 -0.0031891 -0.0072822 -0.0020707 -0.0048512 -0.0011696 -0.0035124 -0.0013692 -0.0057177 0.0000660 -0.0027177 -0.0000949 -0.0008248
-0.0002841 0.0001148 -0.0002929 -0.0004900 -0.0013325 -0.0021046 -0.0015023 -0.0033231 -0.0031153 -0.0070326 -0.0020576 -0.0047531 -0.0011817 -0.0035090 -0.0013893 -0.0056348 0.0000844 -0.0025436 -0.0000842 -0.0006979
-0.0002993 0.0002865 -0.0003428 -0.0005456 -0.0013855 -0.0021294 -0.0015161 -0.0032967 -0.0030594 -0.0067457 -0.0020402 -0.0044944 -0.0012571 -0.0034536 -0.0014202 -0.0053740 0.0001074 -0.0022292 -0.0000814 -0.0003887
-0.0003809 0.0005040 -0.0003693 -0.0005138 -0.0014160 -0.0020717 -0.0015519 -0.0032604 -0.0030273 -0.0065097 -0.0020098 -0.0042013 -0.0013093 -0.0033646 -0.0014816 -0.0051850 0.0000520 -0.0020997 -0.0000946 -0.0002576
-0.0005779 0.0005391 -0.0003847 -0.0006114 -0.0013793 -0.0021261 -0.0015714 -0.0034355 -0.0029756 -0.0065530 -0.0019836 -0.0042231 -0.0013327 -0.0035397 -0.0015316 -0.0053100 -0.0000160 -0.0021814 -0.0000609 -0.0003360
-0.0006596 0.0002766 -0.0003834 -0.0007941 -0.0013090 -0.0023003 -0.0015419 -0.0037170 -0.0029059 -0.0067275 -0.0019659 -0.0043269 -0.0013474 -0.0037172 -0.0015478 -0.0053290 -0.0000132 -0.0021504 0.0000015 -0.0003562
-0.0007280 0.0002905 -0.0003746 -0.0008492 -0.0012824 -0.0023637 -0.0015152 -0.0037998 -0.0028526 -0.0066783 -0.0019540 -0.0042195 -0.0013462 -0.0036455 -0.0015442 -0.0051591 0.0000264 -0.0019939 0.0000615 -0.0002193
-0.0007776 0.0005035 -0.0003771 -0.0007980 -0.0012840 -0.0023061 -0.0015141 -0.0037352 -0.0028238 -0.0064977 -0.0019510 -0.0039996 -0.0013592 -0.0034247 -0.0015491 -0.0049759 0.0000754 -0.0018021 0.0000758 0.0000125
-0.0007347 0.0007051 -0.0003899 -0.0006715 -0.0012886 -0.0021513 -0.0015068 -0.0035674 -0.0028012 -0.0063220 -0.0019377 -0.0038846 -0.0013503 -0.0032825 -0.0015633 -0.0049214 0.0000382 -0.0018141 0.0000208 0.0000306
-0.0006757 0.0004924 -0.0004025 -0.0006917 -0.0012736 -0.0021856 -0.0014843 -0.0036262 -0.0027636 -0.0063859 -0.0019189 -0.0040063 -0.0013321 -0.0033614 -0.0015586 -0.0049759 -0.0000033 -0.0018807 -0.0000151 -0.0000856
-0.0005661 0.0001805 -0.0003904 -0.0007534 -0.0012453 -0.0023279 -0.0014440 -0.0037440 -0.0027173 -0.0064510 -0.0019192 -0.0040929 -0.0013334 -0.0033963 -0.0015612 -0.0050956 0.0000322 -0.0018164 -0.0000327 -0.0002332
-0.0004344 0.0000344 -0.0003388 -0.0006274 -0.0012167 -0.0023629 -0.0013970 -0.0036235 -0.0026795 -0.0063250 -0.0019142 -0.0040504 -0.0013134 -0.0032722 -0.0016260 -0.0056967 0.0001113 -0.0015600 -0.0001872 -0.0007436
-0.0006100 -0.0003492 -0.0003233 -0.0005611 -0.0012538 -0.0025397 -0.0013503 -0.0033124 -0.0026941 -0.0062616 -0.0019153 -0.0040308 -0.0012401 -0.0030109 -0.0017055 -0.0064590 0.0001782 -0.0010879 -0.0003129 -0.0012387
-0.0009027 -0.0007895 -0.0003759 -0.0007417 -0.0013349 -0.0028749 -0.0013063 -0.0031097 -0.0027186 -0.0064570 -0.0019316 -0.0042689 -0.0011803 -0.0030676 -0.0017742 -0.0070970 0.0001411 -0.0009430 -0.0003316 -0.0015876
-0.0010166 -0.0013013 -0.0004167 -0.0010411 -0.0013705 -0.0033223 -0.0012615 -0.0032086 -0.0027004 -0.0067580 -0.0019315 -0.0046093 -0.0011207 -0.0032919 -0.0018080 -0.0076523 0.0001499 -0.0008724 -0.0003977 -0.0019363
-0.0011312 -0.0016903 -0.0004318 -0.0012589 -0.0013962 -0.0036711 -0.0011988 -0.0032227 -0.0026870 -0.0069352 -0.0019167 -0.0047034 -0.0010298 -0.0031341 -0.0017917 -0.0077207 0.0002511 -0.0003035 -0.0004123 -0.0020430
-0.0010945 -0.0017879 -0.0004208 -0.0012869 -0.0014324 -0.0038052 -0.0011643 -0.0031502 -0.0026875 -0.0069696 -0.0019233 -0.0047165 -0.0009740 -0.0029053 -0.0017591 -0.0075247 0.0002981 0.0000975 -0.0004332 -0.0018825
-0.0010177 -0.0017119 -0.0004028 -0.0011870 -0.0014635 -0.0038699 -0.0011601 -0.0030736 -0.0027046 -0.0069114 -0.0019521 -0.0047826 -0.0009112 -0.0026903 -0.0017176 -0.0075606 0.0002726 0.0000836 -0.0004821 -0.0019588
-0.0010085 -0.0020056 -0.0004162 -0.0012894 -0.0014970 -0.0041411 -0.0011300 -0.0031101 -0.0027131 -0.0071116 -0.0019488 -0.0050000 -0.0008300 -0.0027460 -0.0016802 -0.0078962 0.0002886 -0.0001316 -0.0004554 -0.0023156
-0.0008917 -0.0025350 -0.0003936 -0.0014631 -0.0014960 -0.0044688 -0.0010753 -0.0032525 -0.0026670 -0.0073099 -0.0018788 -0.0051045 -0.0008015 -0.0029484 -0.0016615 -0.0081399 0.0003864 -0.0003483 -0.0004493 -0.0023856
-0.0007840 -0.0025337 -0.0003435 -0.0014772 -0.0014799 -0.0045534 -0.0010368 -0.0033232 -0.0026195 -0.0072996 -0.0018099 -0.0049487 -0.0008178 -0.0029753 -0.0016778 -0.0079670 0.0004700 -0.0003522 -0.0003457 -0.0020906
-0.0007452 -0.0022587 -0.0003140 -0.0013952 -0.0014874 -0.0045388 -0.0010743 -0.0034461 -0.0025866 -0.0072077 -0.0018092 -0.0049216 -0.0008906 -0.0030214 -0.0016583 -0.0076679 0.0004447 -0.0006485 -0.0002118 -0.0016619
-0.0007070 -0.0020656 -0.0003162 -0.0012884 -0.0015173 -0.0045135 -0.0011423 -0.0035725 -0.0025750 -0.0071022 -0.0018115 -0.0049634 -0.0009438 -0.0031065 -0.0016497 -0.0077116 0.0003713 -0.0010570 -0.0002271 -0.0016856
-0.0008236 -0.0022369 -0.0003464 -0.0013984 -0.0015185 -0.0046110 -0.0011178 -0.0037374 -0.0025620 -0.0072858 -0.0017814 -0.0050872 -0.0009261 -0.0033575 -0.0016755 -0.0080169 0.0003941 -0.0012905 -0.0002708 -0.0018984
-0.0008769 -0.0024990 -0.0003294 -0.0015065 -0.0014607 -0.0047304 -0.0010345 -0.0038780 -0.0024962 -0.0074282 -0.0017314 -0.0051892 -0.0008833 -0.0035541 -0.0016605 -0.0081645 0.0004832 -0.0013476 -0.0002390 -0.0019258
-0.0007351 -0.0026123 -0.0002704 -0.0014780 -0.0013934 -0.0047678 -0.0009690 -0.0039243 -0.0024193 -0.0073705 -0.0016674 -0.0051087 -0.0008279 -0.0035239 -0.0016201 -0.0080334 0.0005366 -0.0012371 -0.0001747 -0.0018027
-0.0005507 -0.0026048 -0.0002224 -0.0013912 -0.0013495 -0.0047211 -0.0009395 -0.0039190 -0.0023562 -0.0072175 -0.0016261 -0.0049485 -0.0007961 -0.0033914 -0.0015678 -0.0076608 0.0005694 -0.0011216 -0.0000724 -0.0014300
-0.0004040 -0.0022797 -0.0001903 -0.0011806 -0.0013308 -0.0045223 -0.0009419 -0.0038045 -0.0023174 -0.0069599 -0.0016077 -0.0047836 -0.0007919 -0.0032633 -0.0015271 -0.0074001 0.0005314 -0.0012137 -0.0001005 -0.0011048
-0.0003645 -0.0021571 -0.0001819 -0.0011438 -0.0012805 -0.0044124 -0.0009249 -0.0038661 -0.0022843 -0.0069859 -0.0015895 -0.0048761 -0.0007963 -0.0033739 -0.0015046 -0.0073802 0.0004771 -0.0014186 -0.0001035 -0.0010881
-0.0003852 -0.0022364 -0.0001766 -0.0012192 -0.0012220 -0.0044397 -0.0008769 -0.0040105 -0.0022374 -0.0071083 -0.0015537 -0.0049683 -0.0007767 -0.0034521 -0.0014625 -0.0072670 0.0004966 -0.0014144 -0.0000312 -0.0011040
-0.0003831 -0.0021107 -0.0001647 -0.0011861 -0.0011898 -0.0043916 -0.0008227 -0.0039762 -0.0021894 -0.0070264 -0.0015174 -0.0048790 -0.0007622 -0.0033053 -0.0014253 -0.0069286 0.0005195 -0.0013161 -0.0000195 -0.0008324
-0.0005715 -0.0016048 -0.0001645 -0.0011069 -0.0011780 -0.0042208 -0.0007965 -0.0038710 -0.0021586 -0.0068908 -0.0015154 -0.0047990 -0.0007692 -0.0031291 -0.0013856 -0.0063128 0.0004943 -0.0012183 0.0001193 -0.0002896
-0.0006282 -0.0009969 -0.0001983 -0.0010512 -0.0010007 -0.0034945 -0.0007096 -0.0036450 -0.0021467 -0.0069991 -0.0014852 -0.0049438 -0.0006806 -0.0028658 -0.0010349 -0.0050515 0.0002836 -0.0011912 0.0003891 0.0004877
-0.0004306 -0.0006689 -0.0002555 -0.0011277 -0.0006896 -0.0027169 -0.0005921 -0.0035838 -0.0021032 -0.0071974 -0.0014074 -0.0050241 -0.0005953 -0.0027897 -0.0008199 -0.0043693 0.0001411 -0.0011564 0.0005268 0.0008118
-0.0003264 -0.0005416 -0.0002666 -0.0011197 -0.0006341 -0.0027676 -0.0005633 -0.0037362 -0.0020199 -0.0070378 -0.0013457 -0.0047437 -0.0006286 -0.0029250 -0.0010012 -0.0046883 0.0002306 -0.0010885 0.0004893 0.0006378
-0.0002398 -0.0006314 -0.0002433 -0.0010203 -0.0007346 -0.0030039 -0.0005750 -0.0038073 -0.0019883 -0.0069123 -0.0013349 -0.0045665 -0.0006572 -0.0028461 -0.0010480 -0.0044455 0.0003100 -0.0008311 0.0005028 0.0009714
-0.0000831 -0.0006393 -0.0002566 -0.0009691 -0.0007193 -0.0028163 -0.0006013 -0.0037871 -0.0019848 -0.0068024 -0.0013246 -0.0044001 -0.0006714 -0.0027296 -0.0010614 -0.0041696 0.0003004 -0.0006888 0.0004777 0.0012142
-0.0000646 -0.0006794 -0.0002617 -0.0010084 -0.0007225 -0.0029174 -0.0006148 -0.0039100 -0.0019110 -0.0066828 -0.0013008 -0.0043861 -0.0007152 -0.0029942 -0.0011743 -0.0044327 0.0002719 -0.0008570 0.0004387 0.0008899
-0.0001256 -0.0009753 -0.0002282 -0.0010860 -0.0007888 -0.0033401 -0.0005738 -0.0040553 -0.0018041 -0.0065979 -0.0012911 -0.0045287 -0.0007414 -0.0032613 -0.0012446 -0.0046625 0.0003048 -0.0010460 0.0004076 0.0006345
-0.0001380 -0.0010163 -0.0001755 -0.0010302 -0.0008032 -0.0034756 -0.0005123 -0.0039973 -0.0017490 -0.0064578 -0.0013192 -0.0046002 -0.0007547 -0.0032771 -0.0012540 -0.0047662 0.0003336 -0.0013197 0.0004162 0.0006789
-0.0002917 -0.0007263 -0.0001619 -0.0009129 -0.0008207 -0.0034383 -0.0004930 -0.0039271 -0.0017360 -0.0063519 -0.0013560 -0.0045852 -0.0007743 -0.0031707 -0.0012763 -0.0047214 0.0003983 -0.0012364 0.0004844 0.0009214
-0.0003679 -0.0004633 -0.0001779 -0.0008080 -0.0008245 -0.0032777 -0.0004835 -0.0037969 -0.0017217 -0.0062358 -0.0013641 -0.0045804 -0.0007951 -0.0032008 -0.0013281 -0.0047356 0.0003749 -0.0012876 0.0005325 0.0009114
-0.0004371 -0.0006229 -0.0002207 -0.0009732 -0.0008220 -0.0033308 -0.0004598 -0.0038610 -0.0017138 -0.0063414 -0.0013598 -0.0047171 -0.0008022 -0.0034156 -0.0013409 -0.0047909 0.0003224 -0.0014552 0.0005267 0.0007433
-0.0004663 -0.0009124 -0.0002618 -0.0011751 -0.0008516 -0.0034986 -0.0004378 -0.0040285 -0.0016895 -0.0064437 -0.0013380 -0.0047240 -0.0007851 -0.0034477 -0.0013250 -0.0046686 0.0003445 -0.0013629 0.0005039 0.0006136
-0.0002931 -0.0010136 -0.0002468 -0.0011318 -0.0008566 -0.0034623 -0.0004258 -0.0040204 -0.0016575 -0.0063294 -0.0013359 -0.0046238 -0.0007886 -0.0033397 -0.0013219 -0.0044434 0.0003407 -0.0013432 0.0004145 0.0006532
-0.0002194 -0.0009830 -0.0002586 -0.0010656 -0.0008844 -0.0033549 -0.0004448 -0.0039428 -0.0016571 -0.0061720 -0.0013496 -0.0044618 -0.0008047 -0.0031115 -0.0013335 -0.0041602 0.0003293 -0.0012232 0.0002805 0.0007512
-0.0002913 -0.0008961 -0.0002777 -0.0010579 -0.0008883 -0.0032591 -0.0004653 -0.0039336 -0.0016520 -0.0061846 -0.0013618 -0.0045684 -0.0008453 -0.0031348 -0.0013545 -0.0041695 0.0002344 -0.0014064 0.0002360 0.0004339
-0.0003010 -0.0012894 -0.0002777 -0.0011905 -0.0008603 -0.0033968 -0.0004411 -0.0040989 -0.0016237 -0.0063787 -0.0013597 -0.0048610 -0.0008606 -0.0033763 -0.0013794 -0.0043106 0.0001624 -0.0016110 0.0002064 0.0000433
-0.0004031 -0.0016064 -0.0002819 -0.0013646 -0.0008557 -0.0035550 -0.0003872 -0.0042068 -0.0015980 -0.0064981 -0.0013671 -0.0049680 -0.0008372 -0.0033705 -0.0013639 -0.0040690 0.0001778 -0.0015116 0.0002259 0.0000487
-0.0005143 -0.0014329 -0.0002768 -0.0013746 -0.0008524 -0.0035308 -0.0003671 -0.0041899 -0.0015824 -0.0064149 -0.0013877 -0.0049139 -0.0008410 -0.0032312 -0.0013396 -0.0037551 0.0002179 -0.0013000 0.0002763 0.0002822
-0.0004579 -0.0011639 -0.0002648 -0.0012341 -0.0008766 -0.0034348 -0.0003834 -0.0040917 -0.0015782 -0.0062403 -0.0013766 -0.0047708 -0.0008369 -0.0031507 -0.0013593 -0.0037179 0.0002373 -0.0010809 0.0002776 0.0004348
-0.0004060 -0.0012798 -0.0002713 -0.0012657 -0.0008776 -0.0034469 -0.0003792 -0.0041503 -0.0015689 -0.0062994 -0.0013500 -0.0047714 -0.0008029 -0.0032032 -0.0013625 -0.0036654 0.0002413 -0.0009420 0.0003198 0.0005223
-0.0002785 -0.0016282 -0.0002793 -0.0014050 -0.0008515 -0.0035414 -0.0003609 -0.0042990 -0.0015499 -0.0064008 -0.0013389 -0.0047932 -0.0008071 -0.0032860 -0.0013519 -0.0037251 0.0002315 -0.0010456 0.0002870 0.0005431
-0.0001459 -0.0016156 -0.0002632 -0.0014082 -0.0008312 -0.0035029 -0.0003316 -0.0042227 -0.0015391 -0.0063090 -0.0013295 -0.0046380 -0.0008264 -0.0032556 -0.0013640 -0.0038981 0.0002575 -0.0011070 0.0002803 0.0006084
-0.0001209 -0.0013820 -0.0002484 -0.0013117 -0.0008322 -0.0033490 -0.0003125 -0.0040232 -0.0015341 -0.0060919 -0.0013127 -0.0043375 -0.0008415 -0.0030440 -0.0013809 -0.0038214 0.0003490 -0.0008192 0.0003481 0.0008584
-0.0001612 -0.0011822 -0.0002618 -0.0012725 -0.0008309 -0.0031618 -0.0003096 -0.0038848 -0.0015277 -0.0060011 -0.0012802 -0.0041991 -0.0008568 -0.0029218 -0.0014083 -0.0038630 0.0003547 -0.0007396 0.0003852 0.0008693
-0.0003650 -0.0011034 -0.0002659 -0.0013508 -0.0007882 -0.0031460 -0.0002918 -0.0039280 -0.0015146 -0.0060890 -0.0012450 -0.0042221 -0.0008321 -0.0029627 -0.0014153 -0.0039491 0.0003418 -0.0007586 0.0004625 0.0007209
-0.0004584 -0.0011945 -0.0002488 -0.0013941 -0.0007579 -0.0031924 -0.0002752 -0.0039709 -0.0014946 -0.0060729 -0.0012194 -0.0041367 -0.0008142 -0.0028756 -0.0013834 -0.0038010 0.0003577 -0.0006942 0.0005371 0.0006601
-0.0004244 -0.0011438 -0.0002422 -0.0013545 -0.0007721 -0.0031193 -0.0002772 -0.0039115 -0.0014882 -0.0059520 -0.0012051 -0.0039764 -0.0008040 -0.0026629 -0.0013648 -0.0035209 0.0003537 -0.0006175 0.0005278 0.0007696
-0.0004276 -0.0008838 -0.0002575 -0.0012422 -0.0008107 -0.0030042 -0.0003042 -0.0037947 -0.0014994 -0.0057957 -0.0011976 -0.0038357 -0.0007834 -0.0025016 -0.0013675 -0.0033805 0.0003150 -0.0006007 0.0004717 0.0007556
-0.0003486 -0.0010711 -0.0002664 -0.0012532 -0.0007878 -0.0029893 -0.0003061 -0.0038229 -0.0014899 -0.0058283 -0.0011933 -0.0038983 -0.0007742 -0.0025587 -0.0013587 -0.0034006 0.0002640 -0.0006846 0.0004378 0.0005475
-0.0001445 -0.0014947 -0.0002484 -0.0013382 -0.0007455 -0.0030642 -0.0002761 -0.0039221 -0.0014627 -0.0059134 -0.0011969 -0.0039848 -0.0007733 -0.0026444 -0.0013411 -0.0034152 0.0002583 -0.0007312 0.0004078 0.0005332
-0.0000539 -0.0014204 -0.0002190 -0.0012837 -0.0007285 -0.0030597 -0.0002686 -0.0038507 -0.0014431 -0.0057998 -0.0011998 -0.0039025 -0.0007828 -0.0026022 -0.0013123 -0.0034057 0.0002589 -0.0007966 0.0004270 0.0006086
-0.0000598 -0.0012446 -0.0001941 -0.0011840 -0.0006980 -0.0029385 -0.0002673 -0.0037234 -0.0014400 -0.0056741 -0.0012085 -0.0038034 -0.0008048 -0.0025099 -0.0012937 -0.0033690 0.0002504 -0.0008183 0.0003804 0.0006964
-0.0000952 -0.0011804 -0.0001733 -0.0011639 -0.0006414 -0.0028210 -0.0002355 -0.0036606 -0.0014211 -0.0056858 -0.0012020 -0.0039137 -0.0008030 -0.0026181 -0.0012939 -0.0035100 0.0002185 -0.0009136 0.0003782 0.0005669
-0.0002263 -0.0012411 -0.0001432 -0.0012690 -0.0005775 -0.0029220 -0.0001840 -0.0037443 -0.0013683 -0.0057824 -0.0011724 -0.0040742 -0.0007767 -0.0028601 -0.0012674 -0.0037629 0.0002432 -0.0010621 0.0004991 0.0003442
-0.0001748 -0.0014426 -0.0001019 -0.0013420 -0.0005223 -0.0030367 -0.0001352 -0.0037881 -0.0013257 -0.0057906 -0.0011404 -0.0040282 -0.0007203 -0.0028468 -0.0012255 -0.0036880 0.0003200 -0.0009145 0.0005289 0.0003878
-0.0001141 -0.0013968 -0.0000922 -0.0013658 -0.0005014 -0.0030027 -0.0001096 -0.0037241 -0.0013139 -0.0057037 -0.0011176 -0.0038660 -0.0006652 -0.0026679 -0.0011885 -0.0034478 0.0003456 -0.0007608 0.0005126 0.0005734
-0.0000937 -0.0011543 -0.0000923 -0.0012804 -0.0005123 -0.0028987 -0.0001181 -0.0036026 -0.0013069 -0.0055181 -0.0011165 -0.0036864 -0.0006456 -0.0024966 -0.0011658 -0.0033374 0.0003464 -0.0007521 0.0005406 0.0006483
-0.0000181 -0.0011809 -0.0000938 -0.0012705 -0.0004997 -0.0028557 -0.0001208 -0.0035644 -0.0012927 -0.0054851 -0.0011069 -0.0036880 -0.0006386 -0.0025388 -0.0011599 -0.0032797 0.0003471 -0.0007521 0.0006342 0.0010212
0.0002355 -0.0010066 -0.0001838 -0.0013340 -0.0001054 -0.0016086 0.0003336 -0.0023074 -0.0018533 -0.0070300 -0.0011932 -0.0040099 -0.0006744 -0.0026357 -0.0011599 -0.0030000 0.0004121 -0.0006794 0.0007191 0.0013164
0.0003493 -0.0008378 -0.0001716 -0.0012962 0.0000088 -0.0012919 0.0007737 -0.0010318 -0.0021066 -0.0078682 -0.0012764 -0.0041860 -0.0007085 -0.0025310 -0.0011661 -0.0027521 0.0004711 -0.0006043 0.0007545 0.0012204
0.0002642 -0.0009997 -0.0000690 -0.0012443 -0.0002939 -0.0023215 0.0005963 -0.0015602 -0.0018128 -0.0072288 -0.0012574 -0.0040595 -0.0007068 -0.0024325 -0.0011691 -0.0027142 0.0004663 -0.0006078 0.0007854 0.0013378
0.0001961 -0.0007862 -0.0000516 -0.0011124 -0.0003593 -0.0023334 0.0002830 -0.0023110 -0.0019076 -0.0072662 -0.0012518 -0.0039933 -0.0007127 -0.0024563 -0.0011783 -0.0027941 0.0004279 -0.0006879 0.0008429 0.0013652
0.0000948 -0.0007572 -0.0000193 -0.0010301 -0.0003350 -0.0022631 0.0001658 -0.0026159 -0.0018897 -0.0072265 -0.0012765 -0.0042958 -0.0007801 -0.0028666 -0.0011300 -0.0033233 0.0003405 -0.0010693 0.0008518 0.0013786
0.0001297 -0.0010094 0.0000797 -0.0007758 -0.0002449 -0.0022033 0.0002001 -0.0025832 -0.0018114 -0.0071173 -0.0012390 -0.0044941 -0.0007073 -0.0029615 -0.0010602 -0.0039744 0.0004009 -0.0007822 0.0007416 0.0012781
0.0002306 -0.0012029 0.0001736 -0.0005180 -0.0001535 -0.0019903 0.0003475 -0.0021336 -0.0017610 -0.0069073 -0.0011020 -0.0040153 -0.0005090 -0.0024412 -0.0010631 -0.0041826 0.0005590 -0.0001748 0.0006833 0.0012296
0.0003591 -0.0009824 0.0002371 -0.0003181 -0.0001136 -0.0017289 0.0004136 -0.0017877 -0.0017303 -0.0065956 -0.0010360 -0.0035098 -0.0004870 -0.0020629 -0.0010735 -0.0039585 0.0006215 -0.0000158 0.0005745 0.0015657
0.0004042 -0.0005069 0.0002694 -0.0000823 -0.0001287 -0.0015427 0.0003462 -0.0016969 -0.0017182 -0.0063521 -0.0010260 -0.0034324 -0.0005205 -0.0019940 -0.0010661 -0.0038582 0.0005549 -0.0000965 0.0004863 0.0015771
0.0003014 -0.0006948 0.0002549 -0.0001624 -0.0001337 -0.0016040 0.0003200 -0.0017852 -0.0017094 -0.0064113 -0.0010189 -0.0036095 -0.0005111 -0.0021370 -0.0010349 -0.0039823 0.0004764 -0.0002857 0.0005308 0.0013712
0.0002389 -0.0010366 0.0002812 -0.0001966 -0.0001035 -0.0016937 0.0003625 -0.0017398 -0.0016756 -0.0064027 -0.0010220 -0.0037555 -0.0004921 -0.0021476 -0.0009746 -0.0040998 0.0004820 -0.0003748 0.0005205 0.0013093
0.0000926 -0.0008120 0.0003143 -0.0000651 -0.0000830 -0.0015877 0.0003981 -0.0015252 -0.0016548 -0.0062290 -0.0010130 -0.0036540 -0.0004730 -0.0020013 -0.0009575 -0.0041047 0.0004995 -0.0003560 0.0004871 0.0013325
0.0000052 -0.0004833 0.0002999 0.0000326 -0.0001179 -0.0014438 0.0003730 -0.0013801 -0.0016716 -0.0060313 -0.0010057 -0.0033201 -0.0004965 -0.0017515 -0.0010042 -0.0038522 0.0005307 -0.0001141 0.0005022 0.0014307
0.0000550 -0.0003202 0.0002701 0.0000654 -0.0001464 -0.0012997 0.0003350 -0.0013139 -0.0016802 -0.0059603 -0.0010020 -0.0032593 -0.0005223 -0.0017130 -0.0010663 -0.0038200 0.0004883 -0.0001169 0.0004510 0.0013934
0.0001078 -0.0005516 0.0002446 -0.0000449 -0.0001619 -0.0013545 0.0003133 -0.0014142 -0.0016735 -0.0060728 -0.0010003 -0.0034285 -0.0005187 -0.0018647 -0.0010806 -0.0039608 0.0004277 -0.0002888 0.0003645 0.0012957
0.0002341 -0.0008501 0.0002480 -0.0001058 -0.0001691 -0.0014505 0.0003072 -0.0014533 -0.0016604 -0.0060585 -0.0010043 -0.0034439 -0.0005271 -0.0018046 -0.0010413 -0.0039422 0.0004294 -0.0003437 0.0003158 0.0012773
0.0003315 -0.0008861 0.0002740 -0.0000037 -0.0001605 -0.0014125 0.0002993 -0.0013349 -0.0016538 -0.0059164 -0.0010157 -0.0033812 -0.0005457 -0.0016661 -0.0010170 -0.0038872 0.0004420 -0.0003144 0.0002572 0.0013267
0.0002459 -0.0006842 0.0002885 0.0001311 -0.0001666 -0.0013250 0.0002782 -0.0011691 -0.0016582 -0.0057502 -0.0010253 -0.0032542 -0.0005603 -0.0015302 -0.0010255 -0.0037958 0.0004558 -0.0002098 0.0002563 0.0013571
0.0001012 -0.0004381 0.0002854 0.0001306 -0.0001587 -0.0012836 0.0002581 -0.0011634 -0.0016610 -0.0057837 -0.0010165 -0.0033016 -0.0006066 -0.0016492 -0.0010729 -0.0038909 0.0004135 -0.0002653 0.0003026 0.0011708
0.0000839 -0.0006324 0.0002768 -0.0000220 -0.0001580 -0.0014445 0.0002414 -0.0013380 -0.0016529 -0.0059431 -0.0010073 -0.0034399 -0.0006387 -0.0018989 -0.0010955 -0.0040532 0.0003909 -0.0003231 0.0003046 0.0010153
0.0001384 -0.0008362 0.0002816 -0.0000921 -0.0001657 -0.0015681 0.0002380 -0.0013988 -0.0016364 -0.0059288 -0.0010060 -0.0034527 -0.0006228 -0.0019379 -0.0010533 -0.0040732 0.0004351 -0.0002074 0.0003128 0.0009907
0.0002208 -0.0007572 0.0003034 -0.0000203 -0.0001515 -0.0015222 0.0002406 -0.0013174 -0.0016247 -0.0058205 -0.0009957 -0.0033912 -0.0006102 -0.0018188 -0.0010073 -0.0039918 0.0004827 0.0000104 0.0002622 0.0011099
0.0003489 -0.0005891 0.0003359 0.0001003 -0.0001313 -0.0014286 0.0002352 -0.0012112 -0.0016140 -0.0056570 -0.0009813 -0.0031883 -0.0006207 -0.0016271 -0.0009846 -0.0038699 0.0005179 0.0002598 0.0002140 0.0011790
0.0004336 -0.0004963 0.0003650 0.0001249 -0.0000980 -0.0013689 0.0002262 -0.0012014 -0.0015952 -0.0056168 -0.0010022 -0.0032123 -0.0006618 -0.0017066 -0.0009883 -0.0038969 0.0005193 0.0003529 0.0002015 0.0010466
0.0004314 -0.0006078 0.0003733 0.0000305 -0.0000776 -0.0014239 0.0001945 -0.0013191 -0.0015989 -0.0056883 -0.0010596 -0.0033734 -0.0007383 -0.0018155 -0.0010053 -0.0038735 0.0005132 0.0003489 0.0001791 0.0010356
0.0002689 -0.0004816 0.0003634 -0.0000020 -0.0000881 -0.0014549 0.0001423 -0.0013878 -0.0016298 -0.0056846 -0.0011101 -0.0033581 -0.0007930 -0.0017309 -0.0010229 -0.0037031 0.0005226 0.0003988 0.0002119 0.0011232
0.0001508 -0.0002523 0.0003443 0.0000530 -0.0001310 -0.0013784 0.0000956 -0.0013286 -0.0016623 -0.0055777 -0.0011506 -0.0032480 -0.0008191 -0.0015740 -0.0010319 -0.0034755 0.0005333 0.0005238 0.0002467 0.0012553
0.0001607 -0.0000672 0.0003180 0.0001684 -0.0001947 -0.0012370 0.0000397 -0.0011847 -0.0017027 -0.0053771 -0.0011950 -0.0030451 -0.0008445 -0.0012714 -0.0010538 -0.0032056 0.0005083 0.0006341 0.0002209 0.0013743
0.0001249 -0.0000133 0.0002791 0.0001646 -0.0002165 -0.0011605 0.0000000 -0.0011964 -0.0017274 -0.0053944 -0.0011902 -0.0030130 -0.0008442 -0.0011796 -0.0010755 -0.0030900 0.0004657 0.0006877 0.0001970 0.0014121
0.0001670 -0.0002043 0.0002513 0.0000784 -0.0002219 -0.0011959 -0.0000019 -0.0012465 -0.0017126 -0.0054442 -0.0011121 -0.0029256 -0.0008147 -0.0011457 -0.0010563 -0.0029929 0.0004666 0.0008319 0.0001800 0.0014956
0.0002770 -0.0003011 0.0002488 0.0000851 -0.0002220 -0.0011939 0.0000005 -0.0011754 -0.0016861 -0.0053250 -0.0010525 -0.0027232 -0.0008011 -0.0009880 -0.0010214 -0.0028576 0.0004896 0.0009889 0.0001407 0.0016369
0.0002800 -0.0001233 0.0002658 0.0001835 -0.0002111 -0.0010848 -0.0000013 -0.0010616 -0.0016704 -0.0051700 -0.0010438 -0.0026334 -0.0008058 -0.0008507 -0.0009745 -0.0027569 0.0005272 0.0011193 0.0001363 0.0017302
0.0001626 0.0001198 0.0002716 0.0002489 -0.0001975 -0.0009591 -0.0000021 -0.0009483 -0.0016592 -0.0050919 -0.0010398 -0.0026689 -0.0008146 -0.0008998 -0.0009793 -0.0029262 0.0004864 0.0009098 0.0001083 0.0015692
0.0000509 0.0000034 0.0002540 0.0001523 -0.0001874 -0.0010373 0.0000071 -0.0010039 -0.0016513 -0.0051595 -0.0010422 -0.0027864 -0.0008369 -0.0010810 -0.0010143 -0.0031882 0.0004128 0.0005684 0.0001270 0.0012856
-0.0000298 -0.0000413 0.0002397 0.0000956 -0.0001922 -0.0011345 0.0000208 -0.0010227 -0.0016500 -0.0051173 -0.0010484 -0.0027397 -0.0008469 -0.0010537 -0.0010026 -0.0031095 0.0004314 0.0006515 0.0001462 0.0012930
0.0000145 0.0001500 0.0002333 0.0001828 -0.0002155 -0.0010412 0.0000018 -0.0009066 -0.0016646 -0.0049148 -0.0010563 -0.0024891 -0.0008750 -0.0008465 -0.0010089 -0.0028595 0.0004865 0.0009397 0.0000473 0.0015618
0.0000723 0.0004455 0.0002143 0.0003462 -0.0002787 -0.0008568 -0.0000547 -0.0007426 -0.0016965 -0.0046861 -0.0010523 -0.0022309 -0.0009010 -0.0006680 -0.0010556 -0.0027643 0.0004492 0.0010222 -0.0000104 0.0014921
0.0000523 0.0002567 0.0001680 0.0002407 -0.0003155 -0.0008645 -0.0000963 -0.0008307 -0.0017254 -0.0047971 -0.0010448 -0.0023097 -0.0009003 -0.0007488 -0.0010809 -0.0027967 0.0003779 0.0009973 0.0000017 0.0012636
0.0000645 -0.0002701 0.0001468 -0.0000132 -0.0003071 -0.0010599 -0.0001017 -0.0010715 -0.0017286 -0.0050322 -0.0010647 -0.0025591 -0.0009298 -0.0009833 -0.0010670 -0.0029134 0.0003519 0.0008165 0.0000078 0.0011295
-0.0000111 -0.0002251 0.0001787 -0.0000485 -0.0002686 -0.0011300 -0.0000885 -0.0011016 -0.0017169 -0.0050418 -0.0010685 -0.0025781 -0.0009265 -0.0009995 -0.0010407 -0.0029400 0.0003773 0.0007617 0.0000569 0.0009982
-0.0000580 -0.0000016 0.0002041 -0.0000051 -0.0002384 -0.0010743 -0.0000853 -0.0010432 -0.0017220 -0.0049779 -0.0010721 -0.0024828 -0.0009412 -0.0010166 -0.0010411 -0.0031024 0.0003786 0.0006452 0.0001469 0.0008081
-0.0000091 -0.0000812 0.0002176 -0.0000840 -0.0002125 -0.0011293 -0.0000769 -0.0011201 -0.0017085 -0.0050603 -0.0010884 -0.0026577 -0.0009802 -0.0013791 -0.0010660 -0.0034669 0.0003246 0.0002631 0.0002136 0.0004387
0.0000488 -0.0002914 0.0002280 -0.0002530 -0.0001806 -0.0012847 -0.0000480 -0.0012904 -0.0016736 -0.0052117 -0.0010660 -0.0028072 -0.0009398 -0.0015871 -0.0010351 -0.0034038 0.0003426 0.0002950 0.0002520 0.0002607
0.0002362 -0.0004151 0.0002500 -0.0002962 -0.0001571 -0.0013396 -0.0000286 -0.0013422 -0.0016579 -0.0051720 -0.0010942 -0.0028472 -0.0009907 -0.0018887 -0.0010322 -0.0038096 0.0003322 -0.0001392 0.0002124 -0.0000339
0.0005143 -0.0005115 0.0002689 -0.0002103 -0.0001489 -0.0013025 -0.0000171 -0.0012283 -0.0016504 -0.0050074 -0.0011354 -0.0027846 -0.0010466 -0.0020325 -0.0010506 -0.0041064 0.0003329 -0.0004747 0.0001855 -0.0002273
0.0004823 -0.0003979 0.0002390 -0.0003196 -0.0001393 -0.0012657 -0.0000268 -0.0012652 -0.0016470 -0.0050799 -0.0010863 -0.0027008 -0.0009928 -0.0019985 -0.0010654 -0.0039472 0.0003092 -0.0004159 0.0002634 -0.0004104
0.0002903 -0.0005475 0.0002052 -0.0006480 -0.0001276 -0.0014382 -0.0000487 -0.0015786 -0.0016228 -0.0052943 -0.0010328 -0.0027979 -0.0009738 -0.0022549 -0.0010629 -0.0040448 0.0002756 -0.0005673 0.0003516 -0.0006099
0.0001874 -0.0007986 0.0002180 -0.0008055 -0.0001330 -0.0016374 -0.0000513 -0.0017667 -0.0015677 -0.0052548 -0.0009967 -0.0027484 -0.0009565 -0.0022670 -0.0009954 -0.0038122 0.0003533 -0.0003469 0.0004722 -0.0002892
0.0000629 -0.0005033 0.0002505 -0.0007058 -0.0001502 -0.0016288 -0.0000609 -0.0017485 -0.0015316 -0.0050749 -0.0009722 -0.0025832 -0.0009178 -0.0020654 -0.0009247 -0.0034724 0.0004530 0.0000445 0.0005701 0.0001882
0.0000727 -0.0002345 0.0002673 -0.0005126 -0.0001726 -0.0015132 -0.0000839 -0.0016233 -0.0015270 -0.0049268 -0.0009179 -0.0023880 -0.0008042 -0.0017046 -0.0008808 -0.0032013 0.0005045 0.0004765 0.0005520 0.0003695
0.0001421 -0.0004566 0.0002848 -0.0005371 -0.0001411 -0.0015706 -0.0000455 -0.0016794 -0.0014997 -0.0050411 -0.0008707 -0.0024614 -0.0006835 -0.0016449 -0.0008382 -0.0031981 0.0005006 0.0005325 0.0005169 0.0002581
0.0002540 -0.0007144 0.0003301 -0.0005911 -0.0000824 -0.0016816 0.0000328 -0.0017745 -0.0014426 -0.0051358 -0.0008640 -0.0026413 -0.0006426 -0.0017687 -0.0007672 -0.0033176 0.0004978 0.0003441 0.0005313 0.0001637
0.0003530 -0.0006532 0.0003736 -0.0005017 -0.0000391 -0.0016334 0.0000807 -0.0016567 -0.0014105 -0.0050243 -0.0008572 -0.0026179 -0.0006092 -0.0016186 -0.0007117 -0.0032729 0.0005215 0.0003775 0.0005138 0.0001410
0.0002588 -0.0003940 0.0004006 -0.0003931 -0.0000064 -0.0015217 0.0001165 -0.0014879 -0.0013902 -0.0048861 -0.0008549 -0.0025311 -0.0005747 -0.0014792 -0.0006821 -0.0032497 0.0005464 0.0003882 0.0005371 0.0001707
0.0002196 0.0000974 0.0004561 -0.0001994 -0.0000063 -0.0014131 0.0001615 -0.0012841 -0.0013595 -0.0048128 -0.0008355 -0.0025554 -0.0005669 -0.0015626 -0.0007029 -0.0034271 0.0005017 0.0001367 0.0006315 -0.0000778
0.0003017 0.0002151 0.0005003 -0.0001863 0.0000156 -0.0014946 0.0002194 -0.0012646 -0.0013273 -0.0048781 -0.0008180 -0.0026634 -0.0005644 -0.0017189 -0.0007223 -0.0035676 0.0004695 -0.0000598 0.0006124 -0.0002494
0.0003602 0.0001823 0.0005018 -0.0003058 0.0000188 -0.0015932 0.0002356 -0.0013545 -0.0013218 -0.0049417 -0.0008068 -0.0026174 -0.0005453 -0.0017526 -0.0007156 -0.0035554 0.0004939 -0.0000199 0.0005733 -0.0001874
0.0003676 -0.0000398 0.0004328 -0.0004492 -0.0000171 -0.0015562 0.0002028 -0.0013687 -0.0013491 -0.0049199 -0.0008115 -0.0025079 -0.0005589 -0.0017037 -0.0007161 -0.0035238 0.0005053 -0.0000104 0.0005565 -0.0001085
0.0003656 -0.0003735 0.0003600 -0.0005366 -0.0000219 -0.0014514 0.0001663 -0.0013203 -0.0013709 -0.0048059 -0.0008230 -0.0023521 -0.0005889 -0.0015425 -0.0007192 -0.0034050 0.0005165 0.0000610 0.0004644 0.0000856
0.0003014 -0.0002652 0.0003473 -0.0005420 -0.0000020 -0.0013533 0.0001521 -0.0012866 -0.0013721 -0.0048216 -0.0008176 -0.0024024 -0.0005942 -0.0016135 -0.0007421 -0.0035482 0.0004757 -0.0000566 0.0004747 -0.0000348
0.0004297 0.0002059 0.0004906 -0.0002335 0.0000034 -0.0014056 0.0001963 -0.0012351 -0.0013398 -0.0048679 -0.0008098 -0.0025333 -0.0005971 -0.0017687 -0.0007624 -0.0037198 0.0004337 -0.0002573 0.0005235 -0.0002726
0.0004964 0.0004164 0.0005499 -0.0000759 -0.0000190 -0.0014346 0.0002190 -0.0011685 -0.0013508 -0.0048972 -0.0008002 -0.0024966 -0.0005842 -0.0017092 -0.0007631 -0.0036214 0.0004333 -0.0002585 0.0005407 -0.0003107
-0.0000084 -0.0003679 0.0003080 -0.0005815 -0.0000501 -0.0013834 0.0001863 -0.0011843 -0.0013842 -0.0048859 -0.0007950 -0.0024145 -0.0005548 -0.0015695 -0.0007444 -0.0034425 0.0004652 -0.0001099 0.0005405 -0.0001616
-0.0002307 -0.0006456 0.0002106 -0.0007010 -0.0000917 -0.0012902 0.0001576 -0.0010646 -0.0013815 -0.0046845 -0.0007904 -0.0022846 -0.0005396 -0.0014281 -0.0007586 -0.0034032 0.0004618 -0.0000489 0.0004660 -0.0000743
-0.0001061 -0.0005721 0.0002513 -0.0006542 -0.0000991 -0.0012877 0.0001436 -0.0010749 -0.0013834 -0.0047226 -0.0007859 -0.0023695 -0.0005295 -0.0015263 -0.0007724 -0.0035475 0.0004149 -0.0001882 0.0004410 -0.0001886
-0.0000474 -0.0009051 0.0002414 -0.0008030 -0.0000975 -0.0013576 0.0001574 -0.0011761 -0.0013663 -0.0048212 -0.0007831 -0.0024994 -0.0005196 -0.0016546 -0.0007370 -0.0036184 0.0004091 -0.0002558 0.0004819 -0.0002716
0.0001761 -0.0006517 0.0003468 -0.0006478 -0.0000990 -0.0013628 0.0001845 -0.0010971 -0.0013526 -0.0047522 -0.0007681 -0.0024626 -0.0005076 -0.0015801 -0.0007134 -0.0035652 0.0004317 -0.0001988 0.0004567 -0.0002306
0.0003806 0.0004510 0.0005278 -0.0002233 -0.0001327 -0.0014014 0.0002207 -0.0008868 -0.0013351 -0.0045608 -0.0007673 -0.0023489 -0.0005100 -0.0014207 -0.0007030 -0.0034538 0.0004686 -0.0000844 0.0004566 -0.0001705
0.0006198 0.0017401 0.0007112 0.0002583 -0.0002090 -0.0014660 0.0002524 -0.0006890 -0.0013295 -0.0044948 -0.0007767 -0.0024265 -0.0005259 -0.0014911 -0.0007231 -0.0036461 0.0004174 -0.0002608 0.0005357 -0.0004398
0.0009117 0.0022297 0.0008857 0.0005307 -0.0002583 -0.0017106 0.0002811 -0.0007522 -0.0013128 -0.0046441 -0.0007744 -0.0026819 -0.0005182 -0.0017264 -0.0007332 -0.0039018 0.0003567 -0.0005246 0.0005557 -0.0007033
0.0010779 0.0022738 0.0010438 0.0008902 -0.0001951 -0.0018308 0.0003527 -0.0007814 -0.0011899 -0.0044725 -0.0007690 -0.0027652 -0.0004909 -0.0018128 -0.0006915 -0.0039102 0.0003681 -0.0006302 0.0005286 -0.0006996
0.0010109 0.0018619 0.0009781 0.0006905 -0.0000383 -0.0015720 0.0003718 -0.0007612 -0.0011532 -0.0043483 -0.0007640 -0.0026567 -0.0004831 -0.0017105 -0.0006664 -0.0037927 0.0003992 -0.0006075 0.0005161 -0.0006114
0.0007441 0.0009451 0.0006909 -0.0001132 -0.0000211 -0.0013882 0.0002929 -0.0007656 -0.0012340 -0.0043477 -0.0007621 -0.0024499 -0.0004814 -0.0015056 -0.0006694 -0.0036943 0.0004047 -0.0005280 0.0004800 -0.0005467
0.0005044 0.0003043 0.0005303 -0.0005738 -0.0000732 -0.0014368 0.0002437 -0.0008370 -0.0012534 -0.0044342 -0.0007560 -0.0025338 -0.0004738 -0.0015716 -0.0006630 -0.0038387 0.0003812 -0.0006038 0.0004945 -0.0006229
0.0003995 -0.0000349 0.0005172 -0.0007942 -0.0000663 -0.0015322 0.0002470 -0.0009663 -0.0012400 -0.0045952 -0.0007404 -0.0027051 -0.0004629 -0.0017114 -0.0006350 -0.0039209 0.0003929 -0.0006286 0.0004985 -0.0006400
0.0003547 -0.0001437 0.0005294 -0.0008553 -0.0000618 -0.0015474 0.0002594 -0.0009541 -0.0012287 -0.0045505 -0.0007266 -0.0026452 -0.0004473 -0.0016514 -0.0006108 -0.0038130 0.0004243 -0.0005526 0.0005335 -0.0005708
0.0002880 -0.0000031 0.0005286 -0.0008077 -0.0000690 -0.0014557 0.0002587 -0.0008635 -0.0012298 -0.0044441 -0.0007253 -0.0025256 -0.0004411 -0.0015320 -0.0006024 -0.0036616 0.0004564 -0.0004099 0.0005900 -0.0004593
0.0002900 0.0001856 0.0005157 -0.0007061 -0.0000968 -0.0012873 0.0002507 -0.0007228 -0.0012371 -0.0043421 -0.0007187 -0.0024649 -0.0004305 -0.0014731 -0.0006243 -0.0036903 0.0004248 -0.0004153 0.0005364 -0.0004620
0.0003098 -0.0000225 0.0004989 -0.0008040 -0.0000986 -0.0012909 0.0002551 -0.0007665 -0.0012303 -0.0044417 -0.0007076 -0.0025726 -0.0004149 -0.0015683 -0.0006289 -0.0038267 0.0003862 -0.0005206 0.0005188 -0.0005822
0.0003505 -0.0003539 0.0005016 -0.0009570 -0.0000840 -0.0013865 0.0002787 -0.0008500 -0.0012121 -0.0045276 -0.0007011 -0.0026313 -0.0004068 -0.0016190 -0.0005952 -0.0038240 0.0004023 -0.0004981 0.0005650 -0.0006077
0.0004320 -0.0003674 0.0005172 -0.0009357 -0.0000743 -0.0013496 0.0002905 -0.0007705 -0.0012036 -0.0044363 -0.0006975 -0.0025299 -0.0004271 -0.0015105 -0.0005869 -0.0037005 0.0004251 -0.0003916 0.0005554 -0.0005115
0.0003285 -0.0001287 0.0005140 -0.0008681 -0.0000905 -0.0012402 0.0002781 -0.0006424 -0.0012174 -0.0042952 -0.0006947 -0.0023157 -0.0004464 -0.0013451 -0.0006178 -0.0035046 0.0004458 -0.0002271 0.0004867 -0.0004391
0.0001808 0.0000130 0.0004770 -0.0009101 -0.0001130 -0.0010947 0.0002693 -0.0005743 -0.0012349 -0.0042929 -0.0006818 -0.0022496 -0.0004609 -0.0013646 -0.0006837 -0.0035301 0.0003717 -0.0004439 0.0005395 -0.0006231
0.0001160 -0.0002929 0.0004301 -0.0011224 -0.0001419 -0.0011793 0.0002410 -0.0007771 -0.0012463 -0.0044753 -0.0006808 -0.0023947 -0.0004878 -0.0015354 -0.0006628 -0.0034304 0.0002787 -0.0007833 0.0007083 -0.0002773
0.0001859 -0.0001370 0.0004243 -0.0008879 0.0006216 0.0011687 0.0009207 0.0016113 0.0000324 0.0002838 0.0008003 0.0018430 0.0007663 0.0024713 0.0010049 0.0023364 0.0003121 0.0011250 0.0008837 0.0014214
0.0005185 0.0008870 0.0009065 0.0006659 0.0015157 0.0041777 0.0017192 0.0054805 0.0029652 0.0076667 0.0027728 0.0076104 0.0020676 0.0070831 0.0025102 0.0082263 0.0003420 0.0036660 0.0009239 0.0028492
0.0007337 0.0015359 0.0015590 0.0014443 0.0018064 0.0053974 0.0017597 0.0071394 0.0048807 0.0106334 0.0036068 0.0100443 0.0023344 0.0085249 0.0027686 0.0100619 0.0002366 0.0045353 0.0008531 0.0031861
0.0005997 0.0014222 0.0017902 0.0011368 0.0019744 0.0060184 0.0016438 0.0073493 0.0053950 0.0105241 0.0037683 0.0103647 0.0023809 0.0088661 0.0028550 0.0106992 0.0001124 0.0046225 0.0008829 0.0032063
0.0004448 0.0011218 0.0018146 0.0011637 0.0020315 0.0061840 0.0016495 0.0073375 0.0054561 0.0103973 0.0037402 0.0102009 0.0023731 0.0088911 0.0028614 0.0109883 0.0000842 0.0046890 0.0010152 0.0030015
0.0003705 0.0008949 0.0017816 0.0009305 0.0019556 0.0060807 0.0016277 0.0072543 0.0053929 0.0103969 0.0036520 0.0101380 0.0023491 0.0089773 0.0028358 0.0112621 0.0001564 0.0049923 0.0011517 0.0028969
0.0002780 0.0008780 0.0017232 0.0007934 0.0018450 0.0060456 0.0015845 0.0072348 0.0053020 0.0104160 0.0035942 0.0102237 0.0023508 0.0091593 0.0028467 0.0115364 0.0002020 0.0051943 0.0011492 0.0030523
0.0002974 0.0009218 0.0016961 0.0009144 0.0018100 0.0062045 0.0015492 0.0072528 0.0052340 0.0103992 0.0035964 0.0102347 0.0023543 0.0091538 0.0028498 0.0115349 0.0001365 0.0050431 0.0010717 0.0030417
0.0003633 0.0006410 0.0017088 0.0008513 0.0018196 0.0062317 0.0015307 0.0071269 0.0052131 0.0103446 0.0036070 0.0100807 0.0023629 0.0090723 0.0028999 0.0115504 0.0000284 0.0047009 0.0009844 0.0029242
0.0004183 0.0003062 0.0017312 0.0008151 0.0018348 0.0062623 0.0015210 0.0070390 0.0051762 0.0103044 0.0036129 0.0100666 0.0023688 0.0091344 0.0029898 0.0117369 -0.0000502 0.0044315 0.0009110 0.0029230
0.0004360 0.0003126 0.0017355 0.0009703 0.0018324 0.0064161 0.0015034 0.0071001 0.0047378 0.0102603 0.0036106 0.0101964 0.0023315 0.0092286 0.0030216 0.0118361 -0.0000624 0.0043651 0.0008931 0.0030072
0.0002340 0.0006593 0.0017286 0.0011103 0.0017929 0.0065293 0.0014762 0.0072018 0.0037094 0.0104849 0.0035761 0.0103204 0.0022856 0.0092528 0.0029828 0.0116846 -0.0000761 0.0042596 0.0008935 0.0029541
0.0000789 0.0007646 0.0017206 0.0011149 0.0017730 0.0064681 0.0014540 0.0071125 0.0040648 0.0104947 0.0035277 0.0100215 0.0022628 0.0090276 0.0029532 0.0114160 -0.0001038 0.0041218 0.0009412 0.0027155
0.0001494 0.0004472 0.0017318 0.0010321 0.0017671 0.0062540 0.0014381 0.0068182 0.0048841 0.0103063 0.0033331 0.0091191 0.0020844 0.0079759 0.0029180 0.0102238 -0.0002848 0.0028850 0.0008784 0.0020671
0.0004592 0.0003454 0.0014109 0.0010899 0.0012970 0.0046407 0.0007216 0.0037492 0.0028177 0.0068309 0.0020818 0.0056295 0.0012957 0.0047414 0.0024042 0.0071073 -0.0004913 0.0005409 0.0008196 0.0012029
0.0007694 0.0001721 0.0009829 0.0009347 0.0006923 0.0027283 -0.0000331 0.0004185 0.0000639 0.0024549 0.0006927 0.0018765 0.0006077 0.0021513 0.0018923 0.0050186 -0.0004595 -0.0003713 0.0008627 0.0011008
0.0008551 0.0000684 0.0008592 0.0007443 0.0006932 0.0029384 0.0000366 0.0006941 0.0000079 0.0023767 0.0005489 0.0014597 0.0005057 0.0019428 0.0016967 0.0043957 -0.0004107 -0.0003588 0.0008059 0.0011346
0.0007042 -0.0000938 0.0008169 0.0006668 0.0005628 0.0024929 -0.0000250 0.0005174 -0.0000400 0.0021348 0.0004426 0.0009746 0.0003827 0.0014083 0.0017269 0.0044013 -0.0004241 -0.0003019 0.0008952 0.0013275
0.0005065 -0.0001312 0.0007965 0.0008096 0.0009358 0.0036169 0.0005323 0.0027433 0.0013748 0.0072197 0.0017901 0.0045201 0.0012264 0.0044527 0.0025398 0.0079071 -0.0002073 0.0015366 0.0010692 0.0021231
0.0004517 0.0002342 0.0009820 0.0012108 0.0015377 0.0058496 0.0011420 0.0056849 0.0035648 0.0109767 0.0031510 0.0085302 0.0020203 0.0076339 0.0030339 0.0107027 0.0000501 0.0034537 0.0011297 0.0026139
0.0003630 0.0003326 0.0012623 0.0008876 0.0015500 0.0062416 0.0011446 0.0064309 0.0045374 0.0103622 0.0033209 0.0092227 0.0020350 0.0080104 0.0029863 0.0111026 0.0000700 0.0038598 0.0011021 0.0027474
0.0003903 0.0004097 0.0014012 0.0004944 0.0015303 0.0064001 0.0011178 0.0066812 0.0045534 0.0103470 0.0033028 0.0093400 0.0019913 0.0079662 0.0029134 0.0107667 0.0000856 0.0038470 0.0010390 0.0025542
0.0005126 0.0003108 0.0014457 0.0007469 0.0015343 0.0062580 0.0011112 0.0066417 0.0045529 0.0102865 0.0032817 0.0091083 0.0019525 0.0077301 0.0028621 0.0103911 0.0001717 0.0039813 0.0010683 0.0023033
0.0005581 0.0000191 0.0014636 0.0005518 0.0015481 0.0060661 0.0011217 0.0065287 0.0045517 0.0102148 0.0032503 0.0088571 0.0019460 0.0077068 0.0029100 0.0105642 0.0002480 0.0041154 0.0011218 0.0023447
0.0005402 -0.0000234 0.0015107 0.0003600 0.0015750 0.0061407 0.0011162 0.0065965 0.0045181 0.0101842 0.0032360 0.0089187 0.0019364 0.0078124 0.0029477 0.0106351 0.0002573 0.0039770 0.0011272 0.0024204
0.0004102 0.0003351 0.0015386 0.0007393 0.0015749 0.0062788 0.0010933 0.0067460 0.0044643 0.0101966 0.0032236 0.0090673 0.0019112 0.0078794 0.0029352 0.0105943 0.0003079 0.0040129 0.0011340 0.0024720
0.0003646 0.0006808 0.0015358 0.0010101 0.0015379 0.0063550 0.0010542 0.0068461 0.0044023 0.0102163 0.0031946 0.0089873 0.0018768 0.0077323 0.0028748 0.0103104 0.0003328 0.0040020 0.0012009 0.0022995
0.0005020 0.0003529 0.0015347 0.0009398 0.0015340 0.0061899 0.0010287 0.0067094 0.0043612 0.0101568 0.0031562 0.0086443 0.0018535 0.0074115 0.0028347 0.0099112 0.0003100 0.0037689 0.0012304 0.0020803
0.0006606 -0.0000405 0.0015482 0.0008396 0.0015367 0.0059892 0.0010296 0.0065927 0.0043101 0.0101183 0.0031133 0.0084458 0.0018336 0.0072598 0.0028448 0.0098416 0.0003698 0.0038550 0.0012186 0.0020738
0.0007841 -0.0001065 0.0015395 0.0008989 0.0015091 0.0059640 0.0010071 0.0066682 0.0042396 0.0101418 0.0030722 0.0084713 0.0018076 0.0072704 0.0028507 0.0098560 0.0004122 0.0039147 0.0011979 0.0021054
0.0008466 -0.0000071 0.0015198 0.0010242 0.0014659 0.0060184 0.0009490 0.0067698 0.0041555 0.0101830 0.0030333 0.0085862 0.0017664 0.0073896 0.0028484 0.0099458 0.0004101 0.0038872 0.0011555 0.0021863
0.0007298 0.0002895 0.0014930 0.0011381 0.0014099 0.0060755 0.0008820 0.0068176 0.0040671 0.0102229 0.0030004 0.0084648 0.0017215 0.0073273 0.0028168 0.0098841 0.0003986 0.0038987 0.0011920 0.0020828
0.0005471 0.0001598 0.0014762 0.0010004 0.0013814 0.0059141 0.0008502 0.0067084 0.0040087 0.0101923 0.0029721 0.0081489 0.0017031 0.0071198 0.0027964 0.0096956 0.0003731 0.0037705 0.0012230 0.0018693
0.0006128 -0.0001339 0.0014978 0.0009651 0.0013949 0.0057347 0.0008542 0.0066354 0.0039628 0.0101523 0.0029518 0.0080407 0.0017056 0.0070746 0.0028157 0.0096610 0.0004336 0.0038099 0.0012583 0.0018747
0.0007780 -0.0000092 0.0015221 0.0011698 0.0013980 0.0058064 0.0008551 0.0067452 0.0039170 0.0101580 0.0029372 0.0081396 0.0016976 0.0070599 0.0028173 0.0094992 0.0004957 0.0037857 0.0012713 0.0019720
0.0009451 0.0002439 0.0015171 0.0013864 0.0013745 0.0059704 0.0008242 0.0069028 0.0038261 0.0102099 0.0028871 0.0082487 0.0016462 0.0071086 0.0027934 0.0094352 0.0005527 0.0038685 0.0012078 0.0021515
0.0009403 0.0004406 0.0014962 0.0014858 0.0013521 0.0060818 0.0007833 0.0070161 0.0037311 0.0102406 0.0028406 0.0080727 0.0016094 0.0071135 0.0027960 0.0095806 0.0005403 0.0039813 0.0011925 0.0021727
0.0007830 0.0002975 0.0014732 0.0013426 0.0013441 0.0060657 0.0007633 0.0069966 0.0036827 0.0102050 0.0027962 0.0077571 0.0015978 0.0070514 0.0028214 0.0098471 0.0004570 0.0039407 0.0012059 0.0020562
0.0006618 0.0000731 0.0014436 0.0011780 0.0013341 0.0060885 0.0007389 0.0069465 0.0036604 0.0101711 0.0027756 0.0077665 0.0015935 0.0071921 0.0028536 0.0102413 0.0004252 0.0040064 0.0012152 0.0020888
0.0004625 0.0001591 0.0013800 0.0011664 0.0013044 0.0063643 0.0006793 0.0070810 0.0036744 0.0101637 0.0027713 0.0079908 0.0015838 0.0073709 0.0028562 0.0104990 0.0004056 0.0040961 0.0012019 0.0021954
0.0003200 0.0003124 0.0012862 0.0012132 0.0012302 0.0065927 0.0005903 0.0072243 0.0036162 0.0102199 0.0026996 0.0081126 0.0015249 0.0074492 0.0027930 0.0105063 0.0003726 0.0040663 0.0011491 0.0022546
0.0004462 0.0002408 0.0012494 0.0011308 0.0011355 0.0062049 0.0003606 0.0062310 0.0031478 0.0091067 0.0024044 0.0069266 0.0013442 0.0065668 0.0028503 0.0100675 0.0000294 0.0028780 0.0009944 0.0020087
0.0005823 0.0000887 0.0012305 0.0007524 0.0011297 0.0060679 0.0002249 0.0053792 0.0027124 0.0091377 0.0023127 0.0063010 0.0012943 0.0061118 0.0029442 0.0100138 -0.0001468 0.0023626 0.0009273 0.0020154
0.0005527 0.0000857 0.0011890 0.0006186 0.0011549 0.0064923 0.0003083 0.0059320 0.0029299 0.0102859 0.0025155 0.0072354 0.0013802 0.0067994 0.0029087 0.0103955 0.0000359 0.0031147 0.0010456 0.0023382
0.0004746 0.0002376 0.0011706 0.0009491 0.0011216 0.0067317 0.0003366 0.0065669 0.0032445 0.0102313 0.0025750 0.0078221 0.0013757 0.0071520 0.0028501 0.0104973 0.0000891 0.0033355 0.0011101 0.0025579
0.0003174 0.0005676 0.0011299 0.0012737 0.0010507 0.0069341 0.0003199 0.0070762 0.0033753 0.0102347 0.0026022 0.0083196 0.0013829 0.0074850 0.0028044 0.0106171 0.0000937 0.0034859 0.0011564 0.0026362
0.0001639 0.0005484 0.0010906 0.0013240 0.0010283 0.0070130 0.0002955 0.0071952 0.0033957 0.0101891 0.0026013 0.0083013 0.0013802 0.0075361 0.0027744 0.0106068 0.0000573 0.0035136 0.0011522 0.0025444
0.0002595 0.0001731 0.0010883 0.0012497 0.0010401 0.0069418 0.0002786 0.0070643 0.0033599 0.0101311 0.0025610 0.0080316 0.0013617 0.0074165 0.0027463 0.0105645 0.0000467 0.0035655 0.0010991 0.0025250
0.0003328 0.0001408 0.0010790 0.0012615 0.0010187 0.0068986 0.0002691 0.0070295 0.0033120 0.0101167 0.0025063 0.0079522 0.0013464 0.0074309 0.0027320 0.0106241 0.0000610 0.0037002 0.0010696 0.0025556
0.0003065 0.0002703 0.0010559 0.0013041 0.0009997 0.0069080 0.0002464 0.0070670 0.0032617 0.0101168 0.0024397 0.0079190 0.0012687 0.0073210 0.0026390 0.0103617 0.0001059 0.0038261 0.0010920 0.0024674
0.0002208 0.0003801 0.0010453 0.0013059 0.0009417 0.0068276 0.0002093 0.0070704 0.0032138 0.0101012 0.0023808 0.0076903 0.0011902 0.0070403 0.0025204 0.0098767 0.0001064 0.0037278 0.0011691 0.0022226
0.0000424 0.0003472 0.0010577 0.0012636 0.0009242 0.0066707 0.0002030 0.0068824 0.0032104 0.0100176 0.0023882 0.0074662 0.0012124 0.0069151 0.0025328 0.0097406 0.0000619 0.0035055 0.0012291 0.0020248
0.0000754 0.0001011 0.0010642 0.0012002 0.0009191 0.0064652 0.0002032 0.0066869 0.0031836 0.0099667 0.0023646 0.0073828 0.0011777 0.0066739 0.0024524 0.0091698 0.0001021 0.0034319 0.0012876 0.0017470
0.0002990 0.0000058 0.0010672 0.0011611 0.0008326 0.0061668 0.0001796 0.0066192 0.0031093 0.0099835 0.0022772 0.0072611 0.0011196 0.0064090 0.0023402 0.0086689 0.0001334 0.0033262 0.0012692 0.0015630
0.0004712 0.0001350 0.0010509 0.0012491 0.0007695 0.0061332 0.0001492 0.0066675 0.0030792 0.0099767 0.0022495 0.0072651 0.0011340 0.0064599 0.0023431 0.0087536 0.0000520 0.0031273 0.0011761 0.0013881
0.0005690 -0.0000770 0.0010502 0.0011189 0.0007779 0.0060092 0.0001326 0.0065303 0.0030479 0.0099051 0.0022364 0.0070304 0.0011375 0.0063671 0.0023599 0.0087284 -0.0000437 0.0029230 0.0011026 0.0011549
0.0004207 -0.0001929 0.0010988 0.0009022 0.0008272 0.0057060 0.0001562 0.0062403 0.0029761 0.0098150 0.0021985 0.0066756 0.0011388 0.0061908 0.0024193 0.0088230 -0.0001279 0.0026572 0.0010702 0.0010071
0.0003269 -0.0000826 0.0011421 0.0008908 0.0008864 0.0056696 0.0001885 0.0061136 0.0029143 0.0097522 0.0021731 0.0065771 0.0011458 0.0061625 0.0024731 0.0089083 -0.0002105 0.0023627 0.0011101 0.0009274
0.0004140 -0.0000248 0.0011660 0.0009290 0.0009105 0.0057167 0.0001826 0.0060597 0.0028640 0.0097243 0.0021417 0.0065852 0.0011358 0.0061500 0.0024799 0.0088365 -0.0002512 0.0021920 0.0011180 0.0009518
0.0004442 -0.0000372 0.0011770 0.0008083 0.0009229 0.0055981 0.0001600 0.0058108 0.0027984 0.0096455 0.0021075 0.0062581 0.0011429 0.0059295 0.0024964 0.0086892 -0.0003353 0.0019249 0.0011037 0.0008023
0.0005878 -0.0004225 0.0011853 0.0004684 0.0009601 0.0053297 0.0001567 0.0053974 0.0027125 0.0096089 0.0020676 0.0057602 0.0011326 0.0055807 0.0025389 0.0085729 -0.0004325 0.0015689 0.0010536 0.0006854
0.0008174 -0.0006969 0.0012107 0.0003117 0.0010066 0.0052545 0.0001703 0.0051912 0.0026903 0.0095563 0.0020511 0.0056851 0.0011217 0.0054629 0.0025760 0.0085836 -0.0004908 0.0013070 0.0009528 0.0006855
0.0007807 -0.0004925 0.0012285 0.0003857 0.0010255 0.0052871 0.0001575 0.0051323 0.0026835 0.0095055 0.0020478 0.0058143 0.0011231 0.0055347 0.0025989 0.0086807 -0.0004933 0.0012509 0.0009412 0.0007525
0.0006044 -0.0001781 0.0012298 0.0004584 0.0010409 0.0053037 0.0001355 0.0049910 0.0025896 0.0096104 0.0020441 0.0056981 0.0010824 0.0052775 0.0025159 0.0079446 -0.0004989 0.0008294 0.0010388 0.0005844
0.0006304 -0.0002336 0.0013081 0.0005481 0.0010560 0.0048780 0.0001703 0.0045988 0.0024965 0.0094668 0.0020687 0.0054360 0.0010352 0.0046205 0.0023453 0.0063897 -0.0004375 0.0001528 0.0011988 0.0003690
0.0008361 -0.0002657 0.0014278 0.0006624 0.0010454 0.0042015 0.0001955 0.0039880 0.0026980 0.0077180 0.0020848 0.0053544 0.0010237 0.0041579 0.0022849 0.0057317 -0.0003483 0.0000134 0.0012456 0.0004524
0.0010727 -0.0001398 0.0014656 0.0006429 0.0010680 0.0040307 0.0001309 0.0033404 0.0029588 0.0056696 0.0020608 0.0053172 0.0010110 0.0040579 0.0023312 0.0061043 -0.0003912 0.0001835 0.0011146 0.0006252
0.0011412 -0.0001138 0.0014293 0.0003000 0.0010683 0.0040124 0.0000702 0.0029657 0.0021340 0.0078814 0.0020334 0.0051530 0.0010178 0.0040005 0.0023847 0.0064427 -0.0004990 0.0002776 0.0010371 0.0006020
0.0010889 -0.0003708 0.0013942 -0.0000000 0.0011205 0.0039923 0.0001499 0.0030408 0.0021900 0.0079834 0.0020527 0.0050368 0.0010656 0.0040248 0.0024657 0.0067427 -0.0005384 0.0003295 0.0010690 0.0004608
0.0009969 -0.0006793 0.0013361 -0.0001234 0.0012075 0.0040943 0.0003015 0.0034584 0.0030141 0.0058156 0.0020534 0.0050153 0.0011030 0.0041243 0.0025129 0.0068783 -0.0004674 0.0004943 0.0011171 0.0005120
0.0008194 -0.0006173 0.0012548 0.0002333 0.0011803 0.0039000 0.0002546 0.0031492 0.0020758 0.0079304 0.0019087 0.0045744 0.0009947 0.0035644 0.0024656 0.0063154 -0.0004248 0.0002331 0.0011748 0.0005331
0.0007726 -0.0003273 0.0012200 0.0005111 0.0011567 0.0037870 0.0001686 0.0027621 0.0020456 0.0075048 0.0018629 0.0046887 0.0010511 0.0038459 0.0025864 0.0068422 -0.0003007 0.0006713 0.0012757 0.0007953
0.0008219 -0.0003835 0.0012405 0.0000868 0.0012323 0.0043848 0.0003011 0.0037329 0.0029352 0.0070809 0.0020982 0.0056187 0.0012902 0.0050127 0.0027320 0.0079801 -0.0000824 0.0018291 0.0013118 0.0011368
0.0008113 -0.0007255 0.0012580 0.0002281 0.0012817 0.0047953 0.0004239 0.0046526 0.0029811 0.0088251 0.0022418 0.0061177 0.0013496 0.0053627 0.0027098 0.0081463 0.0000498 0.0023035 0.0012931 0.0012572
0.0008162 -0.0007779 0.0012699 0.0004038 0.0012707 0.0048048 0.0004581 0.0049388 0.0030105 0.0088385 0.0022295 0.0062934 0.0013446 0.0055382 0.0027168 0.0083214 0.0000489 0.0023244 0.0013069 0.0012723
0.0007951 -0.0006136 0.0013199 0.0001592 0.0012407 0.0048470 0.0004480 0.0050863 0.0029967 0.0088593 0.0022082 0.0064953 0.0013136 0.0056560 0.0026853 0.0083311 0.0000336 0.0023234 0.0013095 0.0012330
0.0006638 -0.0002848 0.0013230 0.0003141 0.0011623 0.0048844 0.0004061 0.0051852 0.0029609 0.0088969 0.0021947 0.0066079 0.0012917 0.0056381 0.0026216 0.0081823 0.0000266 0.0023680 0.0013351 0.0011827
0.0005133 -0.0003114 0.0012924 0.0002392 0.0011415 0.0048853 0.0004034 0.0051584 0.0029391 0.0088523 0.0021798 0.0064775 0.0012987 0.0055845 0.0025990 0.0081592 0.0000026 0.0023195 0.0013128 0.0011860
0.0006667 -0.0006231 0.0013071 0.0000945 0.0011629 0.0048854 0.0004331 0.0051652 0.0029402 0.0087895 0.0021613 0.0064250 0.0013002 0.0055695 0.0025988 0.0081928 -0.0000047 0.0022703 0.0012257 0.0013329
0.0008133 -0.0005360 0.0012981 0.0002831 0.0011288 0.0049710 0.0004213 0.0052903 0.0029099 0.0088156 0.0021344 0.0065387 0.0012798 0.0056619 0.0025939 0.0083150 0.0000074 0.0023440 0.0011981 0.0015705
0.0008084 -0.0003409 0.0012488 0.0004941 0.0010749 0.0050736 0.0003677 0.0054003 0.0028548 0.0088659 0.0021012 0.0067045 0.0012453 0.0058719 0.0025813 0.0084811 0.0000364 0.0025273 0.0011599 0.0017580
0.0006660 -0.0002705 0.0012463 0.0005355 0.0010673 0.0051178 0.0003466 0.0054101 0.0028318 0.0088398 0.0021068 0.0065875 0.0012245 0.0057768 0.0025316 0.0082114 0.0000317 0.0025065 0.0011426 0.0017057
0.0004928 -0.0002943 0.0012788 0.0004999 0.0010858 0.0049508 0.0003725 0.0052624 0.0028149 0.0087623 0.0021190 0.0063278 0.0012323 0.0054657 0.0024725 0.0077272 0.0000760 0.0024853 0.0012407 0.0016312
0.0005723 -0.0003233 0.0013002 0.0006401 0.0010994 0.0048268 0.0004090 0.0052247 0.0028010 0.0087164 0.0021085 0.0063193 0.0012523 0.0054457 0.0024724 0.0077693 0.0001253 0.0025912 0.0012541 0.0017426
0.0006676 -0.0002687 0.0012887 0.0007189 0.0010967 0.0049901 0.0004225 0.0054215 0.0028193 0.0087107 0.0021035 0.0064784 0.0012620 0.0055494 0.0024640 0.0078027 0.0001381 0.0025837 0.0011968 0.0018899
0.0007765 -0.0000097 0.0012713 0.0008674 0.0010854 0.0051456 0.0004169 0.0055479 0.0028275 0.0086908 0.0020985 0.0064061 0.0012540 0.0054380 0.0024185 0.0074957 0.0000575 0.0022666 0.0011332 0.0017974
0.0008861 -0.0001045 0.0012814 0.0008530 0.0011016 0.0048907 0.0003969 0.0051524 0.0027490 0.0086011 0.0020638 0.0059769 0.0012184 0.0051188 0.0023866 0.0073292 -0.0000113 0.0021213 0.0010790 0.0017079
0.0006925 -0.0002755 0.0012974 0.0006503 0.0011269 0.0045532 0.0003758 0.0046082 0.0026290 0.0085155 0.0020104 0.0056648 0.0011951 0.0049220 0.0023888 0.0073547 0.0000072 0.0022082 0.0010899 0.0017399
0.0005827 -0.0002133 0.0012999 0.0006405 0.0011469 0.0045078 0.0003723 0.0044182 0.0025455 0.0084898 0.0019675 0.0056184 0.0011906 0.0048500 0.0023868 0.0072746 -0.0000102 0.0020652 0.0011285 0.0017074
0.0006916 -0.0001080 0.0012912 0.0007561 0.0011450 0.0045473 0.0003421 0.0043143 0.0024277 0.0086401 0.0019273 0.0056413 0.0011764 0.0047135 0.0023472 0.0069412 -0.0001047 0.0016562 0.0010684 0.0015981
0.0008358 -0.0001554 0.0013015 0.0007061 0.0011663 0.0044252 0.0003223 0.0039713 0.0022928 0.0086202 0.0018861 0.0052471 0.0011427 0.0042990 0.0022841 0.0064343 -0.0002308 0.0011546 0.0009567 0.0014100
0.0010116 -0.0005059 0.0013155 0.0004746 0.0011995 0.0040786 0.0003173 0.0034481 0.0024651 0.0069307 0.0018458 0.0047881 0.0011203 0.0039309 0.0022510 0.0061188 -0.0002747 0.0009239 0.0009017 0.0013377
0.0011456 -0.0006287 0.0013393 0.0004464 0.0012101 0.0038276 0.0002965 0.0030588 0.0027275 0.0051642 0.0018281 0.0047445 0.0011168 0.0038302 0.0022394 0.0059465 -0.0002942 0.0007212 0.0008911 0.0013409
0.0011011 -0.0002864 0.0013579 0.0005707 0.0012170 0.0038526 0.0002944 0.0029756 0.0027164 0.0051304 0.0018502 0.0049675 0.0011135 0.0039115 0.0022157 0.0059379 -0.0002989 0.0006302 0.0009238 0.0013769
0.0009381 0.0001809 0.0013290 0.0006700 0.0011907 0.0039566 0.0002775 0.0029846 0.0026940 0.0051345 0.0018437 0.0049357 0.0010892 0.0037801 0.0021397 0.0057334 -0.0003506 0.0004856 0.0008978 0.0013078
0.0009346 -0.0000419 0.0013188 0.0004668 0.0011571 0.0036143 0.0002350 0.0025577 0.0020871 0.0066848 0.0017516 0.0043665 0.0010120 0.0032218 0.0020534 0.0052279 -0.0004236 0.0001592 0.0008702 0.0011437
0.0009964 -0.0004302 0.0013067 0.0001041 0.0011231 0.0031365 0.0002127 0.0020501 0.0013104 0.0088034 0.0016272 0.0038940 0.0009353 0.0027352 0.0020147 0.0049478 -0.0004413 -0.0000358 0.0008795 0.0010857
0.0010721 -0.0005111 0.0012766 -0.0000452 0.0010548 0.0028676 0.0001848 0.0017975 0.0010638 0.0091665 0.0014327 0.0035097 0.0008539 0.0024492 0.0019866 0.0049039 -0.0004452 -0.0001888 0.0008000 0.0011954
0.0010208 -0.0003993 0.0012495 0.0001681 0.0009531 0.0025993 0.0001231 0.0016114 0.0009715 0.0089234 0.0011925 0.0031602 0.0007494 0.0022628 0.0019189 0.0048676 -0.0004232 -0.0002689 0.0007379 0.0013735
0.0007769 0.0000406 0.0012058 0.0001736 0.0008069 0.0023508 0.0000457 0.0014876 0.0008728 0.0086434 0.0009986 0.0027731 0.0006347 0.0018659 0.0017482 0.0044285 -0.0004600 -0.0005004 0.0007560 0.0012422
0.0006390 -0.0000567 0.0011169 0.0000049 0.0005984 0.0015787 -0.0000421 0.0010083 0.0007585 0.0079980 0.0008041 0.0020900 0.0004971 0.0011566 0.0015266 0.0036843 -0.0005249 -0.0008949 0.0007558 0.0009842
0.0006971 -0.0002970 0.0010351 0.0001724 0.0003871 0.0005755 -0.0000999 0.0004411 0.0006409 0.0072614 0.0006258 0.0014823 0.0003660 0.0004283 0.0013272 0.0028593 -0.0005580 -0.0012852 0.0007197 0.0008634
0.0008455 -0.0000642 0.0010673 0.0003285 0.0003207 0.0002329 -0.0000801 0.0003308 0.0005896 0.0069377 0.0005218 0.0011940 0.0003231 0.0001307 0.0012902 0.0025922 -0.0005740 -0.0014413 0.0007037 0.0008692
0.0010302 0.0000327 0.0011174 0.0000968 0.0004126 0.0005078 -0.0000186 0.0004895 0.0006023 0.0069412 0.0004755 0.0011821 0.0002987 0.0001510 0.0012837 0.0026701 -0.0005720 -0.0014100 0.0006752 0.0009875
0.0009474 0.0003842 0.0011151 -0.0001060 0.0004886 0.0009013 0.0000508 0.0007981 0.0006703 0.0072358 0.0006910 0.0018874 0.0004997 0.0009958 0.0015057 0.0034752 -0.0005695 -0.0011028 0.0006668 0.0011540
0.0007951 0.0004724 0.0010980 0.0000339 0.0007506 0.0017056 0.0002939 0.0015522 0.0009365 0.0080790 0.0011241 0.0031110 0.0007398 0.0017902 0.0017210 0.0039803 -0.0005458 -0.0010278 0.0007859 0.0011915
0.0008249 0.0004878 0.0011758 0.0000587 0.0009752 0.0022171 0.0004227 0.0017756 0.0010472 0.0082612 0.0010548 0.0028675 0.0005575 0.0009922 0.0014972 0.0029230 -0.0005378 -0.0015643 0.0008334 0.0010576
0.0008878 0.0008218 0.0012188 -0.0001958 0.0009267 0.0020378 0.0003809 0.0015108 0.0009958 0.0080196 0.0008948 0.0024909 0.0005539 0.0010596 0.0015606 0.0034188 -0.0004545 -0.0011226 0.0008116 0.0013364
0.0008853 0.0008749 0.0011320 -0.0001087 0.0010594 0.0029057 0.0005446 0.0026145 0.0016934 0.0079730 0.0013835 0.0042937 0.0008639 0.0027968 0.0019116 0.0055674 -0.0002613 0.0004971 0.0007724 0.0019848
0.0007297 0.0008834 0.0010557 0.0005869 0.0012363 0.0043277 0.0006712 0.0041465 0.0024971 0.0077625 0.0018040 0.0058278 0.0010144 0.0040168 0.0020300 0.0068543 -0.0001728 0.0016652 0.0007193 0.0022745
0.0004210 0.0006857 0.0010056 0.0007215 0.0012679 0.0047888 0.0006682 0.0046419 0.0026936 0.0076977 0.0018654 0.0059177 0.0010518 0.0043886 0.0020329 0.0072877 -0.0001812 0.0020046 0.0007350 0.0023073
0.0001559 0.0005702 0.0009719 0.0005529 0.0012600 0.0047640 0.0006706 0.0047387 0.0027657 0.0076422 0.0018680 0.0058577 0.0010837 0.0046824 0.0020659 0.0077064 -0.0001461 0.0022442 0.0007806 0.0024066
0.0000895 0.0006650 0.0009411 0.0007280 0.0012237 0.0049267 0.0006425 0.0049909 0.0028174 0.0076530 0.0018647 0.0060874 0.0011022 0.0050547 0.0020869 0.0081350 -0.0001206 0.0024514 0.0007958 0.0025444
0.0000969 0.0007728 0.0008926 0.0009395 0.0011681 0.0051182 0.0005893 0.0052137 0.0028059 0.0077087 0.0018175 0.0062809 0.0010681 0.0052334 0.0020569 0.0082772 -0.0001299 0.0025101 0.0007414 0.0027086
0.0001606 0.0009857 0.0008330 0.0011304 0.0011051 0.0052419 0.0005462 0.0053536 0.0027632 0.0077435 0.0017625 0.0061805 0.0010281 0.0051912 0.0020103 0.0080868 -0.0002085 0.0023633 0.0006430 0.0026726
0.0001750 0.0008656 0.0008438 0.0011190 0.0011324 0.0051156 0.0005395 0.0052449 0.0026970 0.0077169 0.0016818 0.0056840 0.0009668 0.0048679 0.0019827 0.0077183 -0.0003128 0.0020370 0.0005843 0.0025234
0.0000609 0.0007949 0.0008753 0.0010653 0.0011943 0.0049450 0.0005396 0.0050687 0.0026142 0.0076955 0.0015575 0.0051496 0.0008650 0.0044710 0.0019761 0.0074038 -0.0003844 0.0017006 0.0005856 0.0024167
-0.0000040 0.0009484 0.0008595 0.0011497 0.0011812 0.0048960 0.0004956 0.0049428 0.0025042 0.0077155 0.0013879 0.0046815 0.0007736 0.0042274 0.0019726 0.0072760 -0.0004367 0.0014365 0.0005845 0.0023794
-0.0000214 0.0011135 0.0008314 0.0012487 0.0011325 0.0048608 0.0004268 0.0048060 0.0023622 0.0077653 0.0011406 0.0040870 0.0006835 0.0040301 0.0019879 0.0072868 -0.0004821 0.0011174 0.0005520 0.0024058
-0.0000011 0.0013419 0.0008029 0.0012802 0.0011026 0.0048633 0.0003659 0.0046569 0.0021176 0.0078897 0.0008938 0.0031945 0.0006377 0.0037598 0.0020159 0.0072058 -0.0005508 0.0008072 0.0005196 0.0022777
0.0001354 0.0011246 0.0008043 0.0011783 0.0010907 0.0046375 0.0003117 0.0042900 0.0019210 0.0077834 0.0007457 0.0024659 0.0006163 0.0035203 0.0020033 0.0070373 -0.0005683 0.0007191 0.0004973 0.0021630
0.0001007 0.0010470 0.0008304 0.0011170 0.0010683 0.0042683 0.0002387 0.0038252 0.0021290 0.0061241 0.0006763 0.0022086 0.0005773 0.0033756 0.0019579 0.0068640 -0.0005414 0.0006800 0.0005096 0.0021271
-0.0000217 0.0013116 0.0008387 0.0011352 0.0010251 0.0040201 0.0001536 0.0034897 0.0023547 0.0044112 0.0006076 0.0020888 0.0005218 0.0032535 0.0018688 0.0066375 -0.0005443 0.0005761 0.0005741 0.0020273
-0.0000259 0.0015213 0.0008389 0.0011742 0.0009000 0.0035981 0.0000195 0.0031083 0.0014266 0.0067341 0.0005051 0.0020497 0.0004335 0.0030288 0.0016916 0.0062058 -0.0005813 0.0004084 0.0005025 0.0019260
0.0000043 0.0015681 0.0008478 0.0010659 0.0007023 0.0028125 -0.0001051 0.0025165 0.0005514 0.0086578 0.0004161 0.0017504 0.0003745 0.0025867 0.0015526 0.0056742 -0.0006129 0.0002167 0.0004268 0.0017615
0.0001667 0.0013088 0.0008645 0.0008714 0.0005929 0.0021782 -0.0001281 0.0020507 0.0004998 0.0080930 0.0003759 0.0014131 0.0003434 0.0021927 0.0015047 0.0052819 -0.0006195 0.0000255 0.0004042 0.0016488
0.0004090 0.0011071 0.0008936 0.0008220 0.0005797 0.0018869 -0.0001251 0.0018306 0.0004721 0.0078169 0.0003427 0.0013296 0.0002959 0.0019488 0.0014406 0.0049456 -0.0006218 -0.0001449 0.0003497 0.0016369
0.0003710 0.0012156 0.0009071 0.0008153 0.0005394 0.0016565 -0.0001470 0.0016762 0.0004244 0.0076044 0.0002998 0.0013282 0.0002228 0.0017095 0.0013374 0.0045834 -0.0006305 -0.0002870 0.0003595 0.0015884
0.0001648 0.0014119 0.0008925 0.0007299 0.0004458 0.0014058 -0.0001980 0.0014999 0.0003485 0.0072923 0.0002567 0.0011885 0.0001517 0.0013168 0.0011844 0.0040351 -0.0006904 -0.0005564 0.0003594 0.0013588
0.0000952 0.0009373 0.0007894 0.0007638 0.0003065 0.0007269 -0.0002567 0.0010254 0.0002533 0.0066733 0.0002068 0.0008040 0.0000872 0.0007199 0.0010143 0.0032925 -0.0007577 -0.0009192 0.0003107 0.0010870
0.0001325 0.0001511 0.0006225 0.0010068 0.0001524 -0.0001623 -0.0003093 0.0004697 0.0001510 0.0060086 0.0001548 0.0005248 0.0000423 0.0002535 0.0008882 0.0026642 -0.0007639 -0.0011717 0.0002924 0.0009474
0.0002449 -0.0001803 0.0005562 0.0012782 0.0000387 -0.0007024 -0.0003394 0.0001944 0.0000545 0.0055710 0.0001145 0.0004509 0.0000054 0.0000043 0.0007659 0.0021011 -0.0007498 -0.0013463 0.0002252 0.0009044
0.0002830 -0.0002599 0.0005126 0.0015084 -0.0001159 -0.0012266 -0.0003816 -0.0000018 -0.0001020 0.0050575 0.0000603 0.0004077 -0.0000523 -0.0001017 0.0006703 0.0017518 -0.0007406 -0.0014561 0.0001668 0.0010012
0.0001291 0.0000043 0.0004239 0.0015776 0.0002634 0.0000722 -0.0000502 0.0010906 0.0002079 0.0060164 0.0005924 0.0017409 0.0003650 0.0013841 0.0011841 0.0035170 -0.0006121 -0.0006255 0.0003204 0.0013218
0.0000091 0.0000724 0.0004460 0.0015518 0.0009248 0.0020243 0.0003411 0.0022706 0.0006570 0.0073054 0.0010049 0.0026893 0.0006173 0.0021242 0.0015290 0.0045328 -0.0005477 -0.0002126 0.0003880 0.0014444
-0.0000152 -0.0001117 0.0005119 0.0015064 0.0010066 0.0020599 0.0003083 0.0019342 0.0006518 0.0071062 0.0007507 0.0019067 0.0004239 0.0013109 0.0014186 0.0039190 -0.0005899 -0.0006666 0.0003651 0.0013524
0.0000694 -0.0000907 0.0005060 0.0014663 0.0009918 0.0020189 0.0003167 0.0019166 0.0007346 0.0073837 0.0008834 0.0023063 0.0006259 0.0021147 0.0017168 0.0050802 -0.0004633 -0.0000524 0.0004230 0.0016832
0.0002302 -0.0000026 0.0006265 0.0008196 0.0012076 0.0031365 0.0004677 0.0031595 0.0017268 0.0074451 0.0014605 0.0041623 0.0009077 0.0037337 0.0019934 0.0066886 -0.0002927 0.0010346 0.0003871 0.0021958
0.0000718 0.0002796 0.0007980 0.0002227 0.0013246 0.0040685 0.0005118 0.0041784 0.0025665 0.0070261 0.0017730 0.0050800 0.0009722 0.0044087 0.0020150 0.0072227 -0.0002543 0.0014892 0.0003380 0.0022599
-0.0001447 0.0001296 0.0007822 0.0003571 0.0013305 0.0041114 0.0004793 0.0042058 0.0025641 0.0070212 0.0017673 0.0048470 0.0009520 0.0042962 0.0020083 0.0071983 -0.0002867 0.0014247 0.0003719 0.0020489
-0.0001389 -0.0002132 0.0007437 0.0005304 0.0013238 0.0039039 0.0004675 0.0040245 0.0025168 0.0069794 0.0017215 0.0046389 0.0009203 0.0041561 0.0020064 0.0071346 -0.0002970 0.0013095 0.0003554 0.0020053
-0.0000191 -0.0001697 0.0007502 0.0005422 0.0012894 0.0038475 0.0004684 0.0039851 0.0024498 0.0069797 0.0016073 0.0043835 0.0008631 0.0039287 0.0020118 0.0069590 -0.0003240 0.0010947 0.0003126 0.0019921
0.0001449 -0.0001173 0.0007813 0.0003680 0.0012544 0.0038871 0.0004567 0.0039776 0.0023387 0.0070323 0.0014406 0.0040196 0.0007514 0.0036483 0.0020121 0.0067493 -0.0003747 0.0008071 0.0002472 0.0020246
0.0002724 -0.0000275 0.0008517 0.0000871 0.0012149 0.0039772 0.0004092 0.0039971 0.0022130 0.0071696 0.0012963 0.0037430 0.0006339 0.0034237 0.0019411 0.0064222 -0.0004302 0.0005508 0.0001572 0.0020139
0.0001464 0.0000400 0.0008499 -0.0000273 0.0012001 0.0038692 0.0003648 0.0037946 0.0020665 0.0072037 0.0011833 0.0031484 0.0005512 0.0030244 0.0018648 0.0059968 -0.0004758 0.0002814 0.0001196 0.0018829
-0.0000613 -0.0000155 0.0008121 0.0000987 0.0012047 0.0035993 0.0003354 0.0034693 0.0019515 0.0070376 0.0010786 0.0024708 0.0004816 0.0025905 0.0018138 0.0056831 -0.0005061 0.0000179 0.0001437 0.0017419
-0.0000776 -0.0000568 0.0007866 0.0003071 0.0011722 0.0033991 0.0003016 0.0032715 0.0021543 0.0055593 0.0009213 0.0020134 0.0004053 0.0022991 0.0017484 0.0054702 -0.0005170 -0.0002142 0.0001474 0.0016800
0.0000063 0.0000288 0.0008025 0.0003568 0.0011146 0.0032926 0.0002510 0.0031458 0.0023794 0.0040004 0.0007131 0.0015165 0.0003306 0.0020774 0.0016972 0.0053516 -0.0005286 -0.0003977 0.0000806 0.0017202
0.0001199 0.0001911 0.0008683 0.0001908 0.0010447 0.0032491 0.0001839 0.0030833 0.0023205 0.0038172 0.0005515 0.0012739 0.0002456 0.0019839 0.0016414 0.0052437 -0.0005746 -0.0005742 -0.0000173 0.0017289
0.0001196 0.0002342 0.0007811 0.0002589 0.0009938 0.0030213 0.0001236 0.0028056 0.0014558 0.0061035 0.0004633 0.0009207 0.0001604 0.0016728 0.0015730 0.0048895 -0.0006352 -0.0007994 -0.0000715 0.0015975
-0.0000386 0.0001987 0.0006461 0.0005128 0.0008947 0.0024506 0.0000385 0.0022143 0.0005912 0.0078913 0.0003964 0.0004897 0.0000828 0.0011695 0.0014889 0.0043430 -0.0006837 -0.0010966 -0.0000755 0.0013707
-0.0001142 0.0000766 0.0005478 0.0011288 0.0006334 0.0014802 -0.0001596 0.0012706 0.0003218 0.0067618 0.0003048 0.0003462 -0.0000593 0.0005807 0.0012948 0.0035747 -0.0007429 -0.0014793 -0.0000809 0.0011499
-0.0000626 0.0000420 0.0004513 0.0015765 0.0003678 0.0006704 -0.0003231 0.0005763 0.0000966 0.0059322 0.0002147 0.0003235 -0.0001813 0.0001629 0.0011082 0.0029501 -0.0007788 -0.0016860 -0.0001058 0.0010886
-0.0000074 0.0002623 0.0004668 0.0014633 0.0002445 0.0005000 -0.0003675 0.0005181 0.0000269 0.0058165 0.0001537 0.0004070 -0.0002507 0.0001277 0.0010154 0.0027188 -0.0007715 -0.0016701 -0.0001828 0.0012141
0.0001154 0.0004206 0.0004594 0.0012772 0.0001789 0.0005315 -0.0003973 0.0005360 -0.0000128 0.0056980 0.0001171 0.0003053 -0.0003006 -0.0000317 0.0009243 0.0023679 -0.0008009 -0.0017680 -0.0002213 0.0011320
-0.0000162 0.0003787 0.0003981 0.0013483 0.0001486 0.0002717 -0.0004011 0.0002943 -0.0000299 0.0053434 0.0000927 -0.0000479 -0.0003183 -0.0003888 0.0008681 0.0019168 -0.0008396 -0.0019782 -0.0002138 0.0008954
-0.0001826 0.0001917 0.0003921 0.0014735 0.0001199 -0.0001559 -0.0003989 -0.0000403 -0.0000541 0.0049834 0.0000548 -0.0002916 -0.0003519 -0.0006492 0.0008283 0.0015846 -0.0008457 -0.0021252 -0.0001675 0.0007472
-0.0002075 0.0001771 0.0003904 0.0014411 0.0000429 -0.0004401 -0.0004184 -0.0002132 -0.0000944 0.0048019 0.0000197 -0.0003245 -0.0003751 -0.0007023 0.0007764 0.0014251 -0.0008460 -0.0021801 -0.0001650 0.0007078
-0.0002102 0.0003377 0.0003616 0.0014843 -0.0000793 -0.0006254 -0.0004569 -0.0002757 -0.0001375 0.0047227 -0.0000211 -0.0002708 -0.0003938 -0.0006626 0.0007179 0.0013412 -0.0008512 -0.0021840 -0.0002144 0.0007556
-0.0001516 0.0004574 0.0003228 0.0015752 -0.0002024 -0.0007033 -0.0005034 -0.0002166 -0.0001817 0.0047496 -0.0000688 -0.0001600 -0.0004343 -0.0005882 0.0006384 0.0011530 -0.0008889 -0.0022441 -0.0002763 0.0007054
-0.0001104 0.0002273 0.0002906 0.0014939 -0.0002653 -0.0009009 -0.0005157 -0.0003114 -0.0002055 0.0045371 -0.0001066 -0.0003952 -0.0004757 -0.0008224 0.0005627 0.0007409 -0.0009418 -0.0024410 -0.0003375 0.0004970
-0.0002401 -0.0000019 0.0002827 0.0013285 -0.0002813 -0.0012094 -0.0004878 -0.0005089 -0.0002055 0.0041923 -0.0001322 -0.0007842 -0.0004913 -0.0011952 0.0005036 0.0002054 -0.0009638 -0.0027094 -0.0002965 0.0002297
-0.0003852 0.0001807 0.0003177 0.0013326 -0.0002962 -0.0014345 -0.0004429 -0.0005484 -0.0002085 0.0040190 -0.0001633 -0.0009495 -0.0004924 -0.0013925 0.0004224 -0.0004411 -0.0009634 -0.0030144 -0.0002100 -0.0000126
-0.0002608 0.0004285 0.0003715 0.0014423 -0.0003057 -0.0015179 -0.0003709 -0.0004542 -0.0002183 0.0039260 -0.0001914 -0.0010441 -0.0004795 -0.0014805 0.0003932 -0.0008427 -0.0009425 -0.0031710 -0.0001631 -0.0000873
-0.0000918 0.0006918 0.0004141 0.0014849 -0.0003082 -0.0013663 -0.0003262 -0.0002859 -0.0002131 0.0039938 -0.0002033 -0.0009831 -0.0004706 -0.0014205 0.0003924 -0.0008469 -0.0009115 -0.0031173 -0.0001834 -0.0000026
0.0000111 0.0008626 0.0004115 0.0014904 -0.0003114 -0.0012520 -0.0003122 -0.0002820 -0.0001994 0.0039269 -0.0002104 -0.0011325 -0.0004794 -0.0016215 0.0003532 -0.0010736 -0.0009336 -0.0032101 -0.0002266 -0.0001094
-0.0000066 0.0006411 0.0003944 0.0014442 -0.0003109 -0.0015455 -0.0002970 -0.0005427 -0.0001978 0.0035932 -0.0002069 -0.0014440 -0.0004866 -0.0020145 0.0003206 -0.0014903 -0.0009326 -0.0033144 -0.0001350 -0.0003352
-0.0001498 0.0004600 0.0004077 0.0013371 -0.0003518 -0.0020063 -0.0003163 -0.0009222 -0.0002591 0.0031373 -0.0002015 -0.0015564 -0.0005066 -0.0023591 0.0002420 -0.0021957 -0.0009030 -0.0035147 -0.0000619 -0.0005571
-0.0001826 0.0005333 0.0004554 0.0013516 -0.0004437 -0.0023861 -0.0004143 -0.0013728 -0.0004475 0.0023907 -0.0003082 -0.0017720 -0.0006186 -0.0029872 0.0000463 -0.0037708 -0.0008674 -0.0042433 -0.0001018 -0.0009695
-0.0000795 0.0006420 0.0005515 0.0014062 -0.0004691 -0.0024056 -0.0005807 -0.0018575 -0.0007851 0.0012409 -0.0005591 -0.0023337 -0.0007150 -0.0034465 -0.0000736 -0.0047400 -0.0007592 -0.0045457 -0.0000917 -0.0010796
-0.0000451 0.0008810 0.0005467 0.0014925 -0.0003997 -0.0018884 -0.0006807 -0.0020617 -0.0010418 0.0004050 -0.0007225 -0.0028579 -0.0007181 -0.0035363 -0.0000584 -0.0046110 -0.0006953 -0.0041993 -0.0000696 -0.0009288
-0.0000559 0.0005540 0.0004539 0.0013271 -0.0003637 -0.0018406 -0.0006783 -0.0022591 -0.0010927 -0.0000245 -0.0007482 -0.0031904 -0.0007012 -0.0037674 -0.0000475 -0.0046655 -0.0006969 -0.0041047 -0.0000524 -0.0010270
-0.0002142 0.0002337 0.0004295 0.0010537 -0.0003054 -0.0020321 -0.0006198 -0.0024565 -0.0010833 -0.0003587 -0.0007505 -0.0034137 -0.0006566 -0.0038723 0.0000135 -0.0045314 -0.0006738 -0.0040817 0.0000576 -0.0010314
-0.0003143 0.0003439 0.0004320 0.0010152 -0.0002166 -0.0019070 -0.0005601 -0.0024072 -0.0010582 -0.0003789 -0.0007344 -0.0033710 -0.0006296 -0.0037511 0.0000564 -0.0042858 -0.0006218 -0.0039386 0.0001685 -0.0008491
-0.0002730 0.0004037 0.0004212 0.0010668 -0.0002723 -0.0019860 -0.0005719 -0.0023767 -0.0010626 -0.0002758 -0.0007297 -0.0031982 -0.0006210 -0.0035736 0.0000366 -0.0040872 -0.0005773 -0.0037600 0.0001444 -0.0005490
-0.0002397 0.0005979 0.0003802 0.0011779 -0.0003385 -0.0018555 -0.0005769 -0.0021997 -0.0010766 -0.0001060 -0.0007402 -0.0030114 -0.0005841 -0.0033014 0.0000403 -0.0037485 -0.0005881 -0.0036316 0.0001114 -0.0003215
-0.0001533 0.0004870 0.0003373 0.0011242 -0.0002485 -0.0015428 -0.0005260 -0.0020570 -0.0010537 -0.0001457 -0.0007550 -0.0031953 -0.0005651 -0.0033526 0.0000461 -0.0036848 -0.0006358 -0.0036773 0.0000716 -0.0003940
-0.0000616 0.0000458 0.0003249 0.0009439 -0.0001790 -0.0015791 -0.0004842 -0.0021395 -0.0010177 -0.0003347 -0.0007666 -0.0035253 -0.0005681 -0.0035700 0.0000556 -0.0037435 -0.0006536 -0.0037412 0.0000311 -0.0005023
-0.0001337 -0.0000451 0.0003280 0.0008763 -0.0001816 -0.0017228 -0.0004639 -0.0021945 -0.0009992 -0.0003731 -0.0007733 -0.0035859 -0.0005639 -0.0035471 0.0000787 -0.0036034 -0.0006418 -0.0036981 0.0000474 -0.0004342
-0.0003239 0.0002554 0.0003322 0.0009339 -0.0001959 -0.0017045 -0.0004569 -0.0021316 -0.0009942 -0.0002943 -0.0007856 -0.0035635 -0.0005562 -0.0034238 0.0001105 -0.0032964 -0.0006718 -0.0037263 0.0000664 -0.0002627
-0.0003459 0.0004513 0.0003226 0.0010815 -0.0002047 -0.0014869 -0.0004419 -0.0019065 -0.0009917 -0.0000687 -0.0007791 -0.0033996 -0.0004734 -0.0029015 0.0002418 -0.0024372 -0.0006838 -0.0034418 0.0000514 0.0000958
-0.0002762 0.0004867 0.0003007 0.0011353 -0.0001816 -0.0012960 -0.0004040 -0.0017182 -0.0009762 -0.0000143 -0.0007303 -0.0033562 -0.0003782 -0.0026244 0.0003159 -0.0020597 -0.0007149 -0.0032609 0.0000408 0.0001363
-0.0002111 0.0002126 0.0002978 0.0010204 -0.0001822 -0.0015129 -0.0003818 -0.0018320 -0.0009557 -0.0002145 -0.0006993 -0.0034877 -0.0003821 -0.0028740 0.0002692 -0.0024383 -0.0007671 -0.0034673 -0.0000214 -0.0000912
-0.0002079 0.0000189 0.0003287 0.0009670 -0.0002056 -0.0018166 -0.0003727 -0.0019806 -0.0009497 -0.0003566 -0.0007012 -0.0035196 -0.0004089 -0.0029812 0.0002475 -0.0025563 -0.0007529 -0.0034856 -0.0000809 -0.0000496
-0.0003448 0.0002620 0.0003468 0.0010306 -0.0002225 -0.0018759 -0.0003671 -0.0019564 -0.0009624 -0.0003780 -0.0007006 -0.0034082 -0.0004223 -0.0029233 0.0002226 -0.0025135 -0.0007272 -0.0033547 -0.0000392 -0.0000030
-0.0004468 0.0004738 0.0003368 0.0011170 -0.0002578 -0.0018150 -0.0003751 -0.0018583 -0.0009787 -0.0002855 -0.0007191 -0.0032339 -0.0004728 -0.0028495 0.0001519 -0.0025617 -0.0007008 -0.0032399 -0.0000720 0.0000415
-0.0004612 0.0005596 0.0003116 0.0011432 -0.0002731 -0.0016994 -0.0003719 -0.0018069 -0.0009898 -0.0003489 -0.0007469 -0.0033459 -0.0005009 -0.0030547 0.0000620 -0.0029053 -0.0007300 -0.0033639 -0.0001256 -0.0001584
-0.0003640 0.0002548 0.0002916 0.0010022 -0.0002547 -0.0018030 -0.0003439 -0.0019389 -0.0009880 -0.0006055 -0.0007766 -0.0036547 -0.0004993 -0.0033465 0.0000328 -0.0032403 -0.0007493 -0.0035124 -0.0001271 -0.0004618
-0.0001655 -0.0001401 0.0003036 0.0008693 -0.0002287 -0.0019900 -0.0003120 -0.0020700 -0.0009724 -0.0007433 -0.0008113 -0.0038096 -0.0005139 -0.0034144 0.0000452 -0.0033150 -0.0007115 -0.0035190 -0.0001641 -0.0004891
-0.0002681 0.0000357 0.0003244 0.0008808 -0.0002002 -0.0019871 -0.0002918 -0.0020319 -0.0009643 -0.0007292 -0.0008464 -0.0038139 -0.0005231 -0.0033488 0.0000454 -0.0032642 -0.0006789 -0.0034556 -0.0001495 -0.0004295
-0.0003891 0.0002656 0.0003289 0.0009505 -0.0001860 -0.0018483 -0.0002835 -0.0018986 -0.0009735 -0.0006329 -0.0008755 -0.0037130 -0.0005409 -0.0031969 0.0000287 -0.0031282 -0.0006511 -0.0033367 -0.0000629 -0.0003445
-0.0003622 0.0003457 0.0003234 0.0009953 -0.0001662 -0.0016810 -0.0002710 -0.0018029 -0.0009767 -0.0006495 -0.0008825 -0.0038245 -0.0005443 -0.0032930 0.0000047 -0.0032601 -0.0006878 -0.0034268 -0.0000750 -0.0004573
-0.0003183 0.0001093 0.0003120 0.0008616 -0.0001621 -0.0018516 -0.0002522 -0.0019766 -0.0009670 -0.0008961 -0.0009391 -0.0042738 -0.0005401 -0.0036267 0.0000110 -0.0034917 -0.0007266 -0.0036343 -0.0001117 -0.0006496
-0.0001452 -0.0003292 0.0003224 0.0007084 -0.0001468 -0.0021002 -0.0002240 -0.0021762 -0.0009480 -0.0010824 -0.0009887 -0.0045339 -0.0005517 -0.0037580 0.0000402 -0.0035180 -0.0007055 -0.0036903 -0.0001036 -0.0006947
0.0000113 -0.0004679 0.0003478 0.0006736 -0.0001143 -0.0021712 -0.0001970 -0.0022127 -0.0009324 -0.0010882 -0.0009714 -0.0044411 -0.0005635 -0.0037469 0.0000283 -0.0036655 -0.0006448 -0.0036141 -0.0000632 -0.0006392
-0.0000762 -0.0002682 0.0003671 0.0007341 -0.0001489 -0.0022649 -0.0001996 -0.0021696 -0.0009407 -0.0010193 -0.0009482 -0.0042214 -0.0005646 -0.0036118 -0.0000043 -0.0037706 -0.0004914 -0.0032243 0.0000372 -0.0002984
-0.0002741 0.0001365 0.0003833 0.0008355 -0.0001915 -0.0022815 -0.0002238 -0.0021360 -0.0009613 -0.0010683 -0.0009210 -0.0041663 -0.0005375 -0.0036047 -0.0000307 -0.0038074 -0.0004389 -0.0030726 0.0000742 -0.0003114
-0.0002666 -0.0000553 0.0003926 0.0007284 -0.0001814 -0.0024493 -0.0002251 -0.0023599 -0.0009851 -0.0013946 -0.0009171 -0.0043899 -0.0005050 -0.0038374 -0.0000158 -0.0038918 -0.0004558 -0.0032000 0.0000861 -0.0005533
-0.0001269 -0.0005223 0.0003751 0.0005098 -0.0001619 -0.0026672 -0.0001818 -0.0025717 -0.0010105 -0.0017293 -0.0009123 -0.0044993 -0.0004657 -0.0039700 0.0000183 -0.0039613 -0.0004288 -0.0033378 0.0001387 -0.0006184
0.0000590 -0.0005380 0.0003631 0.0004522 -0.0001220 -0.0025428 -0.0001534 -0.0025683 -0.0013720 -0.0027239 -0.0009155 -0.0045053 -0.0004498 -0.0039341 0.0000419 -0.0040081 -0.0003917 -0.0033753 0.0001364 -0.0005044
0.0001083 -0.0004011 0.0003623 0.0004929 -0.0000421 -0.0022380 -0.0001376 -0.0024641 -0.0015793 -0.0032095 -0.0009243 -0.0044285 -0.0004582 -0.0037733 0.0000706 -0.0038990 -0.0003395 -0.0031928 0.0001647 -0.0002777
-0.0000533 -0.0002493 0.0003533 0.0004630 0.0000436 -0.0020493 -0.0000992 -0.0024391 -0.0013673 -0.0028217 -0.0008948 -0.0044680 -0.0004408 -0.0038518 0.0000800 -0.0039670 -0.0003531 -0.0032645 0.0002432 -0.0003648
-0.0001204 -0.0004349 0.0003961 0.0004365 0.0000923 -0.0021670 -0.0000608 -0.0025614 -0.0012653 -0.0028209 -0.0008925 -0.0047981 -0.0004350 -0.0041560 0.0001236 -0.0042305 -0.0004305 -0.0036358 0.0002637 -0.0004773
-0.0000748 -0.0006392 0.0004600 0.0005451 0.0001455 -0.0022449 -0.0000202 -0.0026162 -0.0011921 -0.0027564 -0.0008758 -0.0049192 -0.0003882 -0.0041273 0.0002198 -0.0040688 -0.0002368 -0.0029417 0.0004235 -0.0000170
-0.0000037 -0.0005556 0.0004621 0.0005957 0.0002133 -0.0020362 0.0000328 -0.0025020 -0.0011493 -0.0026080 -0.0007686 -0.0044585 -0.0002982 -0.0037737 0.0002301 -0.0039543 0.0001437 -0.0017558 0.0005775 0.0004971
0.0001542 -0.0002863 0.0004916 0.0007750 0.0002157 -0.0018788 0.0000609 -0.0022777 -0.0011043 -0.0022647 -0.0006885 -0.0039819 -0.0002729 -0.0035648 0.0001794 -0.0042652 0.0002284 -0.0016531 0.0005465 0.0004841
0.0000849 -0.0001414 0.0005445 0.0008732 0.0001928 -0.0020634 0.0000698 -0.0022981 -0.0010633 -0.0022491 -0.0006776 -0.0041468 -0.0002810 -0.0037694 0.0001796 -0.0045972 0.0001844 -0.0018526 0.0005670 0.0002882
-0.0000400 -0.0004079 0.0005613 0.0007197 0.0002066 -0.0023485 0.0001082 -0.0024418 -0.0010296 -0.0024543 -0.0006587 -0.0043813 -0.0002563 -0.0039530 0.0002113 -0.0047830 0.0002143 -0.0018867 0.0006596 0.0001057
-0.0000167 -0.0005225 0.0005885 0.0006937 0.0002307 -0.0024106 0.0001591 -0.0024162 -0.0009962 -0.0024138 -0.0006338 -0.0043156 -0.0002173 -0.0038752 0.0002438 -0.0047216 0.0002547 -0.0018313 0.0006632 0.0001277
0.0000333 -0.0003524 0.0005899 0.0007660 0.0003026 -0.0020826 0.0002552 -0.0021489 -0.0009088 -0.0020830 -0.0003120 -0.0032809 0.0002971 -0.0020179 0.0010032 -0.0017090 0.0005150 -0.0003974 0.0008276 0.0010478
0.0001450 0.0003269 0.0007722 0.0002564 0.0012221 0.0010917 0.0010676 0.0009273 0.0014911 0.0000665 0.0013302 0.0017625 0.0012073 0.0016481 0.0020154 0.0026807 0.0009271 0.0019837 0.0010002 0.0021689
0.0001736 0.0005709 0.0011455 -0.0000495 0.0020909 0.0036746 0.0017385 0.0037293 0.0033915 0.0037273 0.0025894 0.0053941 0.0016561 0.0036277 0.0023821 0.0047440 0.0011298 0.0033024 0.0009709 0.0025384
0.0000209 0.0002213 0.0013525 0.0002518 0.0022308 0.0037469 0.0017411 0.0041438 0.0035376 0.0054399 0.0027262 0.0056034 0.0016751 0.0037972 0.0024274 0.0050719 0.0011637 0.0035808 0.0010087 0.0025085
-0.0000730 0.0002101 0.0014005 0.0003944 0.0022350 0.0037735 0.0017307 0.0043695 0.0035916 0.0054519 0.0026939 0.0057110 0.0016421 0.0038669 0.0024280 0.0050724 0.0012183 0.0037084 0.0010682 0.0024309
-0.0000418 0.0003498 0.0014095 0.0006084 0.0021963 0.0038689 0.0016970 0.0046266 0.0035752 0.0055088 0.0026488 0.0059204 0.0016038 0.0040594 0.0024170 0.0053901 0.0012611 0.0039725 0.0010381 0.0025583
-0.0000212 0.0005153 0.0013986 0.0007631 0.0021790 0.0040716 0.0016254 0.0049787 0.0035645 0.0055868 0.0026054 0.0061898 0.0016175 0.0044538 0.0024194 0.0059005 0.0011539 0.0039342 0.0009524 0.0026833
0.0000265 0.0004134 0.0013775 0.0007958 0.0021809 0.0041632 0.0015300 0.0050946 0.0035488 0.0056126 0.0025717 0.0060389 0.0016160 0.0045410 0.0024497 0.0061670 0.0008053 0.0031644 0.0008313 0.0024667
0.0000319 0.0000693 0.0013650 0.0007133 0.0021765 0.0041303 0.0014532 0.0050110 0.0035306 0.0056068 0.0025444 0.0057222 0.0015772 0.0044342 0.0024717 0.0063361 0.0006373 0.0028744 0.0008064 0.0023248
-0.0000580 0.0000491 0.0013591 0.0007300 0.0021487 0.0041632 0.0014022 0.0050903 0.0035028 0.0056425 0.0025044 0.0057419 0.0015421 0.0045361 0.0024771 0.0064940 0.0007204 0.0031607 0.0008904 0.0024295
-0.0001412 0.0003032 0.0013493 0.0008699 0.0021031 0.0042553 0.0013478 0.0052615 0.0034492 0.0057140 0.0024721 0.0058958 0.0015039 0.0046427 0.0024599 0.0065211 0.0007214 0.0031441 0.0009312 0.0024755
-0.0002147 0.0005063 0.0013324 0.0009900 0.0020424 0.0043514 0.0012874 0.0054096 0.0033728 0.0058112 0.0024467 0.0060553 0.0014948 0.0047501 0.0024226 0.0065371 0.0006950 0.0031476 0.0009326 0.0024545
-0.0002142 0.0003935 0.0013135 0.0009099 0.0020220 0.0043468 0.0012424 0.0053447 0.0033432 0.0058067 0.0024263 0.0057889 0.0015119 0.0047474 0.0024398 0.0066038 0.0006857 0.0031998 0.0009834 0.0023488
-0.0000068 -0.0000396 0.0013300 0.0007546 0.0020300 0.0042218 0.0012133 0.0051535 0.0033256 0.0057636 0.0023918 0.0054159 0.0014952 0.0045419 0.0024499 0.0064428 0.0006724 0.0030479 0.0010196 0.0022176
0.0001012 0.0000063 0.0013747 0.0008184 0.0020427 0.0041669 0.0012146 0.0052042 0.0032922 0.0057822 0.0023554 0.0053992 0.0014624 0.0044100 0.0024454 0.0062394 0.0006415 0.0027963 0.0010181 0.0020905
0.0001132 0.0002959 0.0013704 0.0009457 0.0020298 0.0042350 0.0011990 0.0054089 0.0032538 0.0058188 0.0023263 0.0055285 0.0014421 0.0045574 0.0024697 0.0064264 0.0006543 0.0028427 0.0010714 0.0021230
0.0000859 0.0005129 0.0013109 0.0010445 0.0019560 0.0043535 0.0011162 0.0055663 0.0031700 0.0059038 0.0022806 0.0056264 0.0014088 0.0046561 0.0024433 0.0065269 0.0006259 0.0028882 0.0010947 0.0021091
0.0000249 0.0004019 0.0012859 0.0009425 0.0019239 0.0043462 0.0010525 0.0054355 0.0031128 0.0059305 0.0022501 0.0053595 0.0014188 0.0045854 0.0024681 0.0067207 0.0005567 0.0028607 0.0011063 0.0019691
0.0001092 -0.0000705 0.0012880 0.0008111 0.0019379 0.0043377 0.0010203 0.0053209 0.0031199 0.0058851 0.0022420 0.0051335 0.0014389 0.0045742 0.0025342 0.0070608 0.0005223 0.0028965 0.0010479 0.0019937
0.0002970 -0.0003398 0.0012902 0.0008803 0.0019197 0.0044084 0.0009739 0.0053996 0.0031147 0.0058852 0.0022329 0.0052360 0.0014314 0.0047294 0.0025640 0.0073009 0.0005338 0.0029985 0.0009926 0.0021202
0.0002813 -0.0001653 0.0012793 0.0009760 0.0018727 0.0044554 0.0009012 0.0054352 0.0030561 0.0059503 0.0022033 0.0053786 0.0013959 0.0048746 0.0025579 0.0074395 0.0005662 0.0031255 0.0009891 0.0022439
0.0000968 0.0002412 0.0012280 0.0011107 0.0018099 0.0045291 0.0008229 0.0055379 0.0029826 0.0060226 0.0021736 0.0054413 0.0013567 0.0048660 0.0025080 0.0073634 0.0005348 0.0031065 0.0009885 0.0021725
-0.0000544 0.0001740 0.0012186 0.0010533 0.0017973 0.0044655 0.0007873 0.0054360 0.0029450 0.0060197 0.0021520 0.0052296 0.0013352 0.0046891 0.0024786 0.0071789 0.0004877 0.0030104 0.0010197 0.0020223
-0.0001227 -0.0000432 0.0012330 0.0009337 0.0018083 0.0043631 0.0007814 0.0053098 0.0029290 0.0060057 0.0021221 0.0050590 0.0013299 0.0045850 0.0024818 0.0071475 0.0004929 0.0029995 0.0010279 0.0020338
0.0000076 -0.0000173 0.0012066 0.0010147 0.0017775 0.0044009 0.0007558 0.0053817 0.0028895 0.0060425 0.0020809 0.0051362 0.0013068 0.0046621 0.0024843 0.0072684 0.0005122 0.0030591 0.0009561 0.0021813
0.0001177 0.0001927 0.0011748 0.0011571 0.0017220 0.0044987 0.0006949 0.0054874 0.0028266 0.0061151 0.0020132 0.0052407 0.0012335 0.0047410 0.0024915 0.0073393 0.0005266 0.0030853 0.0008930 0.0023641
0.0000255 0.0005742 0.0011196 0.0013281 0.0016469 0.0046480 0.0006268 0.0056882 0.0027582 0.0062131 0.0019824 0.0054106 0.0011926 0.0048788 0.0024830 0.0073791 0.0004712 0.0030295 0.0008879 0.0023271
-0.0001295 0.0005569 0.0010836 0.0013175 0.0016188 0.0046803 0.0005823 0.0056842 0.0027233 0.0062241 0.0019736 0.0052875 0.0011600 0.0048075 0.0024321 0.0072819 0.0004029 0.0029616 0.0009073 0.0022002
-0.0002929 0.0004590 0.0010925 0.0012368 0.0016167 0.0046020 0.0005643 0.0055324 0.0026995 0.0062067 0.0019340 0.0050261 0.0011190 0.0046057 0.0023938 0.0071513 0.0003876 0.0029061 0.0008995 0.0021888
-0.0003369 0.0006169 0.0010774 0.0013093 0.0015836 0.0045965 0.0005396 0.0055238 0.0026485 0.0062458 0.0018656 0.0049458 0.0010658 0.0044846 0.0023584 0.0070439 0.0003642 0.0027949 0.0008730 0.0022233
-0.0001713 0.0006106 0.0010472 0.0014188 0.0015345 0.0046436 0.0004888 0.0055586 0.0025727 0.0063028 0.0017350 0.0047433 0.0009476 0.0042655 0.0022948 0.0068179 0.0003198 0.0025862 0.0007975 0.0023306
-0.0001199 0.0007175 0.0010284 0.0015135 0.0014953 0.0047126 0.0004334 0.0055671 0.0024997 0.0063496 0.0016127 0.0042858 0.0008647 0.0039599 0.0022390 0.0065349 0.0002216 0.0023308 0.0007096 0.0022946
-0.0002023 0.0005757 0.0010268 0.0014006 0.0014905 0.0045990 0.0003903 0.0053161 0.0024197 0.0063450 0.0015110 0.0036884 0.0007939 0.0036132 0.0021972 0.0062799 0.0001319 0.0020675 0.0007222 0.0021292
-0.0002583 0.0003133 0.0010438 0.0012609 0.0014945 0.0044212 0.0003570 0.0050371 0.0023309 0.0063418 0.0014016 0.0033230 0.0007066 0.0033617 0.0021560 0.0060847 0.0000818 0.0017831 0.0007100 0.0020754
-0.0003491 0.0004622 0.0010445 0.0012961 0.0014644 0.0043923 0.0003060 0.0049223 0.0022401 0.0063868 0.0012990 0.0031826 0.0006595 0.0032461 0.0021208 0.0059472 0.0000593 0.0016247 0.0006736 0.0021001
-0.0003730 0.0006483 0.0010050 0.0013910 0.0014079 0.0044277 0.0002409 0.0048788 0.0021554 0.0064516 0.0012394 0.0033070 0.0006434 0.0033438 0.0020930 0.0059333 0.0000470 0.0015928 0.0006199 0.0021414
-0.0002092 0.0004759 0.0009986 0.0013629 0.0013952 0.0043786 0.0002099 0.0047371 0.0021042 0.0064167 0.0012166 0.0030736 0.0006277 0.0031203 0.0020382 0.0056140 -0.0000185 0.0013471 0.0005834 0.0019884
-0.0001189 0.0001422 0.0010474 0.0011620 0.0014072 0.0041031 0.0002021 0.0043814 0.0020534 0.0063313 0.0011731 0.0025281 0.0006005 0.0026296 0.0019721 0.0050308 -0.0000559 0.0010177 0.0005802 0.0017766
-0.0000548 0.0000082 0.0010949 0.0010629 0.0014027 0.0037551 0.0001802 0.0039827 0.0019332 0.0064625 0.0010768 0.0021991 0.0005411 0.0022960 0.0018665 0.0045447 -0.0001026 0.0006503 0.0005183 0.0016634
-0.0000176 0.0000672 0.0011335 0.0010463 0.0013472 0.0033663 0.0000863 0.0033864 0.0017441 0.0064698 0.0009104 0.0019052 0.0004369 0.0019256 0.0016967 0.0040503 -0.0001456 0.0003245 0.0005199 0.0016048
-0.0000846 0.0003122 0.0011298 0.0010227 0.0012454 0.0030502 -0.0000223 0.0029123 0.0016239 0.0063076 0.0008608 0.0020221 0.0004767 0.0019679 0.0017291 0.0041124 -0.0001685 0.0003003 0.0005700 0.0015774
-0.0000711 0.0001421 0.0011145 0.0008430 0.0012849 0.0032140 0.0000755 0.0032099 0.0018403 0.0062104 0.0011929 0.0028486 0.0006626 0.0024694 0.0019005 0.0047072 -0.0002363 0.0004635 0.0004988 0.0015689
0.0000202 -0.0003373 0.0011256 0.0006749 0.0014261 0.0036626 0.0002584 0.0040307 0.0022765 0.0060892 0.0016477 0.0040304 0.0008705 0.0033141 0.0020107 0.0054604 -0.0001003 0.0011718 0.0005026 0.0017349
0.0001128 -0.0005202 0.0011223 0.0007010 0.0015063 0.0039434 0.0003078 0.0046282 0.0024868 0.0060535 0.0018153 0.0047535 0.0009638 0.0039869 0.0020814 0.0060022 0.0000958 0.0018209 0.0005657 0.0019633
0.0001375 -0.0003713 0.0011118 0.0008081 0.0015341 0.0040844 0.0002934 0.0049327 0.0025093 0.0060693 0.0018195 0.0051395 0.0009348 0.0042657 0.0020849 0.0061040 0.0001677 0.0020005 0.0006544 0.0020119
-0.0000720 0.0001558 0.0011069 0.0009641 0.0014610 0.0041206 0.0002489 0.0051374 0.0024831 0.0061411 0.0017779 0.0053408 0.0008288 0.0038645 0.0018452 0.0049309 0.0000773 0.0014694 0.0006384 0.0012099
-0.0001736 0.0001455 0.0011335 0.0009450 0.0013381 0.0037120 0.0002185 0.0050900 0.0024532 0.0061623 0.0016892 0.0050772 0.0007149 0.0030948 0.0015704 0.0034222 0.0000253 0.0009345 0.0006734 0.0005234
-0.0000025 -0.0004049 0.0011829 0.0008762 0.0012895 0.0032093 0.0002539 0.0050146 0.0024727 0.0060963 0.0016407 0.0048576 0.0007027 0.0029332 0.0015233 0.0031746 0.0001682 0.0012006 0.0008321 0.0007470
0.0001785 -0.0006130 0.0011939 0.0009129 0.0012703 0.0031087 0.0002805 0.0050995 0.0024812 0.0060772 0.0016151 0.0049565 0.0007100 0.0030715 0.0015179 0.0033251 0.0002234 0.0013229 0.0008249 0.0009323
0.0002591 -0.0004873 0.0011626 0.0010198 0.0012224 0.0032346 0.0002471 0.0052264 0.0024518 0.0061164 0.0015833 0.0051515 0.0006861 0.0033349 0.0015361 0.0036124 0.0002034 0.0012580 0.0007726 0.0011502
0.0002104 -0.0002933 0.0011159 0.0011902 0.0011675 0.0034861 0.0001853 0.0053809 0.0024097 0.0061686 0.0015721 0.0052783 0.0006775 0.0035312 0.0015754 0.0038372 0.0000688 0.0009124 0.0006451 0.0011494
0.0000208 -0.0004355 0.0011106 0.0011697 0.0011644 0.0035602 0.0001554 0.0053304 0.0023915 0.0061639 0.0015728 0.0051591 0.0006781 0.0034329 0.0015912 0.0037692 -0.0001048 0.0004000 0.0005478 0.0008888
-0.0001025 -0.0006044 0.0011202 0.0011152 0.0011820 0.0035134 0.0001666 0.0052760 0.0023897 0.0061295 0.0015624 0.0051040 0.0006653 0.0034298 0.0016144 0.0039411 -0.0001826 0.0002023 0.0005179 0.0008355
0.0000336 -0.0005929 0.0011026 0.0011974 0.0011731 0.0036961 0.0001586 0.0053821 0.0023705 0.0061399 0.0015506 0.0052790 0.0006449 0.0036245 0.0016422 0.0042229 -0.0002089 0.0001771 0.0004376 0.0010060
0.0001714 -0.0004444 0.0010714 0.0013131 0.0011218 0.0038181 0.0001174 0.0054701 0.0023143 0.0062094 0.0015209 0.0054907 0.0005976 0.0037609 0.0016077 0.0041870 -0.0001962 0.0002118 0.0003507 0.0012639
0.0002209 -0.0002117 0.0010356 0.0014301 0.0010722 0.0038350 0.0000890 0.0055432 0.0022563 0.0062553 0.0014839 0.0054401 0.0005427 0.0036978 0.0015535 0.0040519 -0.0002811 0.0000781 0.0002484 0.0012713
0.0000974 -0.0003343 0.0010336 0.0013678 0.0010800 0.0037872 0.0000800 0.0054637 0.0022231 0.0062349 0.0014410 0.0051274 0.0005019 0.0035554 0.0015461 0.0040729 -0.0003929 -0.0000862 0.0001915 0.0011433
-0.0001196 -0.0004135 0.0010311 0.0012900 0.0010740 0.0037103 0.0000696 0.0053716 0.0021970 0.0062271 0.0013964 0.0049965 0.0004867 0.0036160 0.0015712 0.0043518 -0.0003942 0.0000338 0.0002467 0.0011775
-0.0002038 -0.0002924 0.0009953 0.0013421 0.0010424 0.0037678 0.0000494 0.0054103 0.0021613 0.0062571 0.0013639 0.0050917 0.0004603 0.0037404 0.0015486 0.0044701 -0.0003800 0.0001473 0.0002256 0.0012858
-0.0001620 -0.0001616 0.0009764 0.0014616 0.0009961 0.0038485 0.0000142 0.0054907 0.0020920 0.0063246 0.0013252 0.0051848 0.0004242 0.0037324 0.0014902 0.0042589 -0.0004381 -0.0000031 0.0000812 0.0012828
-0.0000871 -0.0002809 0.0009868 0.0014377 0.0009970 0.0037738 -0.0000039 0.0053704 0.0020211 0.0063273 0.0012736 0.0048607 0.0003740 0.0034410 0.0014491 0.0039035 -0.0005452 -0.0003319 0.0000139 0.0010848
0.0000254 -0.0006671 0.0010053 0.0013001 0.0010343 0.0036015 0.0000074 0.0051641 0.0019901 0.0062683 0.0012137 0.0044298 0.0003219 0.0031683 0.0014410 0.0037453 -0.0006007 -0.0005302 0.0000035 0.0009954
-0.0000634 -0.0005879 0.0010176 0.0012889 0.0010506 0.0035884 0.0000139 0.0051403 0.0019826 0.0062557 0.0011628 0.0043479 0.0002813 0.0031061 0.0014348 0.0036653 -0.0006680 -0.0007755 -0.0000215 0.0009704
-0.0001590 -0.0003484 0.0010051 0.0013563 0.0010380 0.0036167 -0.0000076 0.0051322 0.0019515 0.0062854 0.0010898 0.0042929 0.0002201 0.0030562 0.0014197 0.0035779 -0.0007182 -0.0009802 0.0000214 0.0009135
-0.0001076 -0.0002860 0.0010062 0.0013597 0.0010296 0.0035780 -0.0000256 0.0050244 0.0019121 0.0062709 0.0010231 0.0039321 0.0001722 0.0027156 0.0013611 0.0032695 -0.0007808 -0.0012035 0.0000051 0.0007467
-0.0000096 -0.0005869 0.0010380 0.0011705 0.0010446 0.0033021 -0.0000341 0.0047074 0.0018602 0.0061993 0.0009458 0.0033329 0.0001458 0.0022193 0.0013151 0.0029043 -0.0008526 -0.0015140 -0.0000373 0.0005519
0.0001842 -0.0010860 0.0010611 0.0009701 0.0010603 0.0029863 -0.0000441 0.0044082 0.0017951 0.0061463 0.0008374 0.0029073 0.0000986 0.0019762 0.0013180 0.0028740 -0.0008431 -0.0016164 -0.0000492 0.0005655
0.0003591 -0.0013440 0.0010642 0.0008773 0.0010542 0.0028624 -0.0000712 0.0042430 0.0017345 0.0061369 0.0007545 0.0027448 0.0000569 0.0019434 0.0013187 0.0029920 -0.0008145 -0.0015811 -0.0000797 0.0006862
0.0002683 -0.0012388 0.0010478 0.0008529 0.0010203 0.0028370 -0.0001208 0.0041418 0.0016661 0.0061825 0.0006791 0.0026940 0.0000276 0.0019239 0.0012858 0.0029703 -0.0008225 -0.0016126 -0.0000810 0.0007007
0.0000565 -0.0012634 0.0010555 0.0007095 0.0010319 0.0026562 -0.0001433 0.0038708 0.0015481 0.0063167 0.0006025 0.0022735 -0.0000167 0.0015687 0.0012014 0.0026054 -0.0008633 -0.0018530 -0.0000042 0.0004801
0.0000469 -0.0016466 0.0010978 0.0004742 0.0010507 0.0022430 -0.0001520 0.0033458 0.0014370 0.0062444 0.0004769 0.0016690 -0.0000862 0.0009434 0.0010934 0.0020251 -0.0008929 -0.0022277 0.0000798 0.0002682
0.0001721 -0.0018137 0.0011293 0.0003760 0.0010465 0.0019866 -0.0001531 0.0029895 0.0014138 0.0060200 0.0003775 0.0014928 -0.0001055 0.0006543 0.0010753 0.0018210 -0.0009189 -0.0025065 0.0000671 0.0002445
0.0003376 -0.0017386 0.0011272 0.0003824 0.0010404 0.0019577 -0.0001654 0.0028523 0.0013972 0.0059575 0.0003308 0.0015645 -0.0001363 0.0006522 0.0010572 0.0018100 -0.0009322 -0.0026013 -0.0000334 0.0003389
0.0004092 -0.0015267 0.0011108 0.0004446 0.0010132 0.0019916 -0.0001935 0.0027808 0.0013761 0.0057710 0.0002702 0.0014876 -0.0002196 0.0004116 0.0009347 0.0014192 -0.0009721 -0.0027474 -0.0000911 0.0002526
0.0002968 -0.0016488 0.0011206 0.0002973 0.0009998 0.0017521 -0.0002011 0.0024971 0.0016464 0.0041579 0.0002064 0.0011294 -0.0002838 -0.0000331 0.0008479 0.0010126 -0.0010122 -0.0029619 -0.0000304 0.0000148
0.0002139 -0.0019887 0.0011516 0.0000555 0.0010017 0.0013781 -0.0002015 0.0021032 0.0019481 0.0024155 0.0001261 0.0007829 -0.0003531 -0.0004116 0.0007477 0.0007414 -0.0009997 -0.0030824 0.0000161 -0.0001500
0.0001557 -0.0020325 0.0011703 -0.0002195 0.0008283 0.0008115 -0.0002864 0.0016274 0.0010377 0.0046055 -0.0000147 0.0005336 -0.0004394 -0.0007482 0.0006067 0.0004766 -0.0009853 -0.0031791 0.0000164 -0.0002016
0.0001934 -0.0018201 0.0011669 -0.0002581 0.0006535 0.0004307 -0.0003613 0.0013741 0.0001957 0.0069661 -0.0001034 0.0005244 -0.0004265 -0.0006025 0.0007112 0.0009619 -0.0009595 -0.0030519 0.0000088 0.0001268
0.0004114 -0.0015000 0.0011360 -0.0000176 0.0007753 0.0010411 -0.0002807 0.0017840 0.0010190 0.0047125 0.0000858 0.0010621 -0.0002053 0.0002512 0.0010819 0.0023248 -0.0009280 -0.0025033 0.0000132 0.0005299
0.0004053 -0.0014853 0.0011028 0.0000600 0.0010557 0.0022175 -0.0000697 0.0028696 0.0019493 0.0040248 0.0007506 0.0027552 0.0001553 0.0018082 0.0013833 0.0038565 -0.0007915 -0.0014523 0.0000475 0.0007573
0.0002648 -0.0015748 0.0010889 0.0000984 0.0012121 0.0029607 0.0000503 0.0037927 0.0020454 0.0057771 0.0012322 0.0041672 0.0003415 0.0030153 0.0014753 0.0048172 -0.0006290 -0.0005361 0.0001446 0.0008759
0.0001487 -0.0014606 0.0010748 0.0001491 0.0011816 0.0031204 0.0000093 0.0040487 0.0020570 0.0058525 0.0012396 0.0044838 0.0003087 0.0033696 0.0014566 0.0051726 -0.0005834 -0.0002244 0.0001829 0.0009886
0.0000098 -0.0011914 0.0010405 0.0002734 0.0011133 0.0032810 -0.0000371 0.0042312 0.0020214 0.0059408 0.0012025 0.0047301 0.0002806 0.0036036 0.0014265 0.0053702 -0.0005986 -0.0001674 0.0001485 0.0010759
-0.0000398 -0.0011420 0.0010146 0.0003319 0.0010846 0.0033703 -0.0000598 0.0042818 0.0019962 0.0059486 0.0011623 0.0046215 0.0002504 0.0035347 0.0013672 0.0052212 -0.0006699 -0.0003378 0.0000922 0.0009772
0.0001315 -0.0014670 0.0010161 0.0003049 0.0010778 0.0032699 -0.0000604 0.0042015 0.0019578 0.0059178 0.0010947 0.0043054 0.0001941 0.0033313 0.0013162 0.0049927 -0.0007347 -0.0005476 -0.0000075 0.0009204
0.0001889 -0.0014547 0.0010125 0.0003428 0.0010406 0.0031773 -0.0000724 0.0041723 0.0018879 0.0059470 0.0009520 0.0039823 0.0000839 0.0030642 0.0012878 0.0047671 -0.0007927 -0.0007981 -0.0001035 0.0009696
0.0001071 -0.0011942 0.0009843 0.0004526 0.0009997 0.0032562 -0.0000924 0.0042826 0.0018283 0.0059975 0.0008271 0.0037826 -0.0000187 0.0029311 0.0012590 0.0046531 -0.0008262 -0.0009501 -0.0001308 0.0010319
-0.0000286 -0.0008398 0.0009519 0.0006046 0.0009580 0.0034081 -0.0001187 0.0044428 0.0017686 0.0060476 0.0007525 0.0035692 -0.0000847 0.0028472 0.0012104 0.0044855 -0.0008711 -0.0010701 -0.0001024 0.0009263
-0.0002122 -0.0008113 0.0009450 0.0005664 0.0009356 0.0033089 -0.0001378 0.0043262 0.0016874 0.0060327 0.0006450 0.0030143 -0.0001443 0.0025005 0.0011610 0.0041897 -0.0009511 -0.0013641 -0.0000838 0.0007201
-0.0001443 -0.0010794 0.0009469 0.0004726 0.0009254 0.0030675 -0.0001611 0.0040824 0.0016018 0.0059903 0.0004848 0.0024567 -0.0002169 0.0021933 0.0011025 0.0039777 -0.0009622 -0.0015302 -0.0001390 0.0007364
0.0000120 -0.0010902 0.0009422 0.0005131 0.0008876 0.0029720 -0.0002009 0.0039986 0.0015284 0.0060110 0.0003608 0.0022346 -0.0002846 0.0021280 0.0010595 0.0039278 -0.0009605 -0.0016141 -0.0001979 0.0008217
0.0000773 -0.0009579 0.0009215 0.0005890 0.0008404 0.0029944 -0.0002476 0.0040354 0.0014717 0.0060763 0.0003108 0.0023529 -0.0003403 0.0022304 0.0010236 0.0039514 -0.0010000 -0.0017402 -0.0002435 0.0008168
0.0000396 -0.0009213 0.0009139 0.0005409 0.0008192 0.0029040 -0.0002913 0.0039050 0.0013598 0.0062478 0.0002553 0.0020477 -0.0004082 0.0019923 0.0009301 0.0036024 -0.0010616 -0.0019681 -0.0002451 0.0006486
-0.0002128 -0.0009065 0.0009351 0.0003818 0.0008194 0.0025909 -0.0002951 0.0035913 0.0012488 0.0063318 0.0002244 0.0016055 -0.0004320 0.0015873 0.0008395 0.0030330 -0.0011123 -0.0022720 -0.0001769 0.0003793
-0.0003179 -0.0008913 0.0009470 0.0003106 0.0007905 0.0022137 -0.0002883 0.0033343 0.0012037 0.0061830 0.0001747 0.0014612 -0.0004549 0.0013267 0.0007392 0.0025940 -0.0011104 -0.0023917 -0.0001134 0.0001770
-0.0001950 -0.0010120 0.0009405 0.0002339 0.0007095 0.0018786 -0.0003375 0.0030706 0.0011501 0.0058913 0.0000724 0.0013322 -0.0005281 0.0011320 0.0006134 0.0024060 -0.0010851 -0.0023423 -0.0001361 0.0001972
-0.0001037 -0.0009571 0.0009221 0.0001996 0.0005998 0.0016671 -0.0004390 0.0027719 0.0013377 0.0043674 -0.0000068 0.0012247 -0.0005735 0.0009904 0.0005610 0.0023386 -0.0011124 -0.0023840 -0.0002388 0.0002419
-0.0000383 -0.0010049 0.0009242 0.0000260 0.0006707 0.0017057 -0.0004167 0.0026498 0.0013955 0.0044143 0.0002749 0.0017025 -0.0004019 0.0014585 0.0007768 0.0029933 -0.0011349 -0.0022279 -0.0002714 0.0001890
0.0000057 -0.0011622 0.0009623 -0.0000682 0.0008891 0.0021159 -0.0002660 0.0029779 0.0014201 0.0057576 0.0007487 0.0027239 -0.0001249 0.0023904 0.0010613 0.0041254 -0.0009782 -0.0014071 -0.0002312 0.0004217
-0.0001116 -0.0009888 0.0009894 0.0000952 0.0010092 0.0026987 -0.0001771 0.0035374 0.0017089 0.0057522 0.0010224 0.0035947 0.0000364 0.0031792 0.0012008 0.0050676 -0.0007713 -0.0004840 -0.0001540 0.0008262
-0.0003261 -0.0005695 0.0009812 0.0002309 0.0010447 0.0031939 -0.0001722 0.0039848 0.0018272 0.0058064 0.0011335 0.0042202 0.0000969 0.0037558 0.0012718 0.0057512 -0.0007002 -0.0001060 -0.0001087 0.0011032
-0.0002893 -0.0003273 0.0009636 0.0003454 0.0010468 0.0035424 -0.0001885 0.0042455 0.0018591 0.0058329 0.0011513 0.0043631 0.0001082 0.0038963 0.0012734 0.0059288 -0.0007067 -0.0000379 -0.0001063 0.0011721
-0.0001889 -0.0004770 0.0009529 0.0002965 0.0010508 0.0036165 -0.0001865 0.0042388 0.0018759 0.0058042 0.0011442 0.0042127 0.0001178 0.0038387 0.0012690 0.0058783 -0.0006480 0.0001569 -0.0000753 0.0012295
-0.0000837 -0.0007258 0.0009560 0.0002518 0.0010543 0.0035576 -0.0001718 0.0041861 0.0018835 0.0057758 0.0011300 0.0042092 0.0001111 0.0038579 0.0012690 0.0058416 -0.0005022 0.0005135 -0.0000315 0.0014141
-0.0000662 -0.0005824 0.0009647 0.0003707 0.0010307 0.0035980 -0.0001724 0.0042940 0.0018762 0.0057985 0.0011170 0.0043556 0.0000946 0.0039712 0.0012562 0.0058623 -0.0004165 0.0007163 0.0000320 0.0015621
-0.0002674 -0.0001009 0.0009474 0.0005498 0.0009814 0.0036986 -0.0002017 0.0044606 0.0018350 0.0058665 0.0010817 0.0044865 0.0000614 0.0040809 0.0012414 0.0059040 -0.0004124 0.0007100 0.0001123 0.0016209
-0.0004034 0.0001969 0.0009175 0.0006839 0.0009558 0.0038201 -0.0002212 0.0045561 0.0017826 0.0058955 0.0010257 0.0041976 0.0000230 0.0038646 0.0011963 0.0056437 -0.0004713 0.0004908 0.0001081 0.0015085
-0.0004462 0.0001218 0.0009159 0.0006785 0.0009575 0.0037718 -0.0002176 0.0044926 0.0017410 0.0058719 0.0009761 0.0037562 0.0000007 0.0035507 0.0011598 0.0053172 -0.0005197 0.0002765 0.0000699 0.0013881
-0.0004157 0.0000580 0.0009117 0.0006918 0.0009386 0.0037058 -0.0002192 0.0044609 0.0017027 0.0058739 0.0009152 0.0035682 -0.0000344 0.0034331 0.0011446 0.0051384 -0.0004991 0.0002380 0.0000991 0.0013895
-0.0003091 0.0001643 0.0008858 0.0008165 0.0008984 0.0037679 -0.0002422 0.0045327 0.0016568 0.0059131 0.0008185 0.0034365 -0.0001024 0.0033567 0.0011062 0.0049679 -0.0004649 0.0002191 0.0001243 0.0015163
-0.0004242 0.0005329 0.0008538 0.0009947 0.0008472 0.0039015 -0.0002787 0.0046700 0.0016053 0.0059888 0.0007312 0.0034371 -0.0001708 0.0033909 0.0010565 0.0049162 -0.0004457 0.0002340 0.0000914 0.0017181
-0.0006269 0.0008947 0.0008182 0.0011198 0.0008280 0.0040367 -0.0003071 0.0047623 0.0015603 0.0060214 0.0006908 0.0032245 -0.0002027 0.0032994 0.0010039 0.0047593 -0.0004803 0.0001629 0.0001105 0.0016131
-0.0006714 0.0007747 0.0008121 0.0010781 0.0008391 0.0039900 -0.0003101 0.0046966 0.0015344 0.0059839 0.0007171 0.0030303 -0.0001885 0.0032447 0.0010297 0.0047984 -0.0005165 0.0001198 0.0001191 0.0014838
-0.0006577 0.0007247 0.0008086 0.0010753 0.0008336 0.0039694 -0.0003068 0.0046964 0.0015339 0.0059748 0.0008217 0.0034030 -0.0001212 0.0035392 0.0011174 0.0052182 -0.0005167 0.0002667 0.0000892 0.0015538
-0.0005424 0.0008164 0.0007748 0.0011783 0.0007950 0.0040588 -0.0003317 0.0048119 0.0015300 0.0060098 0.0008685 0.0037956 -0.0001176 0.0037531 0.0011160 0.0053310 -0.0005202 0.0003265 0.0000505 0.0016367
-0.0004020 0.0008623 0.0007388 0.0012842 0.0007214 0.0040518 -0.0004093 0.0046752 0.0012561 0.0062213 0.0005247 0.0032398 -0.0004796 0.0027947 0.0007265 0.0039501 -0.0006244 -0.0003808 -0.0000860 0.0013557
-0.0005603 0.0004950 0.0006384 0.0005862 0.0001071 0.0020756 -0.0009928 0.0023084 -0.0002100 0.0048333 -0.0002484 0.0013923 -0.0009969 0.0008457 0.0001769 0.0018542 -0.0007634 -0.0014385 -0.0000870 0.0009209
-0.0007455 0.0000534 0.0005139 -0.0001269 -0.0001940 0.0006658 -0.0013421 0.0002983 -0.0014681 0.0034229 -0.0005914 0.0002260 -0.0009727 0.0005633 0.0003544 0.0021938 -0.0007169 -0.0013668 0.0000755 0.0011393
-0.0007137 0.0004175 0.0005572 -0.0003558 0.0004446 0.0023705 -0.0008015 0.0018423 -0.0008059 0.0054032 0.0000814 0.0017943 -0.0004469 0.0023710 0.0009188 0.0042527 -0.0004536 -0.0001285 0.0002234 0.0016992
-0.0007414 0.0010037 0.0006655 0.0001090 0.0008174 0.0038078 -0.0004092 0.0038390 0.0006648 0.0064515 0.0008466 0.0040241 -0.0000499 0.0040447 0.0011534 0.0056601 -0.0001673 0.0011704 0.0002786 0.0021642
-0.0008337 0.0013585 0.0006610 0.0010010 0.0008524 0.0043870 -0.0003346 0.0049323 0.0016374 0.0059696 0.0011028 0.0050385 0.0000414 0.0047704 0.0011682 0.0061912 -0.0000639 0.0017681 0.0002147 0.0023717
-0.0008679 0.0012215 0.0006430 0.0010588 0.0008456 0.0044438 -0.0003492 0.0050470 0.0016485 0.0059751 0.0010902 0.0049668 0.0000220 0.0047542 0.0011569 0.0061678 -0.0000812 0.0017571 0.0001978 0.0022647
-0.0008812 0.0009781 0.0006665 0.0010563 0.0008699 0.0043713 -0.0003469 0.0049400 0.0016330 0.0059478 0.0011022 0.0047799 0.0000355 0.0047062 0.0012103 0.0061634 -0.0000674 0.0018040 0.0001815 0.0020658
-0.0008553 0.0009581 0.0006906 0.0012065 0.0008773 0.0042909 -0.0003127 0.0049010 0.0015957 0.0059309 0.0010855 0.0047585 0.0000097 0.0046458 0.0011742 0.0058534 0.0002293 0.0024562 0.0003208 0.0020896
-0.0007602 0.0014034 0.0007761 0.0012576 0.0007313 0.0034448 -0.0005462 0.0035769 0.0004065 0.0058428 0.0004785 0.0034768 -0.0005483 0.0026060 0.0004976 0.0030731 0.0004738 0.0019145 0.0003817 0.0015152
-0.0005661 0.0019114 0.0008397 0.0008457 -0.0000457 0.0009519 -0.0012410 0.0007345 -0.0015375 0.0034080 -0.0004283 0.0012546 -0.0012937 -0.0003494 -0.0004717 -0.0008989 0.0003879 0.0003478 0.0002141 0.0004374
-0.0004791 0.0012040 0.0006258 0.0006101 -0.0008055 -0.0012714 -0.0017138 -0.0012093 -0.0024401 -0.0001805 -0.0008458 -0.0002724 -0.0015253 -0.0015746 -0.0008981 -0.0028963 0.0003279 -0.0003371 0.0001483 0.0000560
-0.0004453 0.0003939 0.0004259 0.0009288 -0.0006587 -0.0011324 -0.0015900 -0.0013621 -0.0026011 -0.0012877 -0.0008485 -0.0008336 -0.0013081 -0.0012524 -0.0005483 -0.0023592 0.0002954 -0.0004555 0.0002253 0.0004093
-0.0003211 0.0004975 0.0004821 0.0006382 -0.0003392 -0.0003768 -0.0014178 -0.0010989 -0.0025750 -0.0014319 -0.0007839 -0.0009387 -0.0011762 -0.0008909 -0.0003046 -0.0017832 0.0002956 -0.0003672 0.0002862 0.0006614
-0.0003202 0.0005471 0.0004985 0.0002299 -0.0003631 -0.0005795 -0.0014200 -0.0011661 -0.0025128 -0.0013056 -0.0008195 -0.0008973 -0.0012963 -0.0011693 -0.0005586 -0.0024532 0.0003394 -0.0003346 0.0002741 0.0004947
-0.0005052 0.0004229 0.0004341 0.0006861 -0.0005294 -0.0012637 -0.0014528 -0.0014502 -0.0024560 -0.0014196 -0.0008165 -0.0011226 -0.0013136 -0.0015401 -0.0006720 -0.0028515 0.0003318 -0.0003840 0.0003230 0.0002795
