-0.0000000 -0.0000000 -0.0000000 -0.0000000 -0.0000000 -0.0000000 -0.0000000 -0.0000000 -0.0000000 -0.0000000 -0.0000000 -0.0000000 -0.0000000 -0.0000000 -0.0000000 -0.0000000 -0.0000000 -0.0000000 -0.0000000 -0.0000000
-0.0000000 -0.0000000 -0.0000000 -0.0000000 -0.0000000 -0.0000000 -0.0000000 -0.0000000 -0.0000000 -0.0000000 -0.0000000 -0.0000000 -0.0000000 -0.0000000 -0.0000000 -0.0000000 -0.0000000 -0.0000000 -0.0000000 -0.0000000
0.0050004 -0.0056264 -0.0106466 0.0030192 0.0008362 -0.0139173 0.0024636 -0.0016100 0.0017658 -0.0012754 -0.0000030 -0.0001249 0.0000085 -0.0001887 0.0000020 -0.0002599 -0.0000311 -0.0003589 0.0000715 -0.0000208
0.0154840 -0.0304902 -0.0177533 0.0148622 -0.0048753 -0.0024713 0.0009715 -0.0006359 -0.0033867 0.0018926 -0.0000222 -0.0002920 -0.0000064 -0.0003881 -0.0000051 -0.0004066 -0.0001968 -0.0009910 0.0001016 0.0003347
0.0051067 -0.0116796 -0.0095739 0.0081643 -0.0059943 0.0033535 0.0000578 -0.0000391 -0.0028935 0.0015160 -0.0000477 -0.0003477 -0.0000259 -0.0004220 -0.0000157 -0.0004004 -0.0003238 -0.0011225 -0.0000760 0.0006620
-0.0026621 -0.0013777 0.0048677 -0.0054925 -0.0017624 0.0076804 0.0012330 -0.0008054 -0.0010156 0.0004690 -0.0000311 -0.0002066 -0.0000012 -0.0002457 -0.0000082 -0.0002772 -0.0000897 -0.0003469 0.0000599 0.0003952
-0.0133232 0.0109493 0.0097186 -0.0140405 0.0019202 0.0016031 0.0000598 -0.0000403 0.0025057 -0.0016067 0.0000032 -0.0000061 0.0000377 -0.0000497 0.0000119 -0.0000848 0.0001651 0.0003081 0.0001641 -0.0004134
-0.0120047 0.0118861 0.0070079 -0.0258129 0.0041893 -0.0164981 -0.0002307 0.0001504 0.0050757 -0.0031669 0.0000152 0.0001244 0.0000476 0.0000811 0.0000186 0.0000702 0.0001754 0.0004603 0.0001853 -0.0003849
-0.0018461 0.0120062 -0.0031333 -0.0026825 -0.0010119 -0.0086103 -0.0009223 0.0006027 0.0028706 -0.0016024 0.0000181 0.0002400 0.0000503 0.0002161 0.0000163 0.0002185 0.0001518 0.0005405 0.0002262 -0.0002596
0.0004624 0.0076053 -0.0009718 -0.0043433 -0.0034728 -0.0068037 -0.0000280 0.0000185 0.0011947 -0.0004086 0.0000164 0.0003007 0.0000488 0.0002398 0.0000196 0.0001478 0.0001468 0.0004241 0.0002469 -0.0002664
-0.0053768 0.0059478 -0.0028336 -0.0041212 -0.0063857 0.0007493 0.0016696 -0.0010911 -0.0000050 0.0002170 0.0000101 0.0001389 0.0000515 0.0000022 0.0000284 -0.0002059 0.0001455 0.0000661 0.0002349 -0.0005223
-0.0063551 0.0097527 -0.0030174 0.0104427 0.0015373 0.0038781 0.0000924 -0.0000593 -0.0038438 0.0024185 0.0000058 -0.0001035 0.0000559 -0.0002571 0.0000303 -0.0004364 0.0001363 -0.0001920 0.0001894 -0.0007080
-0.0088425 0.0101756 0.0018154 0.0025723 0.0027389 -0.0002687 -0.0007934 0.0005196 -0.0062392 0.0038881 0.0000063 -0.0001859 0.0000427 -0.0003209 0.0000310 -0.0004544 0.0001266 -0.0002735 0.0001484 -0.0007509
-0.0076837 0.0137573 -0.0017128 -0.0060118 0.0004300 -0.0096981 -0.0001303 0.0000852 -0.0002736 0.0000072 0.0000063 -0.0001725 0.0000371 -0.0002998 0.0000363 -0.0003875 0.0001073 -0.0002959 0.0001402 -0.0007023
-0.0001381 0.0015281 -0.0038920 -0.0073543 -0.0030952 -0.0081381 -0.0021958 0.0014344 0.0031500 -0.0021865 0.0000036 -0.0001079 0.0000424 -0.0002412 0.0000360 -0.0002612 0.0000058 -0.0005210 0.0002161 -0.0000455
0.0120269 -0.0328201 -0.0036007 0.0024707 -0.0065339 0.0056923 -0.0027474 0.0017944 0.0051597 -0.0034706 -0.0000208 -0.0000825 0.0000176 -0.0002142 0.0000180 -0.0001716 -0.0002628 -0.0010025 -0.0000050 0.0006593
0.0036277 -0.0055222 -0.0025456 0.0088950 0.0009884 0.0065834 -0.0003701 0.0002422 0.0037156 -0.0024046 -0.0000380 -0.0000129 0.0000069 -0.0000968 0.0000039 -0.0000738 -0.0003403 -0.0008428 -0.0001386 0.0007095
-0.0010279 0.0105814 0.0011705 0.0034535 0.0008819 0.0032585 -0.0009331 0.0006086 0.0008740 -0.0003003 -0.0000079 0.0001266 0.0000518 0.0000379 0.0000263 -0.0000814 -0.0000325 -0.0000978 0.0001181 0.0002477
0.0014634 0.0040884 0.0007367 0.0051183 0.0002386 -0.0068927 0.0007632 -0.0004991 -0.0014438 0.0011866 0.0000326 0.0000633 0.0000997 -0.0000730 0.0000557 -0.0002795 0.0002181 0.0003718 -0.0001305 -0.0004125
-0.0053059 0.0024384 -0.0047686 0.0066823 0.0083601 -0.0221123 0.0019776 -0.0012920 -0.0014745 0.0009969 0.0000593 -0.0000870 0.0001241 -0.0002164 0.0000748 -0.0003846 0.0003472 0.0005952 -0.0002573 -0.0009932
-0.0144743 0.0089563 -0.0083653 0.0132724 0.0009025 -0.0060380 0.0021840 -0.0014272 0.0012744 -0.0008373 0.0000662 -0.0001447 0.0001192 -0.0002491 0.0000818 -0.0003611 0.0003570 0.0005352 0.0000129 -0.0005695
-0.0056870 -0.0051558 -0.0039785 0.0012223 -0.0023289 0.0034068 0.0016642 -0.0010877 0.0019778 -0.0013525 0.0000425 -0.0002162 0.0000813 -0.0003147 0.0000771 -0.0003344 0.0001482 -0.0002588 0.0002123 0.0005237
0.0067893 -0.0042128 0.0066582 -0.0277409 -0.0058791 0.0052323 -0.0011336 0.0007410 -0.0002877 0.0000702 -0.0000052 -0.0002918 0.0000341 -0.0003864 0.0000556 -0.0003134 -0.0001920 -0.0010992 0.0001537 0.0009206
0.0009427 0.0102110 0.0013883 -0.0080630 -0.0031446 -0.0029468 -0.0010759 0.0007050 -0.0018017 0.0012190 -0.0000231 -0.0002624 0.0000128 -0.0002835 0.0000420 -0.0002238 -0.0002211 -0.0006458 0.0000557 0.0008769
-0.0191965 0.0177346 -0.0050114 0.0024729 0.0066644 -0.0199151 -0.0002547 0.0001673 -0.0010096 0.0010027 0.0000093 -0.0000681 0.0000433 -0.0000253 0.0000588 0.0000085 0.0000857 0.0002801 0.0003435 0.0004626
-0.0165083 0.0249257 -0.0012021 0.0123031 0.0040470 0.0021966 -0.0041275 0.0026975 0.0009614 -0.0001445 0.0000425 0.0000337 0.0000757 0.0000499 0.0000745 -0.0000023 0.0002314 0.0005011 0.0004222 0.0000848
-0.0022414 0.0138175 -0.0037530 0.0185746 -0.0019700 0.0119872 -0.0024309 0.0015886 -0.0014068 0.0012058 0.0000601 -0.0001355 0.0000950 -0.0001567 0.0000826 -0.0002817 0.0002865 0.0004807 0.0000851 -0.0003082
0.0100956 -0.0102333 0.0002672 -0.0024592 -0.0014116 -0.0047793 0.0012214 -0.0007982 -0.0073371 0.0048325 0.0000795 -0.0003241 0.0001246 -0.0003332 0.0000979 -0.0003870 0.0003979 0.0006360 -0.0000568 -0.0009279
0.0079616 -0.0063218 0.0048062 -0.0134368 0.0023735 -0.0069645 0.0001846 -0.0001222 -0.0030156 0.0019496 0.0000888 -0.0004064 0.0001363 -0.0003775 0.0001092 -0.0003511 0.0004270 0.0006125 -0.0000196 -0.0006037
0.0072367 -0.0141051 0.0025003 -0.0075621 -0.0023464 0.0048151 0.0008343 -0.0005465 -0.0007653 0.0003715 0.0000655 -0.0004887 0.0001036 -0.0004305 0.0000981 -0.0003121 0.0002230 -0.0001362 0.0002369 0.0005400
0.0025874 -0.0187394 0.0057680 -0.0123668 0.0055376 0.0011036 0.0015673 -0.0010247 -0.0015065 0.0007172 0.0000154 -0.0005892 0.0000441 -0.0004792 0.0000711 -0.0002998 -0.0001493 -0.0010185 0.0003754 0.0011917
-0.0122790 0.0043980 0.0045141 -0.0112849 0.0106967 -0.0158813 0.0002845 -0.0001876 0.0029134 -0.0020868 -0.0000078 -0.0005775 0.0000345 -0.0003828 0.0000609 -0.0002147 -0.0001380 -0.0004867 0.0002028 0.0010281
-0.0044235 -0.0009742 -0.0009457 0.0024313 0.0072532 -0.0187479 -0.0003623 0.0002363 0.0052273 -0.0032964 0.0000420 -0.0003312 0.0000901 -0.0000933 0.0000859 0.0000639 0.0002258 0.0008049 -0.0000130 0.0003029
0.0043494 0.0010390 0.0021963 -0.0000656 0.0036715 -0.0063299 -0.0017568 0.0011480 0.0059882 -0.0035413 0.0001024 -0.0001455 0.0001347 0.0000421 0.0001100 0.0001066 0.0004132 0.0012477 -0.0001349 -0.0004122
0.0083789 -0.0078288 0.0071048 -0.0214522 0.0121211 -0.0262814 -0.0007108 0.0004653 0.0071945 -0.0044404 0.0001183 -0.0003116 0.0001400 -0.0001629 0.0001127 -0.0002237 0.0004235 0.0008173 -0.0000164 -0.0002341
0.0100490 -0.0183024 0.0007309 -0.0102621 0.0076863 -0.0206141 0.0015181 -0.0009922 0.0034061 -0.0023301 0.0001057 -0.0006219 0.0001271 -0.0004663 0.0001058 -0.0004842 0.0002468 -0.0001424 0.0003186 0.0006934
0.0011692 -0.0011315 0.0060450 -0.0006004 -0.0010505 0.0097548 -0.0005090 0.0003330 -0.0045589 0.0025946 0.0000646 -0.0008716 0.0000866 -0.0006963 0.0000818 -0.0006211 -0.0001307 -0.0011329 0.0003728 0.0011301
-0.0057674 -0.0028348 0.0093026 -0.0076679 -0.0015072 0.0110815 -0.0005410 0.0003547 -0.0044843 0.0025321 0.0000350 -0.0009702 0.0000527 -0.0007257 0.0000620 -0.0006387 -0.0002705 -0.0009838 0.0001376 0.0014815
-0.0009044 0.0027736 0.0055445 -0.0225545 -0.0034464 -0.0000248 0.0018944 -0.0012370 0.0009840 -0.0007843 0.0000682 -0.0008192 0.0000786 -0.0005463 0.0000796 -0.0004788 0.0000142 -0.0001825 0.0002704 0.0009845
-0.0032765 0.0097234 -0.0051735 -0.0117528 -0.0004492 -0.0105911 -0.0015971 0.0010440 0.0004897 -0.0002196 0.0001176 -0.0006228 0.0001193 -0.0003460 0.0000991 -0.0002616 0.0002079 0.0003089 0.0002427 0.0001794
-0.0148685 0.0101231 0.0023588 -0.0170070 0.0030188 -0.0309642 -0.0030502 0.0019922 0.0038580 -0.0022515 0.0001396 -0.0004765 0.0001256 -0.0001811 0.0000913 -0.0001217 0.0002312 0.0005521 0.0001563 0.0001877
-0.0062730 -0.0109365 0.0060716 -0.0126430 0.0009361 -0.0044489 0.0005165 -0.0003374 0.0051514 -0.0029937 0.0001590 -0.0004635 0.0001367 -0.0002065 0.0000977 -0.0003084 0.0002317 0.0004007 0.0001485 -0.0000425
-0.0017351 -0.0054057 0.0034939 -0.0074442 0.0039763 -0.0078693 0.0004599 -0.0003020 0.0030836 -0.0018242 0.0001763 -0.0006988 0.0001551 -0.0004939 0.0001086 -0.0007570 0.0002371 -0.0000387 0.0001632 -0.0004924
-0.0084718 0.0133561 -0.0088570 0.0098104 0.0107463 -0.0299400 0.0010055 -0.0006578 0.0018407 -0.0012878 0.0001863 -0.0009434 0.0001694 -0.0007127 0.0001172 -0.0009728 0.0002388 -0.0003007 0.0000956 -0.0007115
-0.0074007 0.0090450 -0.0086890 0.0104215 0.0078687 -0.0215529 0.0020339 -0.0013286 0.0019420 -0.0014762 0.0001989 -0.0010346 0.0001732 -0.0007497 0.0001313 -0.0009558 0.0002560 -0.0002972 0.0000856 -0.0008197
0.0014955 -0.0004421 0.0045841 -0.0206949 0.0047699 -0.0130978 0.0017151 -0.0011209 0.0010210 -0.0008933 0.0002127 -0.0010043 0.0001817 -0.0006989 0.0001382 -0.0008704 0.0002931 -0.0000659 0.0000668 -0.0009016
-0.0024501 0.0056856 -0.0048159 -0.0033352 -0.0002692 -0.0011107 0.0019925 -0.0013026 0.0026331 -0.0018891 0.0002315 -0.0008952 0.0001937 -0.0005631 0.0001550 -0.0007086 0.0003335 0.0002043 0.0000304 -0.0008186
-0.0043516 0.0182354 -0.0128511 0.0103820 -0.0033662 -0.0006496 -0.0004636 0.0003027 0.0043637 -0.0029526 0.0002553 -0.0007714 0.0002035 -0.0004134 0.0001678 -0.0005516 0.0003515 0.0003921 0.0000604 -0.0006938
-0.0038898 0.0181505 -0.0082738 0.0107568 0.0006051 0.0007527 -0.0013828 0.0009046 0.0007514 -0.0004927 0.0002758 -0.0006318 0.0001951 -0.0002779 0.0001774 -0.0004561 0.0003658 0.0004583 0.0001508 -0.0006508
-0.0058395 -0.0030606 -0.0064590 0.0144810 -0.0021990 0.0078093 0.0006927 -0.0004522 0.0028584 -0.0019842 0.0002902 -0.0007251 0.0002001 -0.0003835 0.0001826 -0.0007075 0.0003730 0.0001846 0.0002328 -0.0008659
0.0146416 -0.0472472 0.0033619 0.0025664 -0.0050713 0.0204528 -0.0013907 0.0009098 0.0019293 -0.0016830 0.0002952 -0.0010467 0.0002420 -0.0006453 0.0001856 -0.0011015 0.0003589 -0.0002259 0.0002595 -0.0012068
-0.0059820 0.0073955 0.0036875 0.0018542 -0.0014842 0.0162185 -0.0006246 0.0004089 -0.0059942 0.0033610 0.0002901 -0.0012419 0.0002559 -0.0007455 0.0001943 -0.0012136 0.0003532 -0.0003546 0.0001829 -0.0013627
-0.0003608 0.0090571 -0.0022654 0.0009174 -0.0015314 0.0052720 0.0015569 -0.0010169 -0.0037717 0.0019397 0.0002905 -0.0012708 0.0002515 -0.0007715 0.0002013 -0.0011795 0.0003547 -0.0003396 0.0000956 -0.0014158
0.0156013 -0.0273234 -0.0080155 0.0146900 -0.0072299 0.0124104 -0.0000910 0.0000585 -0.0016602 0.0006629 0.0002961 -0.0012065 0.0002484 -0.0007456 0.0002011 -0.0010920 0.0003411 -0.0003316 0.0001199 -0.0014511
0.0028075 -0.0038408 -0.0097488 0.0211162 -0.0063696 0.0054219 0.0005851 -0.0003833 -0.0044043 0.0026162 0.0003064 -0.0010890 0.0002490 -0.0006542 0.0002069 -0.0009742 0.0003431 -0.0002271 0.0000493 -0.0013157
0.0015194 0.0011920 0.0043805 0.0012153 0.0083319 -0.0220000 0.0015645 -0.0010227 0.0003744 -0.0003035 0.0003258 -0.0009260 0.0002487 -0.0004969 0.0002188 -0.0008221 0.0003441 -0.0001163 0.0000893 -0.0010488
-0.0022782 -0.0057275 0.0094131 -0.0056339 0.0090363 -0.0166437 -0.0010203 0.0006647 0.0057291 -0.0037561 0.0003398 -0.0009150 0.0002377 -0.0005488 0.0002193 -0.0010043 0.0003269 -0.0003774 0.0002418 -0.0011482
-0.0052886 -0.0032424 0.0088233 -0.0105826 0.0010142 -0.0004234 -0.0010748 0.0007018 0.0054180 -0.0037278 0.0003543 -0.0011138 0.0002333 -0.0008254 0.0002194 -0.0014101 0.0003457 -0.0007317 0.0002490 -0.0015973
0.0114825 -0.0214993 0.0093136 -0.0197780 -0.0059675 0.0003086 -0.0005499 0.0003596 0.0048632 -0.0035103 0.0003712 -0.0012447 0.0002329 -0.0009663 0.0002256 -0.0015353 0.0003709 -0.0008588 0.0002897 -0.0019373
0.0029641 -0.0039368 0.0021103 -0.0108441 -0.0126303 0.0057715 -0.0005838 0.0003817 0.0045571 -0.0033246 0.0003820 -0.0012313 0.0002370 -0.0009776 0.0002265 -0.0014775 0.0003646 -0.0009097 0.0003748 -0.0020797
-0.0084416 0.0111428 -0.0043112 0.0053689 -0.0043574 0.0035299 0.0009720 -0.0006358 -0.0017926 0.0009038 0.0003936 -0.0011344 0.0002479 -0.0009166 0.0002285 -0.0013458 0.0003507 -0.0008822 0.0004229 -0.0020067
-0.0023467 -0.0024628 -0.0017145 0.0104878 -0.0006371 0.0121112 -0.0008759 0.0005734 -0.0063632 0.0040362 0.0004084 -0.0009832 0.0002549 -0.0007839 0.0002337 -0.0011622 0.0003446 -0.0007949 0.0004407 -0.0017726
0.0040914 -0.0120598 0.0012493 0.0025495 0.0016591 0.0054916 -0.0005079 0.0003333 -0.0020930 0.0013928 0.0004197 -0.0008106 0.0002508 -0.0006191 0.0002363 -0.0009614 0.0002614 -0.0009830 0.0006602 -0.0009753
-0.0014402 0.0091075 0.0053218 -0.0135050 0.0013333 -0.0066965 0.0014728 -0.0009622 0.0013943 -0.0007855 0.0004049 -0.0007132 0.0002295 -0.0005752 0.0002329 -0.0009205 0.0000225 -0.0016644 0.0007289 -0.0001669
-0.0077799 0.0185790 0.0021199 -0.0087592 -0.0047761 0.0055610 -0.0018981 0.0012405 0.0028630 -0.0018160 0.0003896 -0.0008294 0.0002227 -0.0007341 0.0002275 -0.0011682 -0.0000515 -0.0018892 0.0006750 0.0001183
-0.0032972 0.0011394 -0.0100748 0.0027659 -0.0004961 -0.0101750 -0.0020036 0.0013087 0.0021532 -0.0013925 0.0004338 -0.0008768 0.0002668 -0.0007570 0.0002449 -0.0012593 0.0002717 -0.0008404 0.0004402 -0.0005129
0.0121954 -0.0298153 -0.0012412 0.0001091 -0.0059506 0.0084667 -0.0000097 0.0000066 0.0029529 -0.0017459 0.0004918 -0.0007299 0.0003231 -0.0006118 0.0002771 -0.0010764 0.0005673 0.0001368 0.0002205 -0.0014408
0.0111867 -0.0234785 -0.0001125 0.0086719 -0.0046404 0.0098350 -0.0006217 0.0004046 0.0024177 -0.0012972 0.0005014 -0.0006265 0.0003403 -0.0005362 0.0002838 -0.0009499 0.0005240 0.0000259 0.0008374 -0.0007490
-0.0005708 -0.0010461 -0.0066325 0.0136538 0.0081318 -0.0267907 0.0002953 -0.0001940 -0.0027748 0.0020341 0.0004616 -0.0006274 0.0003081 -0.0005583 0.0002570 -0.0008796 0.0001806 -0.0009052 0.0008757 0.0003248
-0.0005369 -0.0046121 0.0006684 0.0007130 0.0033767 -0.0145397 0.0012733 -0.0008319 -0.0036130 0.0025717 0.0004219 -0.0006116 0.0002753 -0.0005199 0.0002369 -0.0007980 0.0000027 -0.0012052 0.0005919 0.0007788
-0.0013727 0.0037398 0.0012732 0.0000358 -0.0042996 0.0046302 0.0010173 -0.0006651 -0.0024315 0.0020847 0.0004577 -0.0003253 0.0003151 -0.0001809 0.0002662 -0.0005144 0.0003094 0.0001507 0.0004216 0.0002304
-0.0023749 0.0092677 -0.0042525 0.0057980 -0.0073085 0.0112955 0.0004482 -0.0002933 0.0001715 0.0006146 0.0005162 -0.0001335 0.0003652 -0.0000270 0.0003018 -0.0004469 0.0005814 0.0009567 0.0001127 -0.0004968
0.0040053 0.0053477 0.0013951 -0.0090276 -0.0033583 0.0006837 -0.0017658 0.0011538 0.0038227 -0.0019862 0.0005153 -0.0003007 0.0003496 -0.0002746 0.0002893 -0.0007333 0.0004888 0.0001018 0.0006939 0.0001655
0.0050351 0.0039368 -0.0010678 0.0016535 -0.0009550 -0.0127293 -0.0015961 0.0010438 0.0050432 -0.0031352 0.0004600 -0.0005293 0.0002851 -0.0005183 0.0002526 -0.0009063 0.0000959 -0.0011072 0.0008537 0.0008718
-0.0006290 0.0111874 0.0016174 -0.0008394 -0.0073865 0.0075203 0.0002481 -0.0001622 0.0048634 -0.0030946 0.0004185 -0.0005916 0.0002655 -0.0005494 0.0002346 -0.0008854 -0.0000046 -0.0009911 0.0005751 0.0006181
-0.0058469 0.0208658 0.0039933 0.0025413 -0.0017616 0.0192940 -0.0029706 0.0019419 0.0009022 -0.0003010 0.0004584 -0.0003724 0.0003170 -0.0003093 0.0002541 -0.0006383 0.0003236 0.0003092 0.0003174 -0.0000080
-0.0053337 0.0106458 -0.0015748 0.0106613 0.0013260 0.0115532 -0.0014495 0.0009481 -0.0070301 0.0051309 0.0005074 -0.0001003 0.0003673 -0.0000435 0.0002743 -0.0003293 0.0005221 0.0011392 0.0000889 -0.0004198
0.0096695 -0.0151684 -0.0092190 0.0057856 -0.0053251 0.0036999 0.0021241 -0.0013876 -0.0058109 0.0045147 0.0005141 0.0000779 0.0003872 0.0001543 0.0002757 -0.0000870 0.0005839 0.0013780 0.0002677 -0.0004393
0.0038919 -0.0028771 -0.0047023 0.0050752 -0.0041039 0.0020807 0.0003631 -0.0002390 -0.0020460 0.0021042 0.0005108 0.0001220 0.0003952 0.0001552 0.0002734 -0.0002071 0.0005334 0.0011832 0.0002346 0.0000874
-0.0036857 0.0107143 -0.0095659 0.0168630 -0.0063008 0.0098525 0.0006455 -0.0004230 -0.0015221 0.0014604 0.0004941 -0.0000848 0.0003785 -0.0001339 0.0002632 -0.0006175 0.0003961 0.0004370 0.0003523 0.0003946
0.0069979 -0.0149557 -0.0013667 0.0088656 -0.0012247 0.0104379 0.0020683 -0.0013516 -0.0005063 0.0004379 0.0004633 -0.0003357 0.0003310 -0.0004039 0.0002480 -0.0008335 0.0002403 -0.0004789 0.0007284 0.0006742
0.0196172 -0.0622089 0.0140885 -0.0207181 0.0097258 -0.0127793 0.0000668 -0.0000452 0.0031385 -0.0020575 0.0004284 -0.0004792 0.0002951 -0.0005411 0.0002301 -0.0008897 0.0000798 -0.0011957 0.0007113 0.0008986
0.0020747 -0.0185575 0.0079310 -0.0189358 -0.0031749 0.0034300 -0.0010902 0.0007121 0.0028976 -0.0019056 0.0004012 -0.0005278 0.0002817 -0.0005683 0.0002108 -0.0008654 -0.0000706 -0.0013496 0.0003367 0.0006897
0.0108466 -0.0208734 0.0029599 -0.0107979 -0.0075505 0.0083982 -0.0014733 0.0009625 -0.0016761 0.0011541 0.0003829 -0.0004880 0.0002728 -0.0005136 0.0001923 -0.0007693 -0.0001978 -0.0011793 0.0000809 0.0006577
0.0135468 -0.0311894 -0.0054335 -0.0010544 -0.0044113 -0.0016083 -0.0006534 0.0004272 -0.0018435 0.0014295 0.0003757 -0.0003799 0.0002771 -0.0003636 0.0001862 -0.0006049 -0.0001411 -0.0007450 0.0001244 0.0006299
0.0035215 -0.0180291 -0.0163720 0.0103164 -0.0055779 0.0000337 0.0011124 -0.0007270 -0.0002466 0.0006426 0.0003909 -0.0001784 0.0003167 -0.0001474 0.0001959 -0.0004254 0.0000817 -0.0001544 0.0002619 0.0003334
0.0138277 -0.0325695 0.0012371 0.0014141 0.0063591 -0.0083130 -0.0005145 0.0003376 -0.0028298 0.0023358 0.0004054 -0.0002038 0.0003411 -0.0002334 0.0001987 -0.0006144 0.0002077 -0.0001382 0.0002364 -0.0001837
0.0134203 -0.0346379 0.0079907 -0.0067201 0.0046296 -0.0012196 0.0001230 -0.0000790 -0.0034831 0.0025042 0.0004013 -0.0004923 0.0003262 -0.0005420 0.0001965 -0.0009656 0.0002188 -0.0004798 0.0001762 -0.0006517
0.0054707 -0.0134784 0.0034822 -0.0063700 -0.0042563 0.0020720 0.0018241 -0.0011918 -0.0000270 0.0001021 0.0003896 -0.0006685 0.0003135 -0.0007089 0.0002013 -0.0010641 0.0002287 -0.0006452 0.0001628 -0.0009650
0.0007294 -0.0002778 0.0074489 -0.0185854 0.0022771 -0.0193963 -0.0012865 0.0008402 -0.0016970 0.0011974 0.0003803 -0.0007053 0.0003181 -0.0007438 0.0002043 -0.0010150 0.0002326 -0.0006616 0.0001568 -0.0010613
-0.0017934 0.0029355 0.0172771 -0.0443872 0.0060324 -0.0206160 -0.0016816 0.0010974 -0.0014330 0.0011068 0.0003752 -0.0006628 0.0003177 -0.0006713 0.0002020 -0.0008761 0.0002228 -0.0005714 0.0001748 -0.0010589
-0.0034308 0.0053361 0.0060169 -0.0118456 0.0005237 0.0050191 -0.0002497 0.0001637 0.0021184 -0.0010768 0.0003698 -0.0005673 0.0003207 -0.0005509 0.0002078 -0.0007177 0.0002209 -0.0004679 0.0002378 -0.0010840
-0.0029715 -0.0002642 0.0009527 -0.0007039 -0.0032547 0.0120194 -0.0008992 0.0005863 0.0004734 0.0001648 0.0003663 -0.0004404 0.0003402 -0.0004069 0.0002171 -0.0005422 0.0002234 -0.0003393 0.0002377 -0.0010039
-0.0041331 -0.0071849 -0.0076042 0.0126426 -0.0065932 0.0035963 0.0002553 -0.0001680 -0.0049728 0.0039068 0.0003664 -0.0002813 0.0003516 -0.0002173 0.0002175 -0.0003380 0.0002168 -0.0001749 0.0001208 -0.0007752
-0.0031611 -0.0032874 -0.0102034 0.0147199 -0.0009514 -0.0105755 0.0005115 -0.0003343 -0.0068642 0.0051565 0.0003644 -0.0003038 0.0003521 -0.0002601 0.0002139 -0.0004754 0.0002152 -0.0003566 0.0000708 -0.0009301
0.0014017 0.0019534 -0.0014755 -0.0046971 -0.0087310 0.0114420 0.0002320 -0.0001517 -0.0025960 0.0021523 0.0003562 -0.0005608 0.0003534 -0.0005584 0.0002189 -0.0008538 0.0002193 -0.0007870 0.0001067 -0.0014009
-0.0061976 0.0121374 -0.0006759 -0.0043436 -0.0091059 0.0126803 0.0005431 -0.0003549 0.0011462 -0.0004505 0.0003509 -0.0007501 0.0003485 -0.0007265 0.0002267 -0.0009821 0.0002309 -0.0009771 0.0000987 -0.0016543
-0.0049541 0.0178178 -0.0075167 0.0033106 0.0016608 -0.0172056 -0.0011845 0.0007749 0.0033570 -0.0019015 0.0003472 -0.0007818 0.0003455 -0.0007281 0.0002280 -0.0009238 0.0002340 -0.0009745 0.0001245 -0.0017714
-0.0002933 0.0094512 -0.0058957 0.0122361 0.0004199 -0.0067034 -0.0019204 0.0012565 0.0056080 -0.0032935 0.0003441 -0.0007144 0.0003373 -0.0006253 0.0002287 -0.0007765 0.0002283 -0.0008739 0.0002073 -0.0017991
-0.0055680 0.0047294 -0.0000306 0.0008448 -0.0006228 0.0034120 -0.0007619 0.0004977 0.0030512 -0.0014923 0.0003446 -0.0005861 0.0003353 -0.0004705 0.0002311 -0.0005897 0.0002310 -0.0007308 0.0002623 -0.0017237
-0.0136671 0.0189012 0.0058432 -0.0020214 0.0011831 0.0143858 -0.0031137 0.0020353 0.0009152 0.0000549 0.0003481 -0.0004282 0.0003494 -0.0002902 0.0002321 -0.0003773 0.0002359 -0.0005609 0.0002585 -0.0015496
-0.0116418 0.0081321 -0.0022784 0.0125413 0.0033496 0.0088150 -0.0019994 0.0013066 -0.0023118 0.0023396 0.0003500 -0.0002425 0.0003614 -0.0000796 0.0002324 -0.0001557 0.0002363 -0.0003663 0.0003008 -0.0013952
0.0033769 -0.0047149 -0.0069086 0.0007894 0.0038657 -0.0099247 0.0012963 -0.0008470 -0.0060169 0.0049535 0.0003509 -0.0000450 0.0003736 0.0001179 0.0002383 0.0000041 0.0002446 -0.0002499 0.0003129 -0.0013060
0.0027882 -0.0058596 -0.0030961 0.0016991 -0.0036957 0.0087275 0.0000502 -0.0000339 -0.0033600 0.0031769 0.0003511 -0.0000931 0.0003811 0.0000274 0.0002413 -0.0001774 0.0002553 -0.0004830 0.0002797 -0.0014530
-0.0023468 -0.0205314 -0.0045029 0.0055806 -0.0046872 0.0074403 0.0004608 -0.0003023 -0.0028697 0.0026096 0.0003466 -0.0003475 0.0003748 -0.0002424 0.0002424 -0.0004783 0.0002519 -0.0008198 0.0002140 -0.0016850
0.0137624 -0.0421695 0.0149455 -0.0269782 0.0061932 -0.0037321 0.0017031 -0.0011130 -0.0044896 0.0035637 0.0003418 -0.0004630 0.0003585 -0.0003172 0.0002440 -0.0005285 0.0002591 -0.0009261 0.0002023 -0.0018183
0.0293893 -0.0709133 0.0136787 -0.0196714 0.0058015 -0.0009117 -0.0002642 0.0001712 0.0023076 -0.0008457 0.0003374 -0.0004407 0.0003466 -0.0002693 0.0002418 -0.0004455 0.0002688 -0.0008882 0.0002965 -0.0018776
0.0136148 -0.0305407 0.0015382 0.0027070 -0.0033189 0.0007074 -0.0006173 0.0004032 0.0058777 -0.0030912 0.0003348 -0.0003476 0.0003455 -0.0001646 0.0002378 -0.0002965 0.0002662 -0.0007495 0.0003410 -0.0017689
0.0085204 -0.0085593 0.0061770 -0.0164185 -0.0064993 0.0013562 -0.0013521 0.0008838 0.0053503 -0.0026164 0.0003376 -0.0002155 0.0003415 -0.0000298 0.0002319 -0.0001340 0.0002698 -0.0005691 0.0003969 -0.0016325
0.0097821 -0.0085722 -0.0101842 0.0009175 -0.0068024 0.0062440 -0.0016645 0.0010881 0.0024537 -0.0005784 0.0003370 -0.0000494 0.0003341 0.0001305 0.0002321 0.0000566 0.0002829 -0.0003678 0.0005017 -0.0014934
0.0059238 -0.0096609 -0.0180721 0.0197309 -0.0063609 0.0096664 0.0005339 -0.0003488 -0.0046484 0.0042044 0.0003355 0.0001238 0.0003408 0.0003216 0.0002346 0.0002783 0.0002887 -0.0001620 0.0005369 -0.0012484
0.0027401 -0.0086242 0.0006083 0.0066510 0.0022267 0.0076675 -0.0006444 0.0004227 -0.0066877 0.0056779 0.0003372 0.0002380 0.0003464 0.0004371 0.0002351 0.0003094 0.0002901 -0.0001539 0.0005167 -0.0011093
-0.0012891 0.0068710 0.0013109 0.0083518 0.0089188 -0.0079459 -0.0007002 0.0004589 -0.0043096 0.0040025 0.0003316 0.0001005 0.0003344 0.0002968 0.0002339 0.0000546 0.0002941 -0.0004029 0.0004996 -0.0012248
-0.0002904 0.0120353 -0.0064894 0.0102816 0.0041077 -0.0107055 0.0013363 -0.0008728 -0.0013036 0.0017667 0.0003225 -0.0001526 0.0003257 0.0000755 0.0002384 -0.0001500 0.0003014 -0.0006092 0.0005286 -0.0013464
-0.0012133 0.0099287 -0.0025373 -0.0064187 -0.0100601 0.0081730 -0.0017934 0.0011722 0.0004483 0.0005281 0.0003176 -0.0002652 0.0003270 0.0000033 0.0002439 -0.0001652 0.0003020 -0.0006529 0.0005589 -0.0013298
-0.0016463 0.0000026 0.0006114 -0.0070126 -0.0081372 -0.0025612 -0.0032164 0.0021012 -0.0004001 0.0010841 0.0003133 -0.0002696 0.0003129 0.0000461 0.0002375 -0.0000804 0.0002962 -0.0005678 0.0005642 -0.0012258
0.0055174 -0.0266253 0.0078413 -0.0109156 -0.0005119 0.0024648 -0.0008778 0.0005739 0.0019220 -0.0003697 0.0003068 -0.0001943 0.0003054 0.0001400 0.0002343 0.0000530 0.0002973 -0.0004201 0.0006607 -0.0011264
-0.0002357 -0.0029101 0.0102685 -0.0231280 0.0001653 0.0034274 -0.0003791 0.0002462 0.0032430 -0.0011382 0.0003039 -0.0000931 0.0003119 0.0002599 0.0002371 0.0002032 0.0002935 -0.0002508 0.0007189 -0.0009531
-0.0073316 0.0142894 -0.0081608 -0.0002435 -0.0007444 0.0020324 0.0004120 -0.0002700 -0.0031794 0.0031724 0.0003018 0.0000255 0.0003140 0.0004170 0.0002344 0.0003756 0.0002908 -0.0000633 0.0006772 -0.0006835
-0.0164574 0.0067261 -0.0038101 -0.0038425 0.0036835 -0.0082797 -0.0013977 0.0009136 -0.0060162 0.0051828 0.0003007 0.0001531 0.0003177 0.0005436 0.0002318 0.0004571 0.0002957 0.0000178 0.0006717 -0.0005526
-0.0138815 0.0071509 -0.0020138 0.0016115 0.0010505 -0.0096752 -0.0000763 0.0000498 -0.0039964 0.0037839 0.0002973 0.0000357 0.0003150 0.0003942 0.0002322 0.0002148 0.0003001 -0.0001985 0.0006979 -0.0006928
-0.0120118 0.0215588 -0.0017823 0.0056334 -0.0017263 -0.0053816 0.0028923 -0.0018904 -0.0038965 0.0034318 0.0002916 -0.0002729 0.0002988 0.0001020 0.0002319 -0.0000929 0.0003033 -0.0004787 0.0006702 -0.0008438
0.0015907 0.0140629 0.0013689 -0.0069972 0.0088891 -0.0394536 0.0003286 -0.0002142 -0.0057736 0.0045182 0.0002858 -0.0004399 0.0002835 -0.0000223 0.0002318 -0.0001787 0.0002981 -0.0005678 0.0006341 -0.0008636
0.0060615 0.0062744 0.0074816 -0.0156015 -0.0026551 0.0025274 -0.0007602 0.0004984 -0.0032521 0.0028518 0.0002815 -0.0004897 0.0002641 -0.0000036 0.0002345 -0.0001297 0.0002836 -0.0005557 0.0006503 -0.0008510
0.0056292 -0.0070796 0.0100279 -0.0175912 -0.0032715 0.0086291 0.0004204 -0.0002746 0.0018247 -0.0004505 0.0002783 -0.0004775 0.0002626 0.0000454 0.0002348 -0.0000119 0.0002121 -0.0006589 0.0007694 -0.0003477
0.0059906 -0.0153235 0.0005425 0.0102624 0.0016551 0.0021114 -0.0022496 0.0014707 0.0011238 -0.0000141 0.0002568 -0.0004689 0.0002490 0.0000601 0.0002253 0.0000883 0.0000248 -0.0010135 0.0007247 0.0004636
-0.0001723 -0.0101845 -0.0045989 0.0182484 -0.0010114 0.0099927 -0.0012308 0.0008047 0.0015308 -0.0002655 0.0002316 -0.0004432 0.0002261 0.0001502 0.0002090 0.0002087 -0.0001076 -0.0010253 0.0006130 0.0011210
0.0067333 -0.0161343 -0.0079810 0.0133864 -0.0058175 0.0091059 0.0019491 -0.0012736 0.0028066 -0.0008891 0.0002422 -0.0002946 0.0002553 0.0003224 0.0002078 0.0003104 0.0000397 -0.0004662 0.0006539 0.0009500
0.0076871 -0.0118855 -0.0033362 0.0037888 0.0024049 -0.0096400 0.0011087 -0.0007256 0.0003095 0.0007587 0.0002613 -0.0003541 0.0002763 0.0002166 0.0002153 0.0000984 0.0002145 -0.0002791 0.0006355 0.0001865
-0.0003687 0.0039538 -0.0039996 0.0026090 0.0056192 -0.0196720 0.0019624 -0.0012830 -0.0039788 0.0032845 0.0002620 -0.0006658 0.0002643 -0.0001096 0.0002150 -0.0002375 0.0002356 -0.0005042 0.0005161 -0.0001413
0.0008197 -0.0052785 0.0046620 0.0026350 0.0026074 0.0014674 0.0028777 -0.0018803 -0.0070946 0.0051672 0.0002611 -0.0008596 0.0002486 -0.0002872 0.0002089 -0.0003726 0.0002337 -0.0005932 0.0004378 -0.0003263
0.0004076 -0.0004480 0.0128292 -0.0095130 0.0083638 -0.0076394 0.0003842 -0.0002526 0.0009506 -0.0001193 0.0002596 -0.0009112 0.0002289 -0.0003227 0.0001975 -0.0003941 0.0002439 -0.0005478 0.0004604 -0.0004590
-0.0041171 0.0120531 0.0050540 -0.0041460 0.0112173 -0.0239279 -0.0006964 0.0004544 0.0051148 -0.0028214 0.0002630 -0.0008795 0.0002185 -0.0002660 0.0001944 -0.0003018 0.0002617 -0.0003809 0.0004999 -0.0004029
0.0002912 0.0132152 -0.0046356 -0.0010513 0.0026835 -0.0184811 -0.0016455 0.0010751 0.0031736 -0.0014772 0.0002723 -0.0007966 0.0002177 -0.0001658 0.0001915 -0.0001798 0.0002854 -0.0001880 0.0005603 -0.0003101
0.0032100 0.0035728 -0.0079485 0.0107245 -0.0013183 -0.0117924 -0.0022077 0.0014426 -0.0011180 0.0014194 0.0002790 -0.0006706 0.0002142 -0.0000237 0.0001782 -0.0000700 0.0003047 0.0000124 0.0006248 -0.0002493
0.0053400 -0.0233543 -0.0042496 0.0107169 -0.0038645 0.0013068 -0.0000061 0.0000041 -0.0029580 0.0027148 0.0002887 -0.0005176 0.0002221 0.0001305 0.0001716 0.0000154 0.0003127 0.0001785 0.0006403 -0.0001589
-0.0125881 0.0131135 0.0005682 0.0065818 0.0009648 0.0135984 -0.0009911 0.0006492 -0.0002496 0.0008248 0.0002986 -0.0006131 0.0002339 -0.0000018 0.0001711 -0.0002130 0.0003236 0.0000297 0.0006208 -0.0002959
-0.0166760 0.0164200 0.0004487 0.0040287 0.0021191 0.0093642 -0.0008409 0.0005508 -0.0043999 0.0032155 0.0002974 -0.0009485 0.0002325 -0.0003452 0.0001629 -0.0005621 0.0003316 -0.0002616 0.0005951 -0.0005848
-0.0031742 0.0122155 -0.0022602 -0.0037939 -0.0030471 0.0018876 0.0012156 -0.0007939 -0.0097677 0.0065388 0.0002927 -0.0011626 0.0002229 -0.0005233 0.0001617 -0.0006799 0.0003365 -0.0003612 0.0005381 -0.0006771
-0.0031559 0.0174364 -0.0107225 0.0134055 -0.0057861 0.0115948 -0.0006148 0.0004010 -0.0065373 0.0043996 0.0002887 -0.0012366 0.0002159 -0.0005797 0.0001864 -0.0006025 0.0003568 -0.0003003 0.0005675 -0.0005027
-0.0108884 0.0137814 -0.0121219 0.0241234 -0.0038920 0.0039359 -0.0004454 0.0002904 -0.0006385 0.0006161 0.0002835 -0.0012432 0.0002102 -0.0005268 0.0002122 -0.0004059 0.0003703 -0.0001627 0.0005696 -0.0002439
-0.0113237 0.0131476 0.0003191 0.0135900 0.0004615 0.0049485 0.0005949 -0.0003886 0.0010118 -0.0003500 0.0002730 -0.0012107 0.0002049 -0.0003941 0.0002148 -0.0002443 0.0003575 -0.0000528 0.0005643 -0.0001104
-0.0088885 0.0111822 0.0087647 -0.0057137 0.0038637 -0.0028569 -0.0002904 0.0001882 0.0054305 -0.0031296 0.0002617 -0.0011379 0.0001951 -0.0002773 0.0002121 -0.0000884 0.0003346 0.0000416 0.0005822 -0.0000143
-0.0095325 0.0060138 0.0100274 -0.0201327 0.0039515 -0.0095015 -0.0007630 0.0004978 0.0069575 -0.0039769 0.0002594 -0.0010093 0.0001907 -0.0001715 0.0002131 0.0000330 0.0003159 0.0001109 0.0005622 0.0000677
-0.0001318 -0.0027654 0.0073165 -0.0178374 0.0002713 0.0006978 -0.0009351 0.0006111 0.0023075 -0.0009773 0.0002568 -0.0011131 0.0001909 -0.0003212 0.0002098 -0.0001619 0.0003050 -0.0000819 0.0005986 -0.0000691
0.0108621 -0.0138356 -0.0021585 -0.0023634 -0.0008625 -0.0115339 0.0009461 -0.0006173 0.0004182 0.0000193 0.0002489 -0.0014459 0.0001785 -0.0006611 0.0002009 -0.0004731 0.0002939 -0.0003739 0.0006197 -0.0003363
0.0158690 -0.0289282 -0.0060740 0.0075910 -0.0070629 0.0007004 0.0027221 -0.0017782 -0.0040208 0.0028126 0.0002461 -0.0016432 0.0001724 -0.0008417 0.0001976 -0.0005639 0.0002893 -0.0004527 0.0005741 -0.0004152
0.0075813 -0.0148078 0.0013404 0.0041517 0.0026235 0.0011428 0.0002772 -0.0001800 -0.0044210 0.0031009 0.0002471 -0.0016713 0.0001731 -0.0008622 0.0002020 -0.0005179 0.0002901 -0.0003941 0.0005177 -0.0003307
0.0054078 -0.0053743 0.0027448 0.0016540 0.0142291 -0.0261299 0.0003459 -0.0002250 0.0016932 -0.0008046 0.0002472 -0.0016011 0.0001587 -0.0007662 0.0002032 -0.0003855 0.0002959 -0.0002617 0.0004965 -0.0002068
0.0015744 0.0022864 -0.0048093 0.0018844 0.0106624 -0.0261722 0.0019887 -0.0012994 0.0027675 -0.0013882 0.0002517 -0.0014844 0.0001532 -0.0006490 0.0002079 -0.0002419 0.0003031 -0.0001157 0.0004894 -0.0000731
-0.0054988 0.0130131 -0.0184934 0.0010437 0.0024407 -0.0054904 -0.0030180 0.0019713 -0.0015186 0.0015482 0.0002585 -0.0013344 0.0001641 -0.0005085 0.0002084 -0.0000642 0.0002976 0.0000738 0.0004754 0.0001249
-0.0048473 0.0079110 -0.0091403 -0.0067525 -0.0021509 0.0059482 -0.0033645 0.0021974 -0.0013401 0.0015818 0.0002646 -0.0011817 0.0001634 -0.0003915 0.0002010 -0.0000198 0.0002905 0.0001409 0.0004849 0.0002332
-0.0021002 -0.0036895 0.0005096 -0.0019591 0.0023909 0.0065043 -0.0003891 0.0002541 0.0025411 -0.0010509 0.0002706 -0.0013024 0.0001591 -0.0005363 0.0002012 -0.0002636 0.0003251 0.0001192 0.0004205 -0.0000112
-0.0091365 0.0078291 0.0003410 0.0037204 0.0058610 0.0008080 -0.0008454 0.0005507 0.0056132 -0.0033069 0.0002799 -0.0015789 0.0001727 -0.0007702 0.0002107 -0.0004861 0.0004002 0.0002556 0.0001830 -0.0003722
0.0001319 -0.0022151 -0.0031318 0.0058957 -0.0048085 0.0091654 0.0002650 -0.0001742 0.0043224 -0.0025344 0.0002933 -0.0016785 0.0001967 -0.0008403 0.0002241 -0.0004869 0.0004881 0.0004994 0.0001046 -0.0006669
0.0091845 -0.0221583 -0.0026881 0.0071002 -0.0102323 0.0098080 0.0002766 -0.0001811 0.0012495 -0.0004769 0.0003023 -0.0016594 0.0002061 -0.0007901 0.0002328 -0.0004079 0.0004607 0.0005245 0.0001988 -0.0001166
0.0058730 -0.0157112 0.0012431 -0.0034659 -0.0051204 0.0075178 0.0002823 -0.0001842 -0.0018138 0.0015358 0.0002842 -0.0016356 0.0001905 -0.0007446 0.0002245 -0.0003693 0.0003127 0.0001985 0.0004651 0.0007111
-0.0009890 0.0021487 -0.0064811 -0.0003205 -0.0065748 0.0103125 0.0007496 -0.0004895 -0.0046810 0.0034140 0.0002632 -0.0016019 0.0001771 -0.0007013 0.0002122 -0.0003283 0.0002362 0.0000237 0.0006086 0.0008528
0.0022050 0.0051509 -0.0015092 -0.0046587 0.0033460 -0.0113586 -0.0011639 0.0007617 -0.0040812 0.0031014 0.0002605 -0.0014800 0.0001742 -0.0005690 0.0001938 -0.0002517 0.0002203 0.0001714 0.0004713 0.0008499
0.0116186 -0.0198169 0.0028435 -0.0117754 0.0055058 -0.0080756 -0.0006947 0.0004556 -0.0016807 0.0015614 0.0002635 -0.0014215 0.0001563 -0.0005474 0.0001782 -0.0003715 0.0002381 0.0001897 0.0004266 0.0006093
0.0135416 -0.0337905 -0.0020139 0.0000598 -0.0018228 0.0066437 0.0007989 -0.0005216 0.0013451 -0.0006219 0.0002622 -0.0016483 0.0001381 -0.0008280 0.0001698 -0.0007866 0.0002657 -0.0000796 0.0004133 0.0001487
0.0023488 -0.0105306 0.0038052 -0.0060307 0.0040505 -0.0038037 -0.0026436 0.0017274 0.0008126 -0.0005623 0.0002558 -0.0019549 0.0001245 -0.0011384 0.0001559 -0.0011369 0.0002615 -0.0003075 0.0003740 -0.0001298
-0.0056819 -0.0044787 -0.0026042 0.0046662 0.0013796 -0.0035602 -0.0027881 0.0018213 0.0006454 -0.0005651 0.0002618 -0.0020577 0.0001177 -0.0012112 0.0001454 -0.0012078 0.0002852 -0.0001775 0.0002896 -0.0002109
-0.0065734 0.0020196 -0.0067992 0.0107043 -0.0050679 0.0061646 0.0001327 -0.0000862 0.0035536 -0.0024929 0.0002665 -0.0020104 0.0001181 -0.0011687 0.0001373 -0.0011533 0.0003136 0.0000371 0.0002652 -0.0002742
-0.0099180 0.0121882 -0.0010898 0.0040485 -0.0018670 0.0045378 -0.0002255 0.0001468 0.0016778 -0.0012647 0.0002646 -0.0018920 0.0001192 -0.0010904 0.0001296 -0.0010660 0.0003105 0.0001341 0.0002696 -0.0002239
-0.0069873 0.0100977 0.0004035 -0.0002668 -0.0047453 0.0060851 -0.0000290 0.0000191 -0.0002666 0.0000400 0.0002658 -0.0017568 0.0001200 -0.0009931 0.0001210 -0.0009478 0.0002868 0.0002276 0.0001774 -0.0000355
-0.0118634 0.0012138 0.0035422 -0.0212622 0.0026390 -0.0078823 0.0009605 -0.0006271 -0.0033445 0.0021224 0.0002680 -0.0015870 0.0001124 -0.0008638 0.0001159 -0.0008411 0.0002636 0.0002988 0.0001530 0.0000493
-0.0050917 -0.0132459 -0.0071205 -0.0000548 0.0041071 -0.0141532 0.0013033 -0.0008519 -0.0072233 0.0045598 0.0002658 -0.0016300 0.0000933 -0.0009660 0.0001062 -0.0010668 0.0002429 0.0000615 0.0001705 -0.0000829
0.0052265 -0.0212114 -0.0090908 0.0121229 -0.0089248 0.0135811 0.0009876 -0.0006456 -0.0001535 -0.0003874 0.0002555 -0.0019433 0.0000747 -0.0013314 0.0000903 -0.0014976 0.0001797 -0.0004704 0.0001337 -0.0002045
-0.0033123 0.0090282 -0.0071702 -0.0000065 -0.0043358 0.0065674 -0.0014199 0.0009284 -0.0000950 -0.0006844 0.0002325 -0.0021847 0.0000485 -0.0016023 0.0000764 -0.0017024 -0.0000054 -0.0012437 0.0003468 0.0005839
-0.0055710 0.0205339 -0.0083847 0.0110383 0.0056525 -0.0120001 -0.0015573 0.0010191 -0.0028209 0.0009999 0.0001932 -0.0022929 -0.0000084 -0.0017120 0.0000637 -0.0017180 -0.0002271 -0.0018747 0.0004115 0.0015114
-0.0038296 0.0142811 -0.0049979 0.0168094 0.0012274 0.0012858 -0.0001048 0.0000687 0.0000596 -0.0008287 0.0001686 -0.0022683 -0.0000263 -0.0016820 0.0000492 -0.0016448 -0.0002688 -0.0018079 0.0003084 0.0018383
-0.0031859 0.0121270 0.0043739 0.0034311 0.0050426 0.0003667 -0.0023357 0.0015267 0.0020609 -0.0019595 0.0001829 -0.0020858 0.0000008 -0.0014994 0.0000476 -0.0014796 -0.0001079 -0.0012264 0.0003688 0.0015724
-0.0027388 0.0050017 0.0034707 -0.0013871 0.0023442 0.0034311 -0.0011251 0.0007357 0.0034790 -0.0027029 0.0002043 -0.0018507 0.0000217 -0.0012807 0.0000455 -0.0012543 0.0000526 -0.0005994 0.0003821 0.0009906
0.0041099 -0.0090584 -0.0120578 0.0138774 -0.0024910 0.0026922 0.0007034 -0.0004590 -0.0020396 0.0010655 0.0002110 -0.0016313 0.0000394 -0.0010926 0.0000460 -0.0010857 0.0001119 -0.0002645 0.0003924 0.0008483
0.0018263 0.0014463 -0.0088839 0.0140294 0.0024817 -0.0092908 -0.0001875 0.0001212 -0.0052790 0.0031132 0.0002074 -0.0016673 0.0000459 -0.0011778 0.0000452 -0.0012734 0.0001306 -0.0003771 0.0003648 0.0006884
0.0001271 0.0018609 -0.0032546 0.0040441 -0.0058723 0.0013780 -0.0007504 0.0004893 -0.0023087 0.0008799 0.0001962 -0.0019474 0.0000416 -0.0014932 0.0000341 -0.0016519 0.0001314 -0.0006967 0.0002268 0.0005311
-0.0034147 -0.0051076 -0.0052002 0.0073752 -0.0032944 0.0025809 0.0009756 -0.0006377 -0.0045092 0.0021604 0.0001846 -0.0021071 0.0000337 -0.0016564 0.0000290 -0.0017815 0.0001317 -0.0008209 0.0001799 0.0003859
-0.0058152 0.0020176 -0.0011160 0.0030962 0.0024006 -0.0033640 0.0021506 -0.0014061 -0.0029573 0.0011610 0.0001762 -0.0021015 0.0000181 -0.0016422 0.0000284 -0.0017183 0.0001359 -0.0007863 0.0002216 0.0002951
-0.0020717 0.0037467 0.0009440 -0.0011952 0.0006916 0.0003908 0.0013763 -0.0008999 -0.0010357 0.0000036 0.0001732 -0.0020104 0.0000088 -0.0015342 0.0000273 -0.0015751 0.0001511 -0.0006295 0.0002008 0.0003195
-0.0015458 0.0144236 -0.0011719 -0.0047509 -0.0016025 -0.0092951 -0.0010955 0.0007160 0.0006928 -0.0009914 0.0001726 -0.0018653 0.0000162 -0.0013926 0.0000257 -0.0014007 0.0001754 -0.0003927 0.0001876 0.0002445
-0.0034286 0.0172013 0.0055175 -0.0150734 -0.0045356 0.0010278 -0.0018853 0.0012334 0.0016452 -0.0014616 0.0001773 -0.0016897 0.0000166 -0.0012075 0.0000269 -0.0011888 0.0002081 -0.0000147 0.0000914 0.0002475
-0.0059433 0.0045007 0.0117461 -0.0314039 -0.0040694 0.0097418 0.0007857 -0.0005132 -0.0002515 -0.0000120 0.0001908 -0.0014685 0.0000262 -0.0009810 0.0000284 -0.0009560 0.0002766 0.0005184 -0.0001297 0.0001881
-0.0055111 -0.0016075 0.0048079 -0.0069924 0.0044666 0.0033354 -0.0019475 0.0012726 -0.0008377 0.0004176 0.0002037 -0.0014288 0.0000403 -0.0010069 0.0000236 -0.0010710 0.0003738 0.0006735 -0.0001929 -0.0002661
-0.0074512 0.0113754 -0.0018809 0.0079952 0.0061067 -0.0060812 -0.0023965 0.0015659 0.0008226 -0.0008896 0.0002004 -0.0016409 0.0000343 -0.0013016 -0.0000009 -0.0014278 0.0003024 0.0001748 0.0001528 0.0001686
0.0009860 0.0042038 -0.0020939 -0.0005200 -0.0039866 -0.0099676 0.0009261 -0.0006049 0.0033595 -0.0028156 0.0001591 -0.0018895 0.0000005 -0.0015870 -0.0000238 -0.0015583 0.0000463 -0.0008653 0.0004249 0.0012127
0.0029742 -0.0013599 -0.0005916 -0.0013778 0.0042550 -0.0185154 -0.0003317 0.0002155 0.0013022 -0.0016097 0.0000976 -0.0020417 -0.0000355 -0.0017332 -0.0000448 -0.0015546 -0.0002215 -0.0014879 0.0003040 0.0020278
0.0033950 -0.0070871 -0.0099814 0.0068640 0.0036145 -0.0138029 -0.0001243 0.0000808 -0.0057729 0.0031375 0.0000790 -0.0019619 -0.0000190 -0.0015776 -0.0000509 -0.0014180 -0.0000453 -0.0006321 0.0000636 0.0016398
0.0132049 -0.0421020 -0.0014179 0.0012694 0.0067356 -0.0095300 0.0012326 -0.0008048 -0.0034899 0.0019400 0.0001237 -0.0016636 0.0000308 -0.0012385 -0.0000180 -0.0010860 0.0003325 0.0005310 -0.0001216 0.0000846
-0.0052059 0.0009152 -0.0017528 0.0096687 0.0111019 -0.0144244 0.0015115 -0.0009885 0.0004767 -0.0003902 0.0001582 -0.0013751 0.0000577 -0.0009815 -0.0000009 -0.0007805 0.0003448 0.0008368 -0.0001689 0.0004802
-0.0097407 0.0182484 -0.0086301 0.0129225 0.0041278 -0.0081996 0.0017635 -0.0011530 0.0026677 -0.0017758 0.0001294 -0.0012708 0.0000207 -0.0009006 -0.0000245 -0.0006652 0.0001059 0.0001333 0.0000399 0.0020056
-0.0007109 0.0172136 -0.0016399 -0.0028755 0.0020844 -0.0177032 -0.0012947 0.0008458 0.0009354 -0.0008828 0.0000665 -0.0014524 -0.0000366 -0.0011303 -0.0000678 -0.0009630 -0.0001717 -0.0007351 0.0002849 0.0028208
-0.0063750 0.0229513 0.0021551 -0.0008350 -0.0001131 -0.0015132 -0.0026533 0.0017346 -0.0003395 -0.0002700 0.0000548 -0.0016941 -0.0000273 -0.0013961 -0.0000784 -0.0013408 0.0000154 -0.0004224 0.0000843 0.0017092
-0.0137122 0.0192237 0.0010481 -0.0046890 0.0021657 -0.0045159 -0.0011865 0.0007754 0.0037661 -0.0029321 0.0001004 -0.0016924 0.0000183 -0.0013925 -0.0000556 -0.0013145 0.0003506 0.0003149 -0.0001522 -0.0004266
-0.0027087 0.0094540 -0.0019509 0.0145657 0.0048649 0.0067820 -0.0035861 0.0023440 0.0040622 -0.0030677 0.0001167 -0.0016209 0.0000335 -0.0013487 -0.0000681 -0.0012267 0.0003270 0.0003656 0.0001253 -0.0001157
-0.0036705 0.0064755 -0.0017705 0.0150979 0.0004176 0.0156514 -0.0012629 0.0008255 -0.0016550 0.0005487 0.0000792 -0.0016176 -0.0000013 -0.0013993 -0.0001094 -0.0012196 0.0000362 -0.0003772 0.0002164 0.0014672
0.0054409 -0.0080449 -0.0003473 -0.0021715 0.0008318 -0.0132686 0.0019685 -0.0012861 -0.0069526 0.0039245 0.0000349 -0.0015769 -0.0000397 -0.0014020 -0.0001425 -0.0012035 -0.0002462 -0.0008903 0.0002221 0.0026943
0.0050917 -0.0089986 -0.0027493 0.0063008 -0.0038739 0.0030213 -0.0002450 0.0001588 -0.0070877 0.0042404 0.0000540 -0.0013316 -0.0000070 -0.0011404 -0.0001387 -0.0010333 -0.0000222 -0.0000887 0.0002581 0.0020333
-0.0077246 -0.0054035 -0.0092901 0.0047060 -0.0162468 0.0253695 0.0000235 -0.0000166 -0.0048835 0.0031318 0.0001076 -0.0009758 0.0000460 -0.0007727 -0.0001185 -0.0007700 0.0002984 0.0009592 -0.0001974 0.0003996
0.0030846 -0.0257037 -0.0006676 -0.0038698 0.0007655 0.0045356 0.0016685 -0.0010899 -0.0026570 0.0017281 0.0001306 -0.0009255 0.0000669 -0.0007876 -0.0001205 -0.0009204 0.0003172 0.0010083 -0.0004930 0.0005015
0.0025574 -0.0103959 0.0092055 -0.0108415 0.0087115 -0.0051685 0.0009963 -0.0006518 0.0015146 -0.0013798 0.0000997 -0.0012527 0.0000326 -0.0011881 -0.0001442 -0.0013955 0.0001008 -0.0001459 -0.0001841 0.0013959
-0.0073571 0.0064680 0.0016352 -0.0017654 -0.0036475 0.0082385 -0.0002017 0.0001316 0.0047709 -0.0039116 0.0000427 -0.0015462 -0.0000271 -0.0014842 -0.0001873 -0.0016980 -0.0002702 -0.0011753 0.0000718 0.0023379
-0.0000087 0.0129613 -0.0113560 0.0125852 -0.0087963 0.0064207 -0.0007470 0.0004888 0.0054332 -0.0043578 0.0000353 -0.0015357 -0.0000142 -0.0014302 -0.0001928 -0.0016647 -0.0001228 -0.0005975 0.0000618 0.0016219
0.0015415 0.0123371 -0.0023132 -0.0035216 -0.0082384 0.0081833 0.0006376 -0.0004151 0.0036564 -0.0029771 0.0000805 -0.0012995 0.0000331 -0.0011889 -0.0001643 -0.0013883 0.0002584 0.0005537 -0.0001617 -0.0001901
-0.0122444 0.0097555 -0.0002912 -0.0061224 -0.0088101 0.0123316 0.0009307 -0.0006077 0.0009974 -0.0010267 0.0001120 -0.0010703 0.0000565 -0.0009925 -0.0001632 -0.0011648 0.0002709 0.0009035 -0.0001851 0.0000927
-0.0173115 0.0019452 0.0004087 0.0099007 0.0016451 0.0104160 -0.0017709 0.0011580 -0.0005002 -0.0000576 0.0000856 -0.0009960 0.0000293 -0.0009711 -0.0001977 -0.0011203 -0.0000547 0.0000544 -0.0000989 0.0016098
-0.0069777 0.0036911 0.0031483 0.0029660 -0.0029985 0.0200892 -0.0006798 0.0004450 -0.0046182 0.0026012 0.0000341 -0.0009745 -0.0000207 -0.0010194 -0.0002355 -0.0012664 -0.0003994 -0.0007883 -0.0000207 0.0027249
0.0049005 -0.0021543 0.0075878 -0.0312154 -0.0135898 0.0234555 0.0023212 -0.0015163 -0.0046518 0.0026458 0.0000404 -0.0010023 0.0000013 -0.0010638 -0.0002317 -0.0015196 -0.0001460 -0.0003306 0.0000232 0.0017695
0.0158847 -0.0242537 -0.0066087 0.0019350 -0.0155927 0.0208617 0.0011800 -0.0007716 -0.0028082 0.0013650 0.0000860 -0.0010668 0.0000530 -0.0011362 -0.0002090 -0.0016362 0.0001884 0.0003074 -0.0002731 0.0000510
0.0047892 -0.0074724 -0.0104348 0.0135671 -0.0137028 0.0105106 -0.0007681 0.0005010 -0.0041467 0.0022282 0.0001117 -0.0010574 0.0000626 -0.0011491 -0.0002014 -0.0016185 0.0002251 0.0004816 -0.0005499 -0.0002298
0.0062868 -0.0146427 0.0012411 -0.0035489 0.0099884 -0.0159647 -0.0004626 0.0003019 -0.0032840 0.0017436 0.0001214 -0.0009727 0.0000579 -0.0010830 -0.0002064 -0.0015442 0.0002377 0.0005511 -0.0005368 -0.0003970
0.0042524 -0.0117896 -0.0014099 0.0009567 0.0150372 -0.0211823 0.0000011 -0.0000025 0.0007267 -0.0007281 0.0001262 -0.0008105 0.0000539 -0.0009465 -0.0002113 -0.0013945 0.0002551 0.0006731 -0.0004621 -0.0004895
-0.0020605 0.0044915 -0.0040792 -0.0029326 0.0046923 -0.0093208 0.0001726 -0.0001102 0.0017865 -0.0012757 0.0001331 -0.0006156 0.0000469 -0.0008141 -0.0002193 -0.0012600 0.0002606 0.0007800 -0.0004057 -0.0005102
0.0040054 0.0093913 0.0100629 -0.0309984 -0.0040375 0.0014709 -0.0008743 0.0005748 0.0001031 -0.0000199 0.0001450 -0.0004045 0.0000332 -0.0007158 -0.0002323 -0.0012106 0.0002576 0.0008149 -0.0003385 -0.0006073
0.0050692 -0.0007487 0.0014494 -0.0071808 0.0023695 -0.0158273 -0.0002811 0.0001847 -0.0020698 0.0013522 0.0001543 -0.0004378 0.0000019 -0.0009207 -0.0002457 -0.0014697 0.0002755 0.0006062 -0.0002811 -0.0008698
0.0000288 -0.0153196 -0.0007328 0.0044568 0.0018445 -0.0104722 0.0014157 -0.0009247 -0.0021082 0.0011121 0.0001644 -0.0006319 -0.0000248 -0.0013190 -0.0002687 -0.0018362 0.0002824 0.0002923 -0.0002570 -0.0011157
-0.0144971 0.0030007 0.0046273 0.0072842 0.0008017 0.0131268 -0.0008595 0.0005624 -0.0045381 0.0025940 0.0001732 -0.0006746 -0.0000368 -0.0014920 -0.0002630 -0.0018426 0.0002899 0.0001996 -0.0002570 -0.0011284
-0.0135465 0.0136097 0.0048980 -0.0004846 0.0031166 0.0066077 -0.0011417 0.0007471 -0.0063015 0.0037940 0.0001672 -0.0006519 -0.0000356 -0.0014107 -0.0002381 -0.0016329 0.0003083 0.0002559 -0.0002184 -0.0011241
-0.0061335 0.0164560 0.0075041 -0.0248451 0.0009776 -0.0158572 0.0011744 -0.0007664 -0.0039523 0.0023893 0.0001554 -0.0005648 -0.0000202 -0.0011953 -0.0002281 -0.0014382 0.0002885 0.0002742 -0.0002657 -0.0011450
-0.0082111 0.0204280 -0.0108641 0.0154398 -0.0127043 0.0095015 -0.0001999 0.0001305 -0.0036312 0.0023987 0.0001450 -0.0004529 -0.0000041 -0.0010150 -0.0002134 -0.0012414 0.0002489 0.0002652 -0.0003072 -0.0010665
-0.0065645 0.0121471 -0.0176818 0.0247382 -0.0125645 0.0150294 -0.0004046 0.0002642 -0.0029957 0.0022519 0.0001487 -0.0002821 0.0000038 -0.0008351 -0.0002262 -0.0011321 0.0002510 0.0004199 -0.0003279 -0.0009899
0.0060577 -0.0155941 -0.0067645 0.0148372 0.0038767 0.0007945 0.0009367 -0.0006114 0.0023139 -0.0010877 0.0001565 -0.0002415 -0.0000058 -0.0008637 -0.0002499 -0.0013572 0.0002889 0.0003724 -0.0002930 -0.0012261
0.0046209 -0.0211329 0.0000127 0.0038700 0.0068895 -0.0072560 -0.0017541 0.0011444 0.0058671 -0.0034975 0.0001593 -0.0004394 -0.0000161 -0.0011321 -0.0002593 -0.0017560 0.0003061 0.0000427 -0.0001966 -0.0017139
-0.0076443 -0.0050341 0.0008750 -0.0086692 -0.0025898 -0.0001215 -0.0017669 0.0011532 0.0054452 -0.0032746 0.0001739 -0.0005019 -0.0000392 -0.0013144 -0.0002859 -0.0019407 0.0003080 -0.0000569 -0.0001723 -0.0020602
0.0063005 -0.0050872 -0.0024444 -0.0058627 -0.0011752 0.0015700 -0.0013177 0.0008610 0.0035425 -0.0019097 0.0001832 -0.0004217 -0.0000749 -0.0013608 -0.0003065 -0.0019061 0.0003068 0.0000450 -0.0001375 -0.0021881
0.0149865 -0.0175425 0.0089030 -0.0301903 -0.0016792 -0.0055021 -0.0014399 0.0009417 0.0007466 0.0000719 0.0001799 -0.0003170 -0.0001027 -0.0013170 -0.0003147 -0.0017843 0.0002875 0.0001343 -0.0000443 -0.0022126
0.0021184 -0.0024440 0.0036651 -0.0170619 -0.0026584 -0.0066572 0.0006674 -0.0004360 -0.0050222 0.0039856 0.0001805 -0.0001765 -0.0001057 -0.0012261 -0.0003138 -0.0016001 0.0002847 0.0002964 -0.0000192 -0.0020040
-0.0203455 0.0197741 -0.0017709 0.0113500 0.0046970 0.0026582 -0.0007118 0.0004661 -0.0062599 0.0049414 0.0001838 -0.0000196 -0.0000930 -0.0010696 -0.0003016 -0.0013784 0.0002732 0.0004454 -0.0000301 -0.0016359
-0.0313196 0.0210524 -0.0000988 0.0074052 0.0036642 0.0092598 0.0011023 -0.0007190 -0.0001440 0.0010079 0.0001891 0.0000384 -0.0001008 -0.0010241 -0.0002997 -0.0013885 0.0002783 0.0004166 0.0000080 -0.0015952
-0.0054862 0.0070068 0.0002717 -0.0162491 -0.0014827 0.0110739 0.0031281 -0.0020431 -0.0011529 0.0014965 0.0002003 -0.0000494 -0.0001236 -0.0012656 -0.0003100 -0.0016515 0.0002904 0.0002019 0.0000044 -0.0018135
-0.0035174 0.0043778 -0.0052554 0.0058069 -0.0071208 0.0181140 -0.0013394 0.0008756 -0.0007056 0.0010230 0.0002275 -0.0000704 -0.0001526 -0.0014870 -0.0003149 -0.0017444 0.0002933 0.0001186 0.0000413 -0.0019191
-0.0060889 -0.0016809 -0.0054309 0.0102644 -0.0083047 0.0134806 -0.0026228 0.0017136 0.0020864 -0.0007192 0.0002750 0.0001086 -0.0001836 -0.0015231 -0.0002985 -0.0015300 0.0003533 0.0003970 0.0001007 -0.0018100
0.0016478 -0.0107529 0.0070016 -0.0161721 0.0052010 -0.0040203 -0.0009954 0.0006509 0.0020683 -0.0004343 0.0003250 0.0004116 -0.0002044 -0.0014340 -0.0002759 -0.0012220 0.0003731 0.0006201 0.0001726 -0.0015934
0.0048702 -0.0176166 0.0132484 -0.0218142 0.0084321 -0.0115132 -0.0010234 0.0006679 0.0034098 -0.0009533 0.0003621 0.0006998 -0.0002182 -0.0013145 -0.0002624 -0.0009722 0.0003504 0.0007165 0.0002025 -0.0014317
0.0067961 -0.0217548 0.0107814 -0.0231596 0.0124989 -0.0336843 0.0516952 -0.0514036 0.0018087 0.0003131 0.0003732 0.0008550 -0.0002358 -0.0012618 -0.0002620 -0.0007844 0.0003547 0.0009029 0.0002235 -0.0013089
0.0112358 -0.0143454 0.0105287 -0.0366164 0.0089515 -0.0275232 0.0555550 -0.0539810 0.0008586 0.0010058 0.0003686 0.0008956 -0.0002460 -0.0012656 -0.0002755 -0.0008422 0.0004199 0.0011542 0.0002100 -0.0013079
0.0105513 -0.0098054 0.0031138 -0.0123164 -0.0072678 0.0014905 0.0215461 -0.0139974 0.0031449 -0.0006305 0.0003561 0.0007464 -0.0002298 -0.0014031 -0.0002874 -0.0011146 0.0005197 0.0012520 0.0001759 -0.0014756
-0.0088095 0.0193684 0.0104202 -0.0214054 -0.0118598 0.0144743 0.0345241 -0.0401988 0.0030926 -0.0008793 0.0003342 0.0005132 -0.0002460 -0.0016654 -0.0003100 -0.0013356 0.0004194 0.0006080 0.0006711 -0.0007946
-0.0077067 0.0209196 0.0109466 -0.0106310 -0.0049867 0.0192072 0.0912038 -0.1842535 -0.0001776 0.0010114 0.0003001 0.0003559 -0.0003402 -0.0020264 -0.0003656 -0.0015369 -0.0000278 -0.0005617 0.0008199 0.0005368
0.0019124 -0.0019883 0.0028194 0.0084833 -0.0044682 0.0146911 0.0852638 -0.1831320 -0.0051811 0.0041591 0.0002775 0.0003182 -0.0003827 -0.0021001 -0.0003999 -0.0015523 -0.0000160 -0.0000934 0.0004602 0.0004029
0.0041201 0.0016184 -0.0024952 -0.0048521 -0.0038036 -0.0013921 0.0981451 -0.1910401 -0.0054184 0.0043718 0.0002892 0.0004091 -0.0003188 -0.0018149 -0.0003874 -0.0013121 0.0003631 0.0013408 0.0002161 -0.0007563
0.0051471 0.0019695 -0.0097207 0.0074718 -0.0078150 0.0102328 0.1022780 -0.1823029 -0.0028729 0.0027800 0.0002979 0.0004856 -0.0002887 -0.0016767 -0.0003811 -0.0011409 0.0003507 0.0016138 0.0002280 -0.0002543
0.0019943 -0.0043643 -0.0113786 0.0176155 -0.0090159 0.0184117 0.0975483 -0.1773862 0.0013496 -0.0000778 0.0002768 0.0004148 -0.0003520 -0.0018936 -0.0003992 -0.0013421 0.0001211 0.0005446 0.0005373 0.0012525
-0.0023828 -0.0076396 0.0037656 -0.0002448 0.0031010 0.0117508 0.0937525 -0.1919713 0.0034831 -0.0017451 0.0002363 0.0001768 -0.0004212 -0.0022363 -0.0004302 -0.0017063 -0.0001919 -0.0005975 0.0007837 0.0022306
-0.0078382 0.0053871 0.0057464 -0.0003421 0.0082452 0.0003974 0.0849894 -0.1793077 0.0041880 -0.0022149 0.0002444 0.0001615 -0.0003921 -0.0021879 -0.0004236 -0.0016630 -0.0000170 0.0002535 0.0004360 0.0013948
-0.0000620 -0.0061049 -0.0018918 -0.0017422 0.0071341 -0.0176182 0.0837515 -0.1741456 0.0041222 -0.0019370 0.0002923 0.0003813 -0.0003062 -0.0018560 -0.0003958 -0.0012995 0.0003299 0.0015357 -0.0000083 -0.0003017
0.0070743 -0.0156559 -0.0019408 -0.0109332 0.0077389 -0.0243744 0.1053161 -0.2023124 0.0033049 -0.0012181 0.0003104 0.0005690 -0.0002808 -0.0016279 -0.0003931 -0.0010257 0.0003249 0.0016269 0.0005519 0.0002564
-0.0032523 0.0087938 -0.0025701 -0.0151009 0.0063780 -0.0301881 0.1132587 -0.2200317 0.0026284 -0.0006928 0.0002808 0.0006596 -0.0003187 -0.0015899 -0.0004069 -0.0009541 -0.0000065 0.0007063 0.0007011 0.0016224
-0.0094585 0.0064429 -0.0012579 -0.0138882 -0.0003817 -0.0141078 0.1028739 -0.2043558 0.0015238 0.0000719 0.0002436 0.0006907 -0.0003655 -0.0016866 -0.0004316 -0.0010779 -0.0002797 0.0000419 0.0005269 0.0024811
-0.0063248 0.0023523 0.0110430 -0.0202499 0.0037256 0.0053821 0.1017357 -0.2008741 -0.0034786 0.0033459 0.0002615 0.0007207 -0.0003475 -0.0016859 -0.0004300 -0.0011932 0.0000174 0.0008083 0.0002845 0.0016891
0.0028308 -0.0079799 0.0139673 -0.0262054 0.0055322 0.0072131 0.1010502 -0.2080332 -0.0104651 0.0078986 0.0002934 0.0007611 -0.0003121 -0.0015577 -0.0004038 -0.0010630 0.0002974 0.0017004 -0.0001290 -0.0002078
0.0167773 -0.0253804 -0.0074686 0.0000365 0.0016193 0.0009400 0.0932250 -0.1959048 -0.0092700 0.0071824 0.0002970 0.0008306 -0.0003139 -0.0014755 -0.0003865 -0.0008879 0.0002625 0.0017569 0.0002581 0.0000979
0.0110426 -0.0121348 -0.0316544 0.0191476 -0.0130856 0.0184509 0.0962251 -0.1796515 -0.0040035 0.0038208 0.0002691 0.0008561 -0.0003557 -0.0015536 -0.0003970 -0.0008526 -0.0000980 0.0007132 0.0003561 0.0015515
0.0067689 -0.0146767 -0.0118027 0.0083118 -0.0129777 0.0195733 0.0966879 -0.1774512 0.0020637 -0.0000013 0.0002281 0.0008963 -0.0004294 -0.0016190 -0.0004236 -0.0008323 -0.0004259 -0.0000464 0.0002240 0.0025590
0.0109099 -0.0252320 0.0050742 0.0020390 0.0033487 0.0019026 0.0945946 -0.1815970 0.0021274 0.0002506 0.0002378 0.0011245 -0.0004166 -0.0013517 -0.0004108 -0.0006449 -0.0001309 0.0009334 0.0001212 0.0018575
0.0021426 -0.0108812 0.0102493 -0.0129898 0.0106490 -0.0112267 0.0883883 -0.1760483 0.0058932 -0.0019906 0.0002698 0.0012362 -0.0003536 -0.0011648 -0.0003783 -0.0005614 0.0002049 0.0018646 -0.0001839 -0.0001577
-0.0075540 0.0040760 -0.0034668 0.0000190 0.0067095 -0.0161412 0.0854777 -0.1781986 0.0057534 -0.0018220 0.0002762 0.0011530 -0.0003208 -0.0011972 -0.0003634 -0.0006155 0.0001929 0.0018482 -0.0003662 -0.0002222
-0.0014138 0.0033479 -0.0047142 0.0025408 0.0047741 -0.0143967 0.0961976 -0.1855050 0.0008678 0.0014405 0.0002643 0.0011710 -0.0003315 -0.0011528 -0.0003570 -0.0005795 0.0001161 0.0015305 -0.0000050 0.0004890
0.0020897 0.0031358 0.0061255 -0.0248260 0.0007873 -0.0099008 0.0979733 -0.1846104 -0.0034595 0.0043157 0.0002373 0.0012332 -0.0003675 -0.0011074 -0.0003649 -0.0005063 -0.0000281 0.0009077 0.0005263 0.0008594
-0.0010153 -0.0005684 0.0085106 -0.0321035 -0.0086791 0.0020820 0.0971233 -0.1891806 -0.0048285 0.0052152 0.0002032 0.0012779 -0.0003678 -0.0010061 -0.0003730 -0.0004094 -0.0001930 0.0003364 0.0004795 0.0014991
-0.0021036 -0.0024813 0.0037900 -0.0019522 0.0011744 0.0056963 0.0955547 -0.1957977 -0.0024066 0.0036135 0.0001912 0.0013989 -0.0003633 -0.0008222 -0.0003772 -0.0003311 -0.0001845 0.0004149 0.0002747 0.0012291
-0.0043271 0.0092094 0.0001169 0.0042330 0.0044562 0.0027377 0.0870724 -0.1827891 -0.0004808 0.0022087 0.0001915 0.0014111 -0.0003729 -0.0008525 -0.0003804 -0.0004922 -0.0001128 0.0004742 0.0001093 0.0003675
0.0015978 0.0071751 0.0007638 -0.0067472 -0.0006541 0.0013062 0.0842498 -0.1741401 0.0034041 -0.0005932 0.0001808 0.0012516 -0.0003730 -0.0010335 -0.0003762 -0.0007335 -0.0000866 0.0002901 -0.0000011 -0.0001378
0.0073886 -0.0037540 0.0017196 -0.0055352 -0.0065107 0.0098079 0.0902288 -0.1728270 0.0034039 -0.0006872 0.0001744 0.0012135 -0.0003714 -0.0010620 -0.0003743 -0.0007360 -0.0000693 0.0002858 -0.0000628 -0.0004475
0.0034903 -0.0089454 0.0011481 -0.0054064 -0.0033203 -0.0012902 0.0904059 -0.1753555 0.0015008 0.0006062 0.0001735 0.0012872 -0.0003869 -0.0009776 -0.0003741 -0.0006283 -0.0000618 0.0003656 -0.0001007 -0.0005736
0.0052240 -0.0217233 0.0118334 -0.0144108 0.0028144 0.0044368 0.0818722 -0.1753246 -0.0006646 0.0020884 0.0001652 0.0013946 -0.0004075 -0.0008387 -0.0003721 -0.0004891 -0.0000558 0.0004531 -0.0000375 -0.0006148
-0.0007835 -0.0095297 0.0123007 -0.0128726 0.0040789 0.0051441 0.0769109 -0.1667852 0.0033769 -0.0004510 0.0001543 0.0015203 -0.0004132 -0.0007261 -0.0003700 -0.0003838 -0.0000665 0.0004638 0.0000198 -0.0006612
-0.0068951 0.0066009 -0.0023584 0.0054548 0.0024220 -0.0118638 0.0881645 -0.1795147 0.0031778 -0.0003730 0.0001454 0.0014632 -0.0004228 -0.0008463 -0.0003754 -0.0005646 -0.0001149 0.0001050 -0.0000029 -0.0008004
0.0032704 -0.0023053 -0.0055594 0.0110548 0.0065188 -0.0249036 0.0947407 -0.1824471 0.0012379 0.0006831 0.0001176 0.0012078 -0.0004749 -0.0011548 -0.0003976 -0.0008896 -0.0003297 -0.0008493 -0.0000513 -0.0005177
0.0192582 -0.0300203 -0.0073149 0.0106916 -0.0006915 -0.0078503 0.0898988 -0.1756547 0.0000472 0.0013690 0.0000770 0.0010524 -0.0005454 -0.0013780 -0.0004218 -0.0010644 -0.0006450 -0.0015912 -0.0000889 0.0001452
0.0241583 -0.0551827 -0.0146781 0.0109079 -0.0044054 -0.0019721 0.0872058 -0.1850050 -0.0049249 0.0047828 0.0000679 0.0011087 -0.0005434 -0.0013288 -0.0004231 -0.0010269 -0.0005277 -0.0009353 -0.0002030 -0.0002221
0.0098532 -0.0342502 -0.0013790 -0.0012434 0.0054723 -0.0054029 0.0884411 -0.1893227 -0.0056371 0.0055886 0.0000969 0.0013076 -0.0005101 -0.0010841 -0.0004078 -0.0007709 -0.0001706 0.0001624 -0.0002489 -0.0010634
-0.0069311 0.0098348 0.0014481 0.0021578 0.0077758 -0.0070042 0.0888299 -0.1882144 -0.0001073 0.0023174 0.0001188 0.0015022 -0.0005167 -0.0008655 -0.0003821 -0.0004876 0.0000029 0.0007634 -0.0002113 -0.0012852
-0.0046113 0.0169710 -0.0027224 0.0078864 -0.0019320 0.0018347 0.0644365 -0.0657292 0.0004553 0.0020352 0.0001149 0.0014745 -0.0005308 -0.0009307 -0.0003612 -0.0005410 -0.0000269 0.0004923 -0.0001706 -0.0012235
-0.0008778 0.0091881 -0.0021692 0.0073267 -0.0060960 0.0100810 0.0511573 -0.0339724 -0.0005280 0.0025021 0.0000988 0.0012851 -0.0005301 -0.0011137 -0.0003486 -0.0007198 -0.0000586 0.0000743 -0.0001196 -0.0013378
0.0023213 -0.0033449 -0.0051413 0.0127826 -0.0010703 0.0000663 -0.0172165 0.0150085 0.0032797 -0.0000344 0.0000913 0.0012338 -0.0005266 -0.0010442 -0.0003262 -0.0006005 0.0000399 0.0004041 -0.0002053 -0.0015577
0.0104304 -0.0194714 -0.0011667 0.0113205 0.0033326 -0.0024508 -0.0147582 0.0133883 0.0028854 0.0004371 0.0000925 0.0013364 -0.0005258 -0.0008570 -0.0003084 -0.0003334 0.0001116 0.0009400 -0.0003231 -0.0015218
0.0031707 -0.0097634 0.0051855 0.0074569 0.0037901 0.0015714 -0.0175684 0.0152108 0.0012087 0.0018200 0.0000884 0.0014596 -0.0005281 -0.0007172 -0.0002924 -0.0000393 0.0001509 0.0014077 -0.0003731 -0.0013714
-0.0044739 -0.0081232 0.0014755 0.0014595 -0.0031317 0.0048701 0.0349659 -0.0201499 0.0031737 0.0007741 0.0000799 0.0015715 -0.0005465 -0.0006658 -0.0002828 0.0001472 0.0000584 0.0012520 -0.0001372 -0.0006899
0.0045669 -0.0312551 -0.0005624 -0.0047830 -0.0031726 -0.0042237 0.0350026 -0.0201867 0.0047133 -0.0002139 0.0000605 0.0014817 -0.0005988 -0.0008516 -0.0002952 -0.0000516 -0.0000431 0.0006919 0.0001103 -0.0004222
-0.0034565 -0.0034056 0.0002386 -0.0039296 0.0015028 -0.0163612 -0.0181488 0.0155579 0.0020992 0.0013087 0.0000414 0.0012420 -0.0006361 -0.0011249 -0.0002979 -0.0003260 -0.0000133 0.0005026 0.0001160 -0.0008900
-0.0056752 0.0008211 -0.0054858 -0.0044513 0.0051603 -0.0216618 -0.0162251 0.0142863 -0.0000477 0.0026432 0.0000349 0.0011553 -0.0006402 -0.0011802 -0.0002861 -0.0002970 0.0000218 0.0006321 0.0000295 -0.0009553
0.0155207 -0.0319830 0.0064432 -0.0088987 0.0086539 -0.0161765 0.0190860 -0.0266378 -0.0057834 0.0064618 0.0000350 0.0011960 -0.0006393 -0.0010883 -0.0002830 -0.0001070 0.0000258 0.0008111 -0.0000768 -0.0007590
0.0102790 -0.0126249 0.0046118 -0.0032363 0.0090262 -0.0124145 0.0476575 -0.0576986 -0.0069307 0.0073424 0.0000381 0.0013131 -0.0006614 -0.0009396 -0.0002811 0.0001172 0.0000183 0.0010455 -0.0000790 -0.0006380
-0.0001823 0.0049378 -0.0033826 0.0030368 -0.0012025 -0.0003466 0.0300009 -0.0213339 0.0015243 0.0019727 0.0000451 0.0014852 -0.0006777 -0.0007883 -0.0002788 0.0002865 0.0000445 0.0013507 -0.0000461 -0.0006117
0.0003204 0.0043124 0.0041360 -0.0095180 -0.0028427 -0.0049569 -0.0202998 0.0170379 0.0035211 0.0006482 0.0000477 0.0014738 -0.0006701 -0.0008057 -0.0002763 0.0002025 0.0000898 0.0014367 -0.0000935 -0.0006945
0.0023285 -0.0062720 -0.0026398 -0.0041104 0.0015836 -0.0073796 -0.0212485 0.0176433 0.0053395 -0.0007897 0.0000457 0.0012718 -0.0006899 -0.0010152 -0.0002805 -0.0000694 0.0000433 0.0011197 -0.0001124 -0.0007311
-0.0008078 -0.0122788 -0.0132354 0.0157986 0.0047937 -0.0019784 -0.0197309 0.0166378 0.0050447 -0.0008004 0.0000405 0.0011309 -0.0007155 -0.0011705 -0.0002849 -0.0001418 0.0000105 0.0010013 -0.0000663 -0.0008142
-0.0035586 0.0067521 -0.0052039 0.0076790 0.0062083 -0.0089042 -0.0199901 0.0167915 0.0021201 0.0010373 0.0000251 0.0010959 -0.0007244 -0.0011555 -0.0002636 0.0000446 0.0000658 0.0013272 -0.0000995 -0.0008449
-0.0075083 0.0171776 -0.0030907 0.0043397 0.0025870 -0.0153828 0.0144653 -0.0236107 0.0002760 0.0022432 0.0000162 0.0011499 -0.0007272 -0.0010816 -0.0002451 0.0003247 0.0000992 0.0017245 -0.0002513 -0.0005819
0.0014066 -0.0030495 -0.0083974 0.0033636 0.0103771 -0.0334671 0.0877436 -0.1726336 -0.0014192 0.0034300 0.0000049 0.0012272 -0.0007324 -0.0009549 -0.0002171 0.0006306 0.0001428 0.0021003 -0.0002304 -0.0005084
0.0111697 -0.0159747 -0.0065846 0.0012462 -0.0047447 -0.0010581 0.0894868 -0.1735776 -0.0027600 0.0042977 -0.0000279 0.0011717 -0.0007204 -0.0008399 -0.0001931 0.0006688 0.0001924 0.0022063 -0.0000568 -0.0005062
-0.0038630 0.0066301 -0.0032895 0.0020712 -0.0061497 0.0081446 0.0859770 -0.1848178 -0.0044926 0.0052332 -0.0000554 0.0009590 -0.0007114 -0.0009473 -0.0001946 0.0003574 0.0000288 0.0013984 0.0004326 0.0006562
-0.0086842 0.0153711 -0.0067570 0.0013927 0.0064242 -0.0132054 0.0828936 -0.1808061 -0.0041751 0.0047412 -0.0001141 0.0006697 -0.0007522 -0.0011338 -0.0002086 0.0001409 -0.0004382 -0.0000148 0.0004227 0.0020030
0.0010484 0.0029622 -0.0003223 -0.0036967 0.0126312 -0.0252830 0.0835405 -0.1821986 -0.0032728 0.0039207 -0.0001996 0.0004473 -0.0007792 -0.0010999 -0.0002232 0.0001338 -0.0006948 -0.0005065 0.0001611 0.0027698
-0.0020984 -0.0018751 0.0031035 -0.0153939 0.0133692 -0.0281665 0.0874066 -0.1886023 -0.0029370 0.0036129 -0.0002463 0.0003700 -0.0007537 -0.0009015 -0.0002170 0.0002274 -0.0006591 -0.0003385 0.0003088 0.0030572
-0.0078436 0.0159288 0.0042768 -0.0212394 0.0102035 -0.0228807 0.0902504 -0.1887325 0.0003481 0.0014523 -0.0002687 0.0003951 -0.0007319 -0.0006998 -0.0002243 0.0003735 -0.0006285 -0.0001787 0.0003005 0.0030978
-0.0028748 0.0081185 0.0026231 -0.0153609 0.0041273 -0.0044977 0.0847084 -0.1794891 0.0031321 -0.0003653 -0.0002688 0.0004626 -0.0006880 -0.0004962 -0.0002311 0.0004197 -0.0004653 0.0003125 0.0003426 0.0027988
0.0044170 -0.0152443 -0.0028412 -0.0016465 -0.0015993 0.0104098 0.0828858 -0.1786715 0.0028794 -0.0003010 -0.0002574 0.0004233 -0.0006331 -0.0004382 -0.0002171 0.0002881 -0.0002549 0.0008679 0.0003363 0.0020729
0.0082880 -0.0187225 0.0046718 -0.0048027 0.0033545 -0.0028095 0.0882470 -0.1921785 0.0012604 0.0006461 -0.0002595 0.0003604 -0.0005641 -0.0002847 -0.0001887 0.0003461 -0.0001183 0.0014479 0.0000148 0.0017549
0.0083731 -0.0186579 0.0048775 -0.0068961 0.0080034 -0.0202657 0.0854915 -0.1916115 -0.0007799 0.0020416 -0.0002643 0.0003838 -0.0004898 0.0000043 -0.0001615 0.0005701 -0.0000687 0.0018235 -0.0003663 0.0018278
-0.0038765 -0.0046291 0.0045351 -0.0203860 0.0027038 -0.0141734 0.0856211 -0.1772421 -0.0015378 0.0026709 -0.0002653 0.0004684 -0.0005040 0.0000756 -0.0001679 0.0006665 -0.0002208 0.0014056 0.0000605 0.0025231
-0.0051983 0.0009808 -0.0019737 -0.0061365 -0.0006646 -0.0071739 0.0903913 -0.1878491 -0.0013298 0.0026494 -0.0003007 0.0005143 -0.0005713 0.0000477 -0.0001853 0.0007252 -0.0004964 0.0004903 0.0004890 0.0033439
-0.0032475 -0.0078718 0.0015891 0.0007186 -0.0123494 0.0138898 0.0838511 -0.1866730 0.0011529 0.0011401 -0.0003207 0.0005543 -0.0005699 0.0000784 -0.0001797 0.0006784 -0.0004735 0.0004022 0.0003650 0.0031130
0.0095557 -0.0246146 0.0117929 -0.0256312 -0.0070069 0.0039681 0.0849372 -0.1848057 0.0022981 0.0003229 -0.0003073 0.0004992 -0.0005545 -0.0000183 -0.0001697 0.0004741 -0.0003167 0.0006925 0.0002410 0.0023321
0.0125228 -0.0195354 0.0043531 -0.0150868 0.0087802 -0.0221526 0.0836469 -0.1816681 -0.0015979 0.0027153 -0.0003047 0.0003772 -0.0005959 -0.0001686 -0.0001674 0.0003796 -0.0003430 0.0005108 0.0001923 0.0020180
-0.0001744 -0.0067806 -0.0073734 0.0003030 0.0072976 -0.0194411 0.0731909 -0.1687042 -0.0033784 0.0038962 -0.0003200 0.0003329 -0.0006393 -0.0002784 -0.0001737 0.0004027 -0.0005741 -0.0001393 0.0000877 0.0024305
0.0003466 -0.0137029 0.0042348 -0.0146417 0.0086137 -0.0203924 0.0769263 -0.1724662 -0.0001337 0.0018854 -0.0003517 0.0003362 -0.0006771 -0.0003194 -0.0001917 0.0004785 -0.0008435 -0.0005730 -0.0000507 0.0033647
-0.0099545 0.0021973 0.0110502 -0.0203450 0.0047173 -0.0065968 0.0892859 -0.1908786 -0.0006761 0.0024499 -0.0003548 0.0004932 -0.0006811 -0.0001636 -0.0002011 0.0006635 -0.0007249 0.0000637 -0.0000685 0.0031470
-0.0111654 0.0098669 -0.0008799 0.0016943 -0.0021849 0.0059430 0.0957605 -0.2082018 -0.0010523 0.0028963 -0.0003277 0.0006879 -0.0006685 -0.0000916 -0.0001969 0.0007030 -0.0004714 0.0006141 -0.0000023 0.0021454
0.0019374 -0.0044026 -0.0042826 0.0142622 0.0054870 -0.0113060 0.0878862 -0.1957105 0.0013743 0.0012324 -0.0003114 0.0006634 -0.0006813 -0.0002892 -0.0001971 0.0004830 -0.0003980 0.0004994 -0.0000009 0.0016459
-0.0017083 0.0030717 -0.0063156 0.0137764 0.0009127 0.0008633 0.0800558 -0.1776025 -0.0006222 0.0023817 -0.0003063 0.0005717 -0.0007013 -0.0004894 -0.0002037 0.0003522 -0.0003903 0.0003531 -0.0001425 0.0013961
0.0022736 -0.0090391 -0.0022275 0.0008710 -0.0068581 0.0105603 0.0770699 -0.1622278 -0.0023851 0.0035640 -0.0002969 0.0006284 -0.0007243 -0.0005220 -0.0002103 0.0004028 -0.0003901 0.0003721 -0.0002027 0.0012401
0.0045173 -0.0053428 0.0027232 -0.0078536 -0.0051107 0.0071039 0.0821755 -0.1711671 -0.0016491 0.0031963 -0.0002901 0.0007693 -0.0007440 -0.0004574 -0.0002104 0.0005128 -0.0003858 0.0004693 -0.0001732 0.0011604
0.0013059 0.0047826 -0.0027822 0.0053239 -0.0067024 0.0120453 0.0836460 -0.1808617 0.0012410 0.0014902 -0.0002753 0.0009787 -0.0007708 -0.0003545 -0.0002163 0.0006652 -0.0003713 0.0006334 -0.0002142 0.0012039
0.0068291 -0.0020991 -0.0044510 0.0042851 -0.0070396 0.0032036 0.0816046 -0.1796644 0.0033715 0.0003018 -0.0002533 0.0011815 -0.0007980 -0.0002858 -0.0002293 0.0006993 -0.0003550 0.0006861 -0.0002596 0.0011471
0.0060560 -0.0061103 -0.0012786 -0.0008928 -0.0036160 0.0043384 0.0828488 -0.1833507 0.0025659 0.0008272 -0.0002353 0.0011779 -0.0008272 -0.0003900 -0.0002334 0.0005145 -0.0003400 0.0004818 -0.0002158 0.0008624
-0.0006070 -0.0099893 0.0040754 -0.0037025 0.0011827 -0.0004712 0.0834846 -0.1826286 0.0026774 0.0006541 -0.0002232 0.0010783 -0.0008415 -0.0005606 -0.0002281 0.0003965 -0.0003254 0.0002841 -0.0001408 0.0005869
0.0007449 0.0001582 0.0038042 -0.0044451 0.0092505 -0.0122043 0.0878423 -0.1859912 0.0008215 0.0019185 -0.0002124 0.0010919 -0.0008475 -0.0005899 -0.0002273 0.0004597 -0.0003198 0.0002841 -0.0001125 0.0005266
-0.0008185 0.0031992 -0.0002905 -0.0060428 0.0036971 -0.0006447 0.0895239 -0.1904870 -0.0029978 0.0045458 -0.0002036 0.0011822 -0.0008580 -0.0005261 -0.0002431 0.0005887 -0.0003251 0.0003914 -0.0001121 0.0005507
0.0019279 0.0028889 0.0051558 -0.0168681 -0.0051796 0.0095392 0.0910353 -0.2020749 -0.0011407 0.0034936 -0.0001991 0.0013179 -0.0008524 -0.0004156 -0.0002485 0.0007416 -0.0003118 0.0005382 -0.0000389 0.0005863
0.0020827 0.0006668 0.0059704 -0.0097167 -0.0060683 0.0101797 0.0907294 -0.2023723 0.0036990 0.0004803 -0.0001958 0.0014323 -0.0008453 -0.0003437 -0.0002484 0.0007708 -0.0002868 0.0005680 0.0000135 0.0005972
-0.0014852 -0.0079817 0.0021692 -0.0138790 -0.0074408 0.0061684 0.0883601 -0.1951507 0.0015442 0.0018161 -0.0001936 0.0013546 -0.0008441 -0.0004846 -0.0002571 0.0005537 -0.0002680 0.0003673 -0.0000725 0.0004844
0.0008067 -0.0156110 -0.0066967 -0.0034426 0.0004401 -0.0072008 0.0885483 -0.1895221 -0.0039476 0.0051950 -0.0001915 0.0011776 -0.0008581 -0.0006771 -0.0002628 0.0003444 -0.0002500 0.0001745 -0.0000781 0.0002505
-0.0035583 0.0106816 -0.0145225 0.0220453 0.0006644 0.0039849 0.0904075 -0.1972309 -0.0005903 0.0029193 -0.0001953 0.0011187 -0.0008780 -0.0007122 -0.0002651 0.0003473 -0.0002373 0.0001638 -0.0000154 0.0001379
-0.0060067 0.0188768 -0.0106226 0.0189374 -0.0021649 0.0096959 0.0830926 -0.1862019 0.0002148 0.0024048 -0.0002017 0.0011474 -0.0008892 -0.0006601 -0.0002648 0.0004500 -0.0002214 0.0002531 0.0000014 0.0001879
0.0036579 0.0049437 -0.0039697 0.0123046 0.0014973 -0.0111681 0.0777504 -0.1744420 -0.0006960 0.0030657 -0.0002054 0.0012329 -0.0008952 -0.0005468 -0.0002672 0.0006028 -0.0001977 0.0004314 0.0000268 0.0003027
0.0040518 0.0023231 -0.0008118 0.0104107 0.0061045 -0.0146792 0.0766911 -0.1726595 0.0033629 0.0005081 -0.0002004 0.0013537 -0.0009150 -0.0004018 -0.0002717 0.0007300 -0.0001703 0.0006661 0.0000148 0.0003358
-0.0064186 0.0043831 0.0038701 -0.0120219 0.0051371 -0.0049523 0.0706655 -0.1619938 0.0047893 -0.0004922 -0.0001922 0.0013231 -0.0009306 -0.0004952 -0.0002766 0.0005450 -0.0001375 0.0007059 -0.0000663 0.0000643
0.0001397 -0.0075297 0.0050355 -0.0058754 0.0039100 0.0068188 0.0767939 -0.1755891 0.0037362 -0.0000502 -0.0001853 0.0011158 -0.0009274 -0.0007383 -0.0002825 0.0002670 -0.0001045 0.0006361 -0.0002212 -0.0001723
0.0006591 -0.0144811 0.0000255 0.0043456 -0.0016564 0.0143986 0.0908645 -0.1959118 0.0017281 0.0011268 -0.0001844 0.0009939 -0.0009175 -0.0008127 -0.0002858 0.0002579 -0.0000888 0.0006981 -0.0002770 -0.0002102
-0.0025513 0.0065374 0.0015097 -0.0189292 -0.0020603 0.0059043 0.0866057 -0.1875198 -0.0006460 0.0026897 -0.0001905 0.0010021 -0.0009144 -0.0007987 -0.0002829 0.0003626 -0.0000731 0.0008095 -0.0002284 -0.0002118
0.0020791 0.0063946 0.0053196 -0.0306805 0.0116145 -0.0211039 0.0855790 -0.1851921 -0.0009239 0.0029537 -0.0001922 0.0010796 -0.0009195 -0.0007354 -0.0002837 0.0005057 -0.0000573 0.0009622 -0.0002231 -0.0001087
0.0098806 -0.0164375 -0.0058492 0.0090340 0.0163347 -0.0395425 0.0798982 -0.1702573 0.0012476 0.0016480 -0.0001925 0.0011785 -0.0009299 -0.0006198 -0.0002857 0.0006554 -0.0000488 0.0011397 -0.0002981 0.0001368
0.0100603 -0.0238943 0.0001983 0.0029415 0.0082423 -0.0186678 0.0811257 -0.1786855 -0.0003946 0.0027831 -0.0001952 0.0012040 -0.0009338 -0.0006011 -0.0002805 0.0005993 -0.0000389 0.0011313 -0.0003161 0.0001654
0.0106346 -0.0189196 0.0109063 -0.0222285 0.0027129 -0.0007233 0.0951152 -0.2158808 -0.0012890 0.0032076 -0.0002018 0.0010350 -0.0009342 -0.0007928 -0.0002760 0.0003262 -0.0000292 0.0009110 -0.0002725 -0.0000444
0.0053017 -0.0056023 -0.0036968 0.0012369 -0.0037033 0.0067960 0.0883622 -0.2059307 -0.0029917 0.0041085 -0.0002067 0.0008388 -0.0009434 -0.0009375 -0.0002762 0.0002043 -0.0000158 0.0008205 -0.0002403 -0.0001322
-0.0006682 0.0144652 -0.0239151 0.0107385 -0.0052938 0.0032014 0.0862365 -0.1992603 -0.0023190 0.0036355 -0.0002029 0.0007990 -0.0009555 -0.0009268 -0.0002750 0.0002626 -0.0000036 0.0009119 -0.0002062 -0.0000955
-0.0049839 0.0143944 -0.0091748 0.0019810 -0.0033892 0.0095293 0.0760257 -0.1714556 0.0019531 0.0009120 -0.0002001 0.0008444 -0.0009815 -0.0008427 -0.0002710 0.0003938 0.0000102 0.0010564 -0.0001462 0.0000105
-0.0100396 -0.0006485 -0.0000027 0.0009082 -0.0031570 0.0108176 0.0678702 -0.1556643 0.0017666 0.0011560 -0.0001999 0.0009282 -0.0009873 -0.0007507 -0.0002716 0.0005525 0.0000131 0.0012255 -0.0000598 0.0001372
-0.0018151 0.0011566 0.0080172 0.0023380 0.0049939 0.0015758 0.0656305 -0.1539949 0.0009067 0.0018693 -0.0001931 0.0010474 -0.0009770 -0.0006317 -0.0002716 0.0007153 0.0000101 0.0014083 -0.0000275 0.0003181
-0.0004837 0.0032576 0.0037570 0.0093003 -0.0001942 0.0067760 0.0737110 -0.1673752 -0.0015722 0.0035153 -0.0001889 0.0010385 -0.0009727 -0.0006601 -0.0002715 0.0005972 0.0000069 0.0013465 -0.0000160 0.0003130
0.0096634 -0.0198932 0.0001180 -0.0009450 -0.0090497 0.0059260 0.0806709 -0.1816456 -0.0002405 0.0024538 -0.0001871 0.0008177 -0.0009595 -0.0009051 -0.0002716 0.0002653 0.0000153 0.0010948 0.0000178 0.0001230
0.0129677 -0.0253791 -0.0011082 0.0028649 -0.0011344 -0.0041000 0.0788248 -0.1719945 0.0004465 0.0018722 -0.0001844 0.0006641 -0.0009417 -0.0010279 -0.0002640 0.0001836 0.0000397 0.0010429 0.0000253 0.0001058
0.0040951 -0.0046537 -0.0135210 0.0176141 0.0004621 -0.0031461 0.0781959 -0.1679193 -0.0018125 0.0033723 -0.0001820 0.0006703 -0.0009476 -0.0009856 -0.0002579 0.0002846 0.0000498 0.0011585 -0.0000844 0.0002958
0.0009098 -0.0047890 -0.0010690 -0.0053923 0.0020318 -0.0010655 0.0755280 -0.1681110 -0.0036394 0.0046631 -0.0001765 0.0007462 -0.0009572 -0.0009103 -0.0002538 0.0004273 0.0000579 0.0013123 -0.0000979 0.0004035
0.0027573 -0.0071135 0.0087072 -0.0141150 -0.0003860 0.0075132 0.0827634 -0.1799056 -0.0038425 0.0049419 -0.0001722 0.0008709 -0.0009601 -0.0008061 -0.0002455 0.0005740 0.0000711 0.0014717 -0.0000675 0.0005321
-0.0003747 0.0052631 0.0019678 -0.0023864 0.0015323 0.0032683 0.0790203 -0.1749786 -0.0013661 0.0034835 -0.0001672 0.0010185 -0.0009705 -0.0006668 -0.0002409 0.0007457 0.0000741 0.0016574 -0.0000944 0.0007693
0.0055603 0.0057546 -0.0002827 -0.0069314 -0.0006449 -0.0039928 0.0763783 -0.1747278 0.0030238 0.0007093 -0.0001628 0.0010702 -0.0009750 -0.0006663 -0.0002392 0.0006783 0.0000818 0.0016126 -0.0000884 0.0007812
0.0032618 0.0084754 0.0090517 -0.0210082 0.0023348 -0.0036603 0.0812147 -0.1809995 0.0040762 -0.0001082 -0.0001627 0.0008973 -0.0009872 -0.0008718 -0.0002348 0.0003519 0.0000851 0.0013381 -0.0000435 0.0005359
-0.0105451 0.0111136 0.0103747 -0.0323928 0.0058176 -0.0066224 0.0772486 -0.1724889 0.0045676 -0.0005978 -0.0001655 0.0007080 -0.0009849 -0.0010260 -0.0002340 0.0002084 0.0000935 0.0012464 0.0000206 0.0003509
-0.0082465 -0.0016899 0.0029808 -0.0025135 0.0025450 0.0066858 0.0756983 -0.1802886 0.0026683 0.0006300 -0.0001669 0.0006676 -0.0009702 -0.0010271 -0.0002312 0.0002809 0.0001154 0.0013546 0.0000193 0.0003755
-0.0064818 0.0080109 0.0012393 0.0064511 0.0013982 0.0074854 0.0768011 -0.1804824 -0.0020035 0.0037658 -0.0001667 0.0007218 -0.0009615 -0.0009573 -0.0002301 0.0004349 0.0001193 0.0015100 0.0000075 0.0004650
0.0031305 0.0016932 -0.0028456 -0.0068780 -0.0007203 -0.0052671 0.0864037 -0.1937144 -0.0015819 0.0036214 -0.0001628 0.0008332 -0.0009448 -0.0008608 -0.0002265 0.0006132 0.0001198 0.0016594 -0.0000185 0.0005888
0.0149374 -0.0280734 0.0042748 -0.0121695 -0.0016496 -0.0003646 0.0838578 -0.1822219 -0.0071155 0.0073732 -0.0001591 0.0009695 -0.0009309 -0.0007502 -0.0002211 0.0007953 0.0001178 0.0018261 -0.0000391 0.0007421
0.0059913 -0.0206275 0.0005392 -0.0037300 0.0025000 -0.0050713 0.0758982 -0.1630980 -0.0065461 0.0071704 -0.0001559 0.0011266 -0.0009325 -0.0006133 -0.0002147 0.0008970 0.0001192 0.0019257 -0.0001365 0.0008843
-0.0036543 -0.0009968 0.0031682 -0.0101305 0.0034672 -0.0003580 0.0666035 -0.1563583 0.0002582 0.0026890 -0.0001555 0.0010696 -0.0009348 -0.0006987 -0.0002044 0.0006994 0.0001294 0.0017349 -0.0001947 0.0007472
-0.0068947 0.0176346 0.0117492 -0.0297834 0.0069624 -0.0035993 0.0695793 -0.1652887 0.0028246 0.0008038 -0.0001620 0.0008498 -0.0009360 -0.0009060 -0.0001953 0.0004864 0.0001318 0.0014778 -0.0001589 0.0005293
-0.0078517 0.0201023 0.0079133 -0.0257139 0.0027424 -0.0038600 0.0727707 -0.1732251 0.0030504 0.0005958 -0.0001639 0.0007804 -0.0009318 -0.0009434 -0.0001894 0.0005224 0.0001246 0.0014137 -0.0001677 0.0005078
0.0021343 0.0121259 0.0013162 -0.0147677 -0.0048448 0.0035949 0.0769248 -0.1757192 0.0007237 0.0021939 -0.0001567 0.0008524 -0.0009255 -0.0008782 -0.0001889 0.0006306 0.0001192 0.0014697 -0.0001520 0.0004903
0.0004188 0.0134438 0.0013525 -0.0012487 0.0008473 0.0052592 0.0793187 -0.1720552 0.0003363 0.0025732 -0.0001493 0.0009855 -0.0009273 -0.0007529 -0.0001875 0.0007765 0.0001211 0.0016136 -0.0000796 0.0004651
-0.0026618 -0.0050063 -0.0022088 0.0108755 -0.0034166 0.0156678 0.0792562 -0.1767336 0.0015936 0.0018921 -0.0001431 0.0011366 -0.0009184 -0.0006022 -0.0001879 0.0009563 0.0001241 0.0017751 -0.0000332 0.0005302
-0.0078222 0.0026705 0.0013279 0.0095153 -0.0017417 0.0177198 0.0823899 -0.1945800 0.0012293 0.0022795 -0.0001349 0.0012936 -0.0009063 -0.0004355 -0.0001853 0.0011535 0.0001275 0.0019523 -0.0000688 0.0006919
-0.0156036 0.0179144 0.0032174 0.0008816 -0.0022296 0.0108545 0.0780191 -0.1731826 0.0008140 0.0026497 -0.0001309 0.0013766 -0.0008988 -0.0003958 -0.0001828 0.0011133 0.0001208 0.0019216 -0.0001022 0.0006735
0.0020437 -0.0050221 -0.0088923 0.0039006 -0.0040420 -0.0002350 0.0778886 -0.1671548 0.0003252 0.0028504 -0.0001298 0.0012578 -0.0008852 -0.0005737 -0.0001815 0.0008269 0.0001247 0.0016399 -0.0000939 0.0004008
0.0092240 -0.0125230 -0.0050807 0.0054863 0.0012818 -0.0036037 0.0768289 -0.1585199 -0.0010217 0.0035518 -0.0001284 0.0011121 -0.0008682 -0.0007109 -0.0001781 0.0007007 0.0001391 0.0014883 -0.0001057 0.0002342
0.0068661 -0.0135837 0.0013628 -0.0106592 0.0014849 -0.0061553 0.0762588 -0.1613507 -0.0019438 0.0041308 -0.0001307 0.0011118 -0.0008664 -0.0006810 -0.0001728 0.0007619 0.0001440 0.0015214 -0.0002139 0.0002891
-0.0031348 -0.0062040 0.0202981 -0.0481277 0.0024418 -0.0010894 0.0757327 -0.1779543 -0.0026043 0.0046195 -0.0001321 0.0011927 -0.0008723 -0.0005940 -0.0001625 0.0008834 0.0001484 0.0016139 -0.0002333 0.0002891
-0.0045547 0.0053099 0.0145924 -0.0251527 0.0057810 -0.0010271 0.0797590 -0.1844855 0.0024715 0.0013986 -0.0001283 0.0013130 -0.0008800 -0.0004751 -0.0001551 0.0010386 0.0001535 0.0017326 -0.0001929 0.0003052
-0.0052807 0.0009098 -0.0033992 0.0058520 0.0022812 0.0038040 0.0801063 -0.1857713 0.0040414 0.0004869 -0.0001268 0.0014479 -0.0008937 -0.0003324 -0.0001533 0.0011880 0.0001497 0.0018785 -0.0001994 0.0004367
0.0020933 0.0037626 -0.0058285 0.0027561 -0.0063550 0.0075194 0.0781569 -0.1800742 0.0011723 0.0025044 -0.0001240 0.0015980 -0.0008961 -0.0001674 -0.0001552 0.0013581 0.0001482 0.0020462 -0.0001577 0.0005248
0.0015669 0.0110995 -0.0022272 -0.0028784 -0.0021987 -0.0030790 0.0753310 -0.1670299 0.0013732 0.0024009 -0.0001217 0.0015986 -0.0008970 -0.0001773 -0.0001550 0.0012508 0.0001578 0.0019511 -0.0000897 0.0004007
-0.0081754 0.0111316 -0.0085254 0.0076184 0.0025914 -0.0024182 0.0718879 -0.1605826 0.0034155 0.0009074 -0.0001258 0.0014177 -0.0008907 -0.0003617 -0.0001511 0.0009499 0.0001651 0.0016694 -0.0000385 0.0001570
-0.0076320 0.0120982 0.0030409 0.0048443 0.0054261 0.0077444 0.0692635 -0.1658376 0.0016124 0.0019599 -0.0001291 0.0013067 -0.0008799 -0.0004366 -0.0001505 0.0008690 0.0001639 0.0015781 -0.0000466 0.0000529
-0.0109090 0.0103705 0.0061999 -0.0049525 0.0007057 0.0132793 0.0724451 -0.1623346 -0.0006698 0.0034410 -0.0001329 0.0013170 -0.0008762 -0.0003886 -0.0001546 0.0009574 0.0001609 0.0016471 -0.0000416 0.0000742
0.0030566 -0.0103256 -0.0094822 -0.0085891 -0.0099431 0.0123622 0.0759484 -0.1641046 -0.0028770 0.0049294 -0.0001347 0.0013796 -0.0008678 -0.0002711 -0.0001503 0.0011000 0.0001638 0.0017843 -0.0000215 0.0001684
0.0102239 -0.0178083 -0.0159501 0.0179022 -0.0096184 0.0138040 0.0802997 -0.1692007 -0.0072619 0.0078882 -0.0001342 0.0014767 -0.0008506 -0.0001458 -0.0001426 0.0012562 0.0001674 0.0019462 -0.0000371 0.0003113
-0.0021567 0.0110453 -0.0146410 0.0197657 -0.0126157 0.0169496 0.0770264 -0.1644398 -0.0071632 0.0079389 -0.0001339 0.0015973 -0.0008498 -0.0000150 -0.0001463 0.0014250 0.0001623 0.0020818 -0.0001616 0.0005494
-0.0070341 0.0135686 0.0011684 -0.0086625 -0.0006328 0.0021317 0.0746881 -0.1724577 -0.0040849 0.0060582 -0.0001331 0.0017363 -0.0008590 0.0001327 -0.0001473 0.0015384 0.0001559 0.0021779 -0.0001850 0.0006183
-0.0065929 -0.0001823 0.0050778 -0.0025092 0.0029122 0.0017379 0.0827001 -0.1900267 -0.0005830 0.0037285 -0.0001360 0.0016771 -0.0008646 0.0000684 -0.0001425 0.0013381 0.0001732 0.0020447 -0.0001056 0.0004562
-0.0121677 0.0048496 -0.0058108 0.0086907 0.0013933 -0.0024912 0.0834737 -0.1933264 0.0005344 0.0027707 -0.0001400 0.0014333 -0.0008705 -0.0001439 -0.0001375 0.0010286 0.0001868 0.0017909 -0.0001079 0.0003023
0.0003056 0.0134563 -0.0060586 -0.0104456 0.0049438 -0.0294520 0.0762366 -0.1781874 0.0002719 0.0028064 -0.0001396 0.0013081 -0.0008740 -0.0002444 -0.0001403 0.0009540 0.0001756 0.0016932 -0.0000999 0.0001876
-0.0008475 0.0219602 -0.0015367 -0.0047411 0.0039486 -0.0111235 0.0724272 -0.1662243 0.0032608 0.0008489 -0.0001399 0.0013057 -0.0008963 -0.0002227 -0.0001527 0.0010112 0.0001645 0.0017268 -0.0000528 0.0001265
-0.0097265 0.0134570 -0.0030284 0.0033588 0.0027642 0.0030148 0.0679356 -0.1578832 0.0036771 0.0006327 -0.0001451 0.0013495 -0.0008959 -0.0001367 -0.0001546 0.0011374 0.0001641 0.0018611 -0.0000093 0.0001632
-0.0106150 0.0083557 0.0044086 0.0077506 0.0013706 0.0150454 0.0661149 -0.1572322 -0.0012140 0.0039111 -0.0001472 0.0014268 -0.0008807 -0.0000345 -0.0001521 0.0012794 0.0001715 0.0020209 -0.0000160 0.0002833
-0.0155940 0.0140602 0.0048299 0.0040202 0.0004336 0.0165604 0.0725055 -0.1708695 -0.0047005 0.0062886 -0.0001472 0.0015319 -0.0008826 0.0000819 -0.0001593 0.0014243 0.0001690 0.0022021 -0.0000259 0.0003868
0.0031074 -0.0047740 0.0030652 -0.0062771 -0.0034884 0.0027552 0.0754554 -0.1727351 -0.0027052 0.0050972 -0.0001500 0.0016221 -0.0008876 0.0001224 -0.0001621 0.0014016 0.0001663 0.0022332 -0.0000415 0.0003515
0.0059860 -0.0078073 0.0049665 -0.0157406 -0.0071559 0.0101748 0.0787144 -0.1639943 0.0005080 0.0028823 -0.0001561 0.0014899 -0.0008952 -0.0000746 -0.0001674 0.0011339 0.0001544 0.0019979 -0.0000699 0.0001403
-0.0051740 0.0078876 0.0125746 -0.0544516 -0.0060512 0.0168583 0.0772101 -0.1604362 -0.0031737 0.0050393 -0.0001669 0.0012655 -0.0009175 -0.0002785 -0.0001760 0.0009358 0.0001302 0.0017737 -0.0002038 0.0000221
-0.0092296 0.0153552 0.0014586 0.0034722 0.0042043 0.0003603 0.0692781 -0.1629408 -0.0090312 0.0087722 -0.0001779 0.0011729 -0.0009416 -0.0003384 -0.0001791 0.0009155 0.0001089 0.0016833 -0.0002668 -0.0000486
-0.0076729 0.0141823 0.0055666 0.0100812 0.0151772 -0.0253760 0.0676173 -0.1657622 -0.0007775 0.0033982 -0.0001914 0.0011604 -0.0009546 -0.0003301 -0.0001813 0.0009979 0.0000961 0.0016977 -0.0002259 -0.0000540
-0.0044149 0.0057971 0.0082113 -0.0037030 0.0086269 -0.0151105 0.0628078 -0.1530234 0.0049735 -0.0002647 -0.0002045 0.0012117 -0.0009651 -0.0002196 -0.0001841 0.0011482 0.0000944 0.0018073 -0.0002212 0.0000631
-0.0026130 0.0163023 0.0075201 -0.0206229 0.0014857 -0.0131475 0.0615033 -0.1515323 0.0056031 -0.0005436 -0.0002148 0.0012884 -0.0009651 -0.0001070 -0.0001914 0.0012843 0.0000969 0.0019450 -0.0002024 0.0001051
-0.0044653 0.0243301 0.0123498 -0.0314667 0.0030716 -0.0167436 0.0711384 -0.1666154 0.0036134 0.0009186 -0.0002194 0.0013883 -0.0009781 0.0000219 -0.0001988 0.0013932 0.0000993 0.0020640 -0.0001753 0.0000829
-0.0097388 0.0163029 0.0011046 -0.0043825 0.0036782 -0.0100283 0.0687419 -0.1629394 0.0028817 0.0013879 -0.0002234 0.0013160 -0.0009896 -0.0000893 -0.0002080 0.0012281 0.0000949 0.0019089 -0.0001264 -0.0001143
-0.0081691 0.0111139 0.0021554 0.0086273 0.0094374 -0.0104702 0.0581077 -0.1466415 0.0061969 -0.0009626 -0.0002333 0.0010898 -0.0009970 -0.0003612 -0.0002137 0.0009707 0.0000783 0.0016478 -0.0001226 -0.0003322
-0.0053411 0.0119136 0.0040496 0.0020786 0.0043370 0.0019843 0.0667051 -0.1552942 0.0016161 0.0019540 -0.0002431 0.0009979 -0.0010109 -0.0004380 -0.0002188 0.0009430 0.0000538 0.0015723 -0.0001508 -0.0003976
0.0005725 0.0074527 0.0007887 -0.0154116 -0.0031637 -0.0030645 0.0769339 -0.1710011 -0.0035525 0.0053752 -0.0002549 0.0010254 -0.0010146 -0.0004195 -0.0002252 0.0010131 0.0000423 0.0015614 -0.0001626 -0.0004028
0.0043529 0.0066494 0.0029105 -0.0084777 -0.0064098 -0.0037390 0.0797310 -0.1733511 -0.0020427 0.0045003 -0.0002648 0.0010919 -0.0010029 -0.0003448 -0.0002255 0.0011772 0.0000401 0.0016240 -0.0001628 -0.0002397
0.0024279 0.0023512 -0.0001375 -0.0080400 -0.0147357 0.0224515 0.0771647 -0.1644708 -0.0021103 0.0047122 -0.0002708 0.0011945 -0.0009957 -0.0002085 -0.0002222 0.0013680 0.0000401 0.0017465 -0.0002321 0.0000479
0.0017512 -0.0108446 0.0010825 -0.0144094 -0.0015216 0.0052318 0.0735672 -0.1590068 -0.0047443 0.0066356 -0.0002764 0.0013314 -0.0009987 -0.0000291 -0.0002189 0.0015254 0.0000467 0.0018937 -0.0002389 0.0001907
-0.0024782 0.0035359 0.0031708 0.0011824 0.0110363 -0.0203993 0.0766106 -0.1716204 -0.0025686 0.0053008 -0.0002809 0.0013428 -0.0010015 -0.0000193 -0.0002189 0.0014013 0.0000675 0.0018392 -0.0001624 0.0000962
-0.0159151 0.0260296 -0.0004267 0.0074326 -0.0024759 0.0083089 0.0740065 -0.1710243 0.0017577 0.0023758 -0.0002819 0.0011754 -0.0010070 -0.0001905 -0.0002183 0.0011188 0.0000925 0.0016251 -0.0001947 -0.0000100
-0.0030556 0.0154642 -0.0060848 0.0100389 -0.0042164 0.0058705 0.0708830 -0.1665779 0.0028163 0.0016334 -0.0002864 0.0010748 -0.0010007 -0.0002614 -0.0002124 0.0010858 0.0001025 0.0015818 -0.0002077 -0.0000315
0.0070427 -0.0020492 -0.0007864 0.0059267 -0.0032736 0.0036252 0.0672219 -0.1543717 0.0038307 0.0010223 -0.0002892 0.0011101 -0.0010052 -0.0001974 -0.0002002 0.0012003 0.0001099 0.0016646 -0.0001565 0.0000035
0.0001361 -0.0026228 0.0017681 -0.0009331 -0.0069798 0.0137157 0.0636083 -0.1481711 0.0026803 0.0018735 -0.0002880 0.0012065 -0.0010118 -0.0001071 -0.0001952 0.0013503 0.0001141 0.0017846 -0.0000958 0.0000937
0.0010959 -0.0051847 0.0029601 -0.0002188 0.0005189 0.0031198 0.0637033 -0.1563245 0.0009895 0.0031148 -0.0002882 0.0013306 -0.0010082 -0.0000067 -0.0002017 0.0015046 0.0001075 0.0019234 -0.0000787 0.0002572
-0.0034758 0.0061921 0.0068808 -0.0127532 0.0025342 -0.0002372 0.0665666 -0.1602275 -0.0015309 0.0049029 -0.0002871 0.0014684 -0.0010073 0.0001350 -0.0002111 0.0016560 0.0000998 0.0020744 -0.0000797 0.0004327
-0.0050070 0.0124164 0.0015017 -0.0030250 0.0064190 -0.0153740 0.0694752 -0.1647152 0.0011384 0.0031975 -0.0002900 0.0014865 -0.0009976 0.0001075 -0.0002130 0.0015596 0.0001062 0.0019988 -0.0000401 0.0003749
-0.0016303 0.0044546 -0.0043982 0.0089917 0.0086801 -0.0187533 0.0756160 -0.1751163 0.0047478 0.0007229 -0.0002943 0.0013401 -0.0009841 -0.0000766 -0.0002086 0.0013035 0.0001155 0.0017597 -0.0000339 0.0002576
-0.0026028 0.0047964 -0.0086251 -0.0007418 -0.0018839 0.0022223 0.0803211 -0.1810749 0.0016726 0.0026692 -0.0002964 0.0012645 -0.0009693 -0.0001483 -0.0002098 0.0012580 0.0001151 0.0016950 -0.0000981 0.0003204
-0.0048969 0.0090775 0.0024861 -0.0206592 0.0025007 -0.0135897 0.0798174 -0.1685367 -0.0050988 0.0071418 -0.0002975 0.0013026 -0.0009695 -0.0001045 -0.0002137 0.0013421 0.0001171 0.0017539 -0.0001220 0.0003988
-0.0044391 0.0130750 0.0001427 -0.0085316 -0.0056841 0.0029906 0.0752784 -0.1649935 -0.0047180 0.0069827 -0.0002997 0.0013853 -0.0009773 -0.0000027 -0.0002141 0.0014638 0.0001250 0.0018569 -0.0001104 0.0004868
-0.0008059 -0.0010939 0.0002436 -0.0099574 -0.0151949 0.0147110 0.0654967 -0.1665756 0.0012417 0.0032029 -0.0003020 0.0014935 -0.0009729 0.0001110 -0.0002141 0.0015983 0.0001342 0.0019818 -0.0001353 0.0006284
0.0108012 -0.0184594 0.0042155 -0.0224001 -0.0023293 0.0028168 0.0645144 -0.1696451 -0.0021775 0.0055576 -0.0003026 0.0016101 -0.0009713 0.0002510 -0.0002173 0.0017476 0.0001358 0.0021352 -0.0001436 0.0007921
0.0012185 0.0070327 0.0095081 -0.0225807 0.0026106 0.0046094 0.0519098 -0.1497132 -0.0008231 0.0046984 -0.0003059 0.0016074 -0.0009881 0.0002691 -0.0002183 0.0016530 0.0001436 0.0020637 -0.0001299 0.0007692
-0.0053381 0.0109808 0.0073903 -0.0105662 0.0044282 -0.0100193 0.0582070 -0.1586310 0.0032335 0.0018996 -0.0003130 0.0014193 -0.0009862 0.0000624 -0.0002157 0.0013447 0.0001549 0.0017925 -0.0000708 0.0005516
-0.0002659 0.0003000 0.0033507 0.0037302 0.0110920 -0.0282913 0.0739552 -0.1683731 0.0028565 0.0020233 -0.0003182 0.0012822 -0.0009776 -0.0000616 -0.0002208 0.0012464 0.0001552 0.0016948 -0.0000696 0.0004931
0.0011136 -0.0112220 -0.0025356 0.0113146 0.0081053 -0.0152321 0.0743766 -0.1594581 0.0034533 0.0016255 -0.0003239 0.0012701 -0.0009898 -0.0000228 -0.0002300 0.0013321 0.0001458 0.0017575 -0.0000993 0.0005686
0.0156406 -0.0473769 -0.0013012 0.0109393 0.0045506 -0.0017192 0.0738790 -0.1627119 0.0026462 0.0022003 -0.0003335 0.0013129 -0.0009902 0.0000493 -0.0002295 0.0014734 0.0001436 0.0018517 -0.0000258 0.0006643
0.0023792 -0.0092425 0.0087056 -0.0079080 0.0033353 -0.0001417 0.0660597 -0.1493672 0.0031504 0.0019569 -0.0003412 0.0013979 -0.0009801 0.0001533 -0.0002229 0.0016211 0.0001505 0.0019613 0.0000281 0.0007861
-0.0031360 0.0049667 0.0047579 -0.0155337 -0.0024212 -0.0014357 0.0657228 -0.1509939 0.0025525 0.0024495 -0.0003458 0.0014943 -0.0009648 0.0002588 -0.0002264 0.0017675 0.0001467 0.0021131 -0.0000112 0.0009541
-0.0035355 -0.0011533 -0.0069349 0.0066005 0.0026481 -0.0169958 0.0741792 -0.1558521 0.0016240 0.0031471 -0.0003486 0.0015410 -0.0009651 0.0002996 -0.0002346 0.0017483 0.0001492 0.0021120 -0.0000198 0.0010061
-0.0035841 -0.0001138 -0.0091567 0.0085533 -0.0046667 0.0005385 0.0712271 -0.1503997 0.0002520 0.0039294 -0.0003574 0.0014029 -0.0009585 0.0001718 -0.0002320 0.0015020 0.0001576 0.0018964 0.0000093 0.0008188
-0.0001711 -0.0005670 -0.0038593 -0.0008905 -0.0081804 0.0091654 0.0739108 -0.1681824 -0.0002416 0.0040608 -0.0003615 0.0012189 -0.0009323 0.0000438 -0.0002253 0.0013534 0.0001632 0.0017639 -0.0000099 0.0006933
0.0089393 -0.0147729 0.0065958 -0.0094830 -0.0032033 0.0083111 0.0864163 -0.1999406 -0.0028066 0.0057053 -0.0003632 0.0011737 -0.0009242 0.0000939 -0.0002250 0.0013923 0.0001708 0.0018062 -0.0000540 0.0006896
0.0110840 -0.0181312 0.0072028 -0.0069481 -0.0053835 0.0138008 0.0788326 -0.1879122 -0.0023411 0.0054535 -0.0003684 0.0012018 -0.0009426 0.0001898 -0.0002296 0.0014639 0.0001661 0.0018784 -0.0000720 0.0007104
0.0020765 0.0035276 -0.0007590 0.0028147 -0.0044604 0.0048921 0.0703577 -0.1684401 0.0012344 0.0031796 -0.0003742 0.0012539 -0.0009501 0.0002381 -0.0002329 0.0015229 0.0000923 0.0017426 -0.0000588 0.0009002
0.0033785 -0.0003460 -0.0023391 -0.0040076 -0.0113494 0.0174328 0.0711199 -0.1521585 0.0007036 0.0035735 -0.0003939 0.0012660 -0.0009622 0.0002172 -0.0002481 0.0015555 -0.0001537 0.0010339 0.0003340 0.0019575
0.0109339 -0.0200108 -0.0018309 -0.0032884 -0.0116736 0.0139011 0.0733917 -0.1556958 0.0004953 0.0037730 -0.0004255 0.0012473 -0.0010065 0.0001756 -0.0002796 0.0015443 -0.0004013 0.0002817 0.0007385 0.0031256
0.0140285 -0.0313728 0.0054611 -0.0078526 0.0046321 -0.0054751 0.0679102 -0.1579632 0.0033763 0.0018101 -0.0004492 0.0011238 -0.0010447 -0.0000067 -0.0003113 0.0012556 -0.0004970 -0.0001228 0.0008127 0.0036043
-0.0003397 -0.0053608 0.0090473 -0.0217998 0.0117612 -0.0173232 0.0551092 -0.1372105 0.0059066 -0.0000802 -0.0004460 0.0009427 -0.0010368 -0.0002292 -0.0003199 0.0008929 -0.0004199 -0.0002398 0.0008360 0.0032596
-0.0057742 0.0025401 -0.0016979 -0.0133002 0.0070005 -0.0146272 0.0578128 -0.1467296 0.0048373 0.0004650 -0.0004275 0.0009023 -0.0009952 -0.0002342 -0.0003109 0.0008524 -0.0001919 0.0001992 0.0008656 0.0024336
0.0052315 -0.0070497 -0.0019821 -0.0118108 0.0055067 -0.0131549 0.0851925 -0.1947434 0.0020845 0.0022285 -0.0004121 0.0009581 -0.0009707 -0.0001213 -0.0003053 0.0009880 -0.0000453 0.0007324 0.0008538 0.0019845
0.0068889 -0.0096238 -0.0032362 -0.0081082 0.0113355 -0.0345009 0.0863531 -0.1866621 0.0002335 0.0034655 -0.0004060 0.0010465 -0.0009613 -0.0000000 -0.0002948 0.0011536 0.0000275 0.0011530 0.0008297 0.0017687
0.0028196 -0.0131377 -0.0075039 -0.0013839 0.0063829 -0.0181813 0.0721623 -0.1632394 -0.0015843 0.0047230 -0.0003993 0.0011513 -0.0009481 0.0001216 -0.0002846 0.0013129 0.0000864 0.0015097 0.0007745 0.0016904
0.0000332 -0.0021428 -0.0003853 0.0108023 0.0030370 0.0074633 0.0661054 -0.1580621 -0.0071965 0.0084847 -0.0003891 0.0012702 -0.0009342 0.0002685 -0.0002812 0.0014817 0.0001122 0.0017594 0.0006624 0.0016646
-0.0051830 0.0039947 -0.0060989 0.0211994 0.0006017 0.0127894 0.0686427 -0.1588328 -0.0039804 0.0064715 -0.0003859 0.0013394 -0.0009263 0.0003556 -0.0002761 0.0014732 0.0001385 0.0018193 0.0005844 0.0015710
-0.0007883 0.0102579 -0.0089360 0.0111620 -0.0016316 0.0027863 0.0725276 -0.1661565 -0.0005052 0.0040565 -0.0003894 0.0011849 -0.0009162 0.0002345 -0.0002692 0.0012252 0.0001622 0.0016375 0.0005074 0.0013219
0.0029051 0.0107036 0.0018127 -0.0065812 -0.0143417 0.0172429 0.0751961 -0.1536678 -0.0025414 0.0051482 -0.0003911 0.0009721 -0.0008906 0.0000960 -0.0002616 0.0010739 0.0001892 0.0014950 0.0005148 0.0010143
0.0001262 0.0033276 -0.0135527 0.0162312 -0.0102197 0.0113822 0.0724631 -0.1516356 0.0003466 0.0031941 -0.0003856 0.0009130 -0.0008749 0.0001214 -0.0002494 0.0011340 0.0002210 0.0015430 0.0004740 0.0009008
0.0038834 -0.0098410 -0.0014410 0.0047306 0.0078565 -0.0067265 0.0704646 -0.1715586 0.0022589 0.0019424 -0.0003798 0.0009267 -0.0008719 0.0001792 -0.0002351 0.0012596 0.0002470 0.0016925 0.0004126 0.0008554
0.0010504 -0.0132398 0.0139761 -0.0246235 0.0144113 -0.0187393 0.0716669 -0.1680695 0.0035974 0.0010971 -0.0003790 0.0009665 -0.0008722 0.0002168 -0.0002279 0.0013665 0.0002458 0.0017194 0.0004469 0.0007758
-0.0054150 0.0004987 0.0003267 -0.0007542 0.0153327 -0.0379081 0.0644035 -0.1596399 0.0056646 -0.0001773 -0.0003740 0.0010514 -0.0008767 0.0002607 -0.0002331 0.0014545 0.0002371 0.0017457 0.0004903 0.0007534
0.0021685 0.0101048 -0.0090887 0.0103241 0.0093566 -0.0306344 0.0707442 -0.1687514 0.0053972 0.0001049 -0.0003633 0.0011759 -0.0008772 0.0003684 -0.0002333 0.0015787 0.0002416 0.0018554 0.0005530 0.0007296
0.0026530 0.0029333 -0.0026307 0.0048819 0.0046512 -0.0174409 0.0798618 -0.1733862 0.0042848 0.0007831 -0.0003574 0.0011401 -0.0008690 0.0003351 -0.0002241 0.0014630 0.0002709 0.0017508 0.0006148 0.0004985
-0.0135305 0.0098887 0.0039088 -0.0053168 -0.0053997 0.0071738 0.0713377 -0.1542429 0.0031068 0.0013461 -0.0003532 0.0009334 -0.0008465 0.0001529 -0.0002115 0.0012203 0.0003218 0.0015548 0.0006183 0.0001716
-0.0144825 0.0105124 0.0063918 -0.0041435 -0.0013157 0.0198572 0.0666126 -0.1563524 -0.0001780 0.0033786 -0.0003499 0.0008128 -0.0008260 0.0000570 -0.0002011 0.0011853 0.0003443 0.0014648 0.0006052 -0.0000022
0.0043039 -0.0252992 0.0044064 0.0042348 -0.0007928 0.0165627 0.0688081 -0.1643397 -0.0028426 0.0051454 -0.0003463 0.0008283 -0.0008141 0.0000746 -0.0001995 0.0012841 0.0003433 0.0015061 0.0005941 -0.0000264
0.0100419 -0.0209449 -0.0008961 0.0036640 -0.0000182 -0.0036551 0.0688242 -0.1587493 -0.0052783 0.0068439 -0.0003430 0.0009163 -0.0007983 0.0001810 -0.0001934 0.0014602 0.0003647 0.0016644 0.0005618 0.0000648
0.0070831 -0.0064784 -0.0049377 0.0055807 -0.0043532 0.0045497 0.0738855 -0.1585150 -0.0020647 0.0049004 -0.0003355 0.0010427 -0.0007749 0.0003303 -0.0001772 0.0016913 0.0004044 0.0018823 0.0005449 0.0001542
0.0030259 -0.0033021 -0.0085773 0.0112112 -0.0093707 0.0130537 0.0693406 -0.1522274 -0.0007153 0.0041997 -0.0003274 0.0011932 -0.0007585 0.0005600 -0.0001558 0.0019800 0.0004507 0.0021916 0.0004151 0.0003443
-0.0091014 0.0073206 0.0020789 -0.0008657 -0.0011787 0.0036281 0.0634185 -0.1605757 -0.0012052 0.0046735 -0.0003207 0.0012897 -0.0007311 0.0007206 -0.0001325 0.0020665 0.0005235 0.0023339 0.0003584 0.0002917
-0.0152823 0.0180578 0.0121857 -0.0140747 0.0047223 -0.0023672 0.0833083 -0.2046883 0.0031614 0.0017821 -0.0003187 0.0011906 -0.0007075 0.0006542 -0.0001126 0.0018630 0.0005056 0.0020006 0.0005984 0.0004906
-0.0113662 0.0142302 0.0058576 -0.0039949 0.0029410 -0.0053250 0.0798167 -0.1888977 0.0038063 0.0012353 -0.0003379 0.0009925 -0.0007372 0.0004496 -0.0001138 0.0016616 0.0002945 0.0009190 0.0010318 0.0013220
0.0013700 0.0127083 -0.0020832 -0.0015563 -0.0014518 -0.0052952 0.0735963 -0.1779023 0.0017182 0.0025746 -0.0003695 0.0008789 -0.0007876 0.0002715 -0.0001353 0.0015695 -0.0000136 -0.0000977 0.0011610 0.0020919
-0.0005356 0.0187036 0.0040369 -0.0146107 0.0050669 -0.0078950 0.0740889 -0.1788698 0.0010872 0.0031114 -0.0003615 0.0009930 -0.0007734 0.0004274 -0.0001359 0.0017165 0.0001743 0.0007462 0.0009528 0.0018035
-0.0105365 0.0104270 0.0032189 -0.0059925 0.0049891 -0.0064504 0.0616726 -0.1497880 0.0006535 0.0036216 -0.0003169 0.0012657 -0.0006845 0.0008478 -0.0001033 0.0021158 0.0005829 0.0022204 0.0008286 0.0007536
-0.0002376 -0.0048266 0.0112655 -0.0095107 0.0039478 0.0003603 0.0594515 -0.1463153 0.0034479 0.0019884 -0.0002904 0.0014828 -0.0006349 0.0011275 -0.0000837 0.0023829 0.0005772 0.0025666 0.0010648 0.0011511
-0.0031817 0.0150778 0.0210255 -0.0355451 0.0025003 0.0034770 0.0737866 -0.1622902 0.0056936 0.0006349 -0.0003059 0.0015609 -0.0006666 0.0011079 -0.0001031 0.0023103 0.0002909 0.0015587 0.0012735 0.0023676
0.0035362 0.0008278 0.0071407 -0.0114279 0.0027106 -0.0049581 0.0738246 -0.1654436 0.0034406 0.0019998 -0.0003379 0.0014012 -0.0007039 0.0008055 -0.0001264 0.0019425 0.0000127 0.0004631 0.0012713 0.0030859
0.0113193 -0.0191035 0.0013917 0.0053060 0.0070232 -0.0200873 0.0758596 -0.1697418 0.0032366 0.0020006 -0.0003252 0.0012975 -0.0006620 0.0007322 -0.0001137 0.0017924 0.0002863 0.0012571 0.0011005 0.0024899
-0.0042142 0.0113130 0.0021290 -0.0054825 0.0009765 -0.0142655 0.0811449 -0.1799466 0.0015928 0.0031258 -0.0002841 0.0014166 -0.0005706 0.0010392 -0.0000780 0.0020617 0.0006750 0.0024896 0.0008582 0.0010551
-0.0059003 0.0093007 0.0036447 -0.0066760 0.0016601 -0.0091534 0.0755308 -0.1679623 0.0012423 0.0034634 -0.0002579 0.0015633 -0.0005177 0.0012973 -0.0000536 0.0022993 0.0006925 0.0028216 0.0008057 0.0012093
0.0014665 -0.0066902 -0.0050376 0.0088418 -0.0031829 0.0014235 0.0671941 -0.1487231 0.0013530 0.0034797 -0.0002656 0.0016572 -0.0005327 0.0013497 -0.0000578 0.0023465 0.0005192 0.0021601 0.0013480 0.0024238
-0.0053354 -0.0000027 -0.0076417 0.0109947 -0.0044789 0.0047306 0.0634875 -0.1515880 0.0003667 0.0041569 -0.0002997 0.0016556 -0.0005839 0.0012469 -0.0000810 0.0022933 0.0001635 0.0010603 0.0014673 0.0031854
-0.0052251 0.0132367 0.0056010 -0.0148232 0.0049700 -0.0107962 0.0662814 -0.1651484 0.0008123 0.0039481 -0.0003185 0.0016956 -0.0006055 0.0012436 -0.0000946 0.0022544 0.0000591 0.0010465 0.0011283 0.0034916
-0.0063277 0.0146568 0.0113347 -0.0290099 0.0078937 -0.0192499 0.0658566 -0.1715906 0.0003545 0.0042185 -0.0002906 0.0017149 -0.0005766 0.0013208 -0.0000790 0.0021600 0.0004266 0.0018083 0.0012310 0.0027569
0.0050430 -0.0178668 0.0043577 -0.0132757 0.0031086 -0.0132109 0.0684603 -0.1764401 0.0003768 0.0040348 -0.0002550 0.0016387 -0.0005069 0.0013576 -0.0000420 0.0021381 0.0006851 0.0024432 0.0009863 0.0015568
0.0110637 -0.0248075 0.0032611 -0.0151658 0.0005762 -0.0103565 0.0724357 -0.1653915 0.0022353 0.0027560 -0.0002410 0.0016123 -0.0004495 0.0014363 -0.0000135 0.0022540 0.0007435 0.0027540 0.0008031 0.0010427
0.0004341 -0.0094468 0.0041131 -0.0167045 -0.0026188 0.0011171 0.0741804 -0.1674394 0.0047051 0.0011665 -0.0002334 0.0016660 -0.0004334 0.0015346 -0.0000030 0.0023768 0.0007514 0.0028187 0.0008064 0.0011572
-0.0030184 -0.0057938 0.0089658 -0.0153510 0.0057069 0.0009203 0.0664373 -0.1561564 0.0047994 0.0011527 -0.0002328 0.0017604 -0.0004347 0.0016455 0.0000002 0.0025321 0.0007272 0.0028773 0.0007754 0.0014524
-0.0069112 0.0078970 0.0086759 -0.0078805 0.0085022 -0.0067393 0.0610914 -0.1411726 0.0068139 -0.0000974 -0.0002318 0.0018538 -0.0004279 0.0017588 0.0000044 0.0026934 0.0007334 0.0029573 0.0008468 0.0014676
-0.0068477 0.0068969 0.0067056 -0.0122109 0.0029488 -0.0096033 0.0632255 -0.1508638 0.0062537 0.0003557 -0.0002298 0.0019515 -0.0004161 0.0018467 0.0000113 0.0027834 0.0007298 0.0029719 0.0008815 0.0014674
-0.0035122 0.0078040 0.0097552 -0.0281796 0.0068197 -0.0160469 0.0721425 -0.1568450 0.0057144 0.0006139 -0.0002320 0.0018636 -0.0004082 0.0017700 0.0000180 0.0026053 0.0007351 0.0027598 0.0009077 0.0013573
0.0067847 -0.0019799 -0.0069556 -0.0036150 0.0048064 -0.0229535 0.0716401 -0.1535612 0.0050558 0.0008055 -0.0002336 0.0016469 -0.0003841 0.0016308 0.0000210 0.0023996 0.0007698 0.0025440 0.0009910 0.0010543
0.0109618 -0.0162050 -0.0133699 0.0024441 -0.0005940 -0.0111663 0.0628626 -0.1526404 0.0001289 0.0039082 -0.0002309 0.0015783 -0.0003627 0.0016264 0.0000276 0.0024036 0.0008015 0.0025326 0.0010287 0.0008641
-0.0001900 -0.0037411 0.0021828 0.0098692 0.0002455 0.0120964 0.0608786 -0.1553688 -0.0033615 0.0061844 -0.0002250 0.0016070 -0.0003495 0.0016813 0.0000338 0.0025013 0.0008091 0.0025949 0.0009987 0.0009101
-0.0093910 0.0042498 0.0032022 0.0123527 0.0016002 0.0093637 0.0577060 -0.1441527 -0.0019971 0.0053487 -0.0002191 0.0016936 -0.0003425 0.0018232 0.0000352 0.0026646 0.0008135 0.0027284 0.0009872 0.0010041
0.0003334 -0.0007358 -0.0008545 0.0000174 -0.0026470 0.0099606 0.0610314 -0.1411740 0.0008005 0.0036076 -0.0002134 0.0018006 -0.0003357 0.0019628 0.0000448 0.0028161 0.0008189 0.0028478 0.0009663 0.0010991
0.0125152 -0.0222520 -0.0071807 0.0111513 -0.0082707 0.0208036 0.0715463 -0.1447142 0.0004568 0.0039279 -0.0002102 0.0018983 -0.0003225 0.0020191 0.0000584 0.0028586 0.0008080 0.0028117 0.0009454 0.0011330
-0.0020472 -0.0033145 -0.0098113 0.0169677 -0.0035042 0.0037728 0.0679591 -0.1430867 0.0018549 0.0029160 -0.0002165 0.0017928 -0.0003163 0.0019224 0.0000716 0.0026774 0.0007957 0.0025507 0.0009139 0.0010943
-0.0037695 0.0032077 -0.0008264 0.0097223 0.0059793 -0.0022647 0.0549465 -0.1446115 0.0032765 0.0017581 -0.0002169 0.0015956 -0.0003141 0.0018002 0.0000789 0.0025189 0.0008009 0.0023700 0.0009577 0.0009563
0.0084643 -0.0273501 0.0067829 -0.0007888 0.0071686 -0.0007963 0.0613264 -0.1501478 0.0034317 0.0015718 -0.0002114 0.0015586 -0.0003122 0.0017872 0.0000785 0.0025327 0.0008149 0.0023677 0.0010098 0.0008758
-0.0022010 -0.0094169 0.0056359 -0.0041007 0.0033581 -0.0040338 0.0606583 -0.1471148 0.0041085 0.0011512 -0.0002087 0.0016018 -0.0003074 0.0018347 0.0000746 0.0026397 0.0008172 0.0024325 0.0010355 0.0009478
0.0020163 0.0096087 0.0060363 -0.0167429 0.0017435 -0.0086976 0.0677535 -0.1604396 0.0003478 0.0036885 -0.0002042 0.0016924 -0.0003017 0.0019381 0.0000737 0.0028068 0.0008153 0.0025710 0.0010902 0.0010251
0.0054948 0.0038244 0.0028564 -0.0176455 0.0062985 -0.0189548 0.0726309 -0.1626456 0.0008600 0.0034579 -0.0002013 0.0018127 -0.0003048 0.0020688 0.0000756 0.0029572 0.0008197 0.0027293 0.0011449 0.0011187
0.0018175 -0.0036822 -0.0016317 -0.0033383 0.0010760 -0.0075599 0.0658949 -0.1508291 0.0023221 0.0025506 -0.0001993 0.0018410 -0.0003039 0.0020907 0.0000740 0.0028924 0.0008246 0.0026852 0.0011881 0.0011083
-0.0073790 0.0153438 0.0003442 0.0125626 0.0008285 0.0110367 0.0662691 -0.1592683 -0.0003832 0.0041912 -0.0001984 0.0016908 -0.0002895 0.0019363 0.0000773 0.0026512 0.0008343 0.0024611 0.0011911 0.0009896
-0.0176817 0.0223648 0.0028314 0.0080564 -0.0009886 0.0163611 0.0694023 -0.1560483 -0.0004339 0.0040908 -0.0001968 0.0015770 -0.0002813 0.0018559 0.0000750 0.0025748 0.0008311 0.0023980 0.0011923 0.0009615
-0.0047800 0.0108550 0.0157527 -0.0362960 -0.0100266 0.0150675 0.0678567 -0.1564837 0.0026160 0.0021067 -0.0001958 0.0015836 -0.0002739 0.0019127 0.0000728 0.0026737 0.0008241 0.0024849 0.0011884 0.0010480
0.0013555 0.0150740 0.0103077 -0.0267089 -0.0061937 0.0102536 0.0683685 -0.1608693 0.0041029 0.0012117 -0.0001950 0.0016696 -0.0002685 0.0020019 0.0000735 0.0028399 0.0008340 0.0026437 0.0011989 0.0012407
-0.0027822 0.0196370 -0.0082977 0.0016930 -0.0012213 -0.0053984 0.0708749 -0.1682272 0.0001833 0.0038993 -0.0001932 0.0018050 -0.0002729 0.0021178 0.0000755 0.0030244 0.0008473 0.0028298 0.0011575 0.0015233
-0.0002075 -0.0024627 -0.0059882 0.0091520 -0.0023222 -0.0029760 0.0709496 -0.1664220 -0.0022331 0.0056225 -0.0001863 0.0019379 -0.0002738 0.0022365 0.0000837 0.0031797 0.0008553 0.0029763 0.0011636 0.0016540
0.0076071 -0.0208751 0.0028795 0.0080801 -0.0030656 0.0091684 0.0724751 -0.1607057 0.0007272 0.0036784 -0.0001773 0.0019236 -0.0002744 0.0021738 0.0000874 0.0030432 0.0008643 0.0028600 0.0012196 0.0015884
0.0008213 0.0042526 0.0008379 0.0059230 -0.0032282 0.0042708 0.0671314 -0.1558949 0.0010680 0.0033099 -0.0001750 0.0017698 -0.0002738 0.0020075 0.0000875 0.0028158 0.0008655 0.0026349 0.0012207 0.0015565
0.0045426 0.0036806 0.0040141 -0.0166352 -0.0047332 0.0006181 0.0591949 -0.1458059 -0.0008217 0.0045162 -0.0001702 0.0017289 -0.0002777 0.0019925 0.0000861 0.0028267 0.0008554 0.0026060 0.0012325 0.0016045
0.0026259 0.0028488 0.0083346 -0.0216033 -0.0040517 0.0029590 0.0607602 -0.1544895 0.0005680 0.0036961 -0.0001621 0.0018086 -0.0002947 0.0020974 0.0000847 0.0029451 0.0008532 0.0027036 0.0012573 0.0017202
-0.0068581 0.0065197 0.0016349 -0.0026078 0.0027907 -0.0107922 0.0645370 -0.1617097 0.0021831 0.0027721 -0.0001518 0.0019394 -0.0002940 0.0022265 0.0000844 0.0031062 0.0008625 0.0028633 0.0012903 0.0018603
-0.0071311 0.0114205 0.0056394 -0.0131072 0.0082701 -0.0186423 0.0676023 -0.1542802 0.0029117 0.0024386 -0.0001415 0.0020891 -0.0002823 0.0023721 0.0000838 0.0032666 0.0008718 0.0030403 0.0012873 0.0020500
-0.0046840 0.0081686 0.0113073 -0.0330267 0.0046999 -0.0117286 0.0694925 -0.1597103 0.0035567 0.0021351 -0.0001333 0.0021795 -0.0002726 0.0024267 0.0000785 0.0032524 0.0008763 0.0030650 0.0012973 0.0021069
-0.0006125 -0.0000840 -0.0040030 0.0002126 0.0042186 -0.0012435 0.0650890 -0.1662920 0.0028642 0.0025097 -0.0001263 0.0020772 -0.0002660 0.0022899 0.0000770 0.0030178 0.0008802 0.0028649 0.0013537 0.0019291
-0.0089766 0.0123070 -0.0016087 -0.0032645 0.0012498 0.0070556 0.0614615 -0.1585608 0.0036232 0.0018624 -0.0001225 0.0019450 -0.0002712 0.0021332 0.0000773 0.0028642 0.0008252 0.0026130 0.0013266 0.0018871
-0.0074484 0.0093622 0.0015680 -0.0011396 -0.0123351 0.0195317 0.0602082 -0.1483584 0.0018225 0.0030228 -0.0001323 0.0019069 -0.0003055 0.0019831 0.0000562 0.0028059 0.0005502 0.0017089 0.0017678 0.0029208
0.0006740 -0.0064318 -0.0049942 0.0119825 -0.0074203 0.0050243 0.0672745 -0.1458299 -0.0007209 0.0047093 -0.0001613 0.0018818 -0.0003686 0.0018529 0.0000305 0.0027666 0.0002048 0.0007175 0.0020737 0.0042255
0.0075636 -0.0181735 -0.0017817 -0.0032355 -0.0089020 -0.0097187 0.0704548 -0.1515416 0.0001584 0.0042580 -0.0001643 0.0019865 -0.0003755 0.0019590 0.0000321 0.0028977 0.0004292 0.0014849 0.0018508 0.0038680
0.0026322 0.0009976 -0.0045010 0.0048790 -0.0128906 0.0056818 0.0632826 -0.1540486 -0.0006998 0.0050153 -0.0001220 0.0022383 -0.0003022 0.0023082 0.0000562 0.0032377 0.0008218 0.0029216 0.0015953 0.0025414
-0.0037436 0.0029799 -0.0016898 0.0070614 0.0026683 -0.0011084 0.0567926 -0.1586998 -0.0000942 0.0047053 -0.0000951 0.0023507 -0.0002702 0.0023946 0.0000624 0.0032009 0.0007687 0.0028363 0.0019133 0.0030593
0.0060843 -0.0372342 -0.0002157 0.0012743 0.0095968 -0.0151814 0.0571002 -0.1568443 -0.0041783 0.0071683 -0.0001273 0.0020870 -0.0003335 0.0020071 0.0000403 0.0027091 0.0003718 0.0013431 0.0020031 0.0044161
-0.0038011 0.0065968 -0.0164455 0.0163005 0.0039231 -0.0141898 0.0575489 -0.1457057 -0.0073151 0.0089971 -0.0001557 0.0018432 -0.0003845 0.0017163 0.0000144 0.0023980 0.0002062 0.0007954 0.0017537 0.0049108
-0.0072801 0.0172776 -0.0222597 0.0212572 -0.0134126 0.0054597 0.0651790 -0.1390812 -0.0027177 0.0060086 -0.0001384 0.0018825 -0.0003689 0.0017271 0.0000032 0.0024134 0.0004024 0.0012368 0.0018954 0.0043856
-0.0188472 0.0216307 -0.0066705 -0.0009355 -0.0062117 -0.0027742 0.0663932 -0.1474226 0.0004717 0.0039900 -0.0001084 0.0020391 -0.0003413 0.0018952 0.0000169 0.0026381 0.0006103 0.0018773 0.0018090 0.0033880
-0.0120861 0.0122552 0.0130537 -0.0271136 0.0085208 -0.0053629 0.0592366 -0.1567470 0.0024699 0.0027477 -0.0000832 0.0022267 -0.0003230 0.0021468 0.0000321 0.0028912 0.0007537 0.0026466 0.0016322 0.0030565
-0.0053051 -0.0016020 0.0175453 -0.0323476 0.0106710 -0.0089233 0.0491188 -0.1334304 0.0024392 0.0028511 -0.0000720 0.0023640 -0.0003144 0.0023264 0.0000405 0.0031198 0.0007759 0.0030838 0.0014538 0.0030316
-0.0114055 0.0030585 0.0052889 -0.0121729 -0.0009698 -0.0031618 0.0467375 -0.1371920 0.0039359 0.0018919 -0.0000697 0.0023606 -0.0003049 0.0022951 0.0000496 0.0030749 0.0007930 0.0032030 0.0013377 0.0029047
0.0042274 -0.0023249 0.0015951 -0.0098876 -0.0126586 0.0100604 0.0704938 -0.1628390 0.0027280 0.0025042 -0.0000701 0.0021725 -0.0002993 0.0020905 0.0000574 0.0027679 0.0007964 0.0030004 0.0012902 0.0025722
0.0054377 0.0008074 0.0131428 -0.0407007 -0.0087591 0.0128390 0.0708465 -0.1549208 0.0017465 0.0029489 -0.0000722 0.0020105 -0.0003007 0.0019751 0.0000627 0.0026520 0.0008002 0.0029101 0.0013070 0.0023462
-0.0065643 0.0054310 -0.0020609 -0.0048770 -0.0010103 -0.0006053 0.0617413 -0.1476039 0.0049473 0.0007861 -0.0000799 0.0019658 -0.0002947 0.0019762 0.0000644 0.0027050 0.0007412 0.0027530 0.0014068 0.0024061
-0.0137496 0.0081596 0.0000882 0.0162067 0.0033914 0.0040172 0.0592234 -0.1564352 0.0023917 0.0024170 -0.0001071 0.0019088 -0.0003199 0.0019022 0.0000562 0.0027235 0.0004679 0.0017276 0.0016346 0.0031854
-0.0020479 -0.0128793 -0.0014795 0.0164439 0.0005265 0.0136941 0.0605927 -0.1514871 -0.0014391 0.0045362 -0.0001742 0.0017748 -0.0002826 0.0021010 0.0000587 0.0027673 0.0001565 0.0008808 0.0017473 0.0042129
0.0124663 -0.0210614 -0.0113571 0.0126946 -0.0047928 0.0011015 0.0630053 -0.1457926 -0.0020581 0.0047523 -0.0002030 0.0018229 -0.0002097 0.0024402 0.0000715 0.0029022 0.0002756 0.0014849 0.0016868 0.0039783
0.0100998 -0.0058822 -0.0026627 0.0070278 -0.0037433 -0.0021398 0.0686672 -0.1459920 -0.0019845 0.0050078 -0.0001782 0.0018875 -0.0002023 0.0023709 0.0000931 0.0028730 0.0005689 0.0020900 0.0016728 0.0029929
0.0000496 0.0019235 -0.0036566 0.0100337 0.0013234 -0.0060317 0.0673259 -0.1455159 0.0010693 0.0030176 -0.0001574 0.0017137 -0.0001967 0.0021612 0.0001272 0.0026982 0.0006595 0.0021806 0.0014336 0.0024597
-0.0007825 -0.0068483 -0.0013032 0.0059743 0.0088823 -0.0145676 0.0611153 -0.1482225 -0.0010184 0.0042108 -0.0001374 0.0015886 -0.0001779 0.0020801 0.0001431 0.0026460 0.0006666 0.0022395 0.0011686 0.0020980
-0.0013745 0.0038355 0.0023109 0.0015389 0.0024763 0.0023125 0.0657829 -0.1606042 0.0012766 0.0026355 -0.0001312 0.0015710 -0.0001772 0.0020886 0.0001394 0.0026930 0.0006451 0.0022027 0.0011700 0.0018717
-0.0013659 0.0008371 -0.0012391 0.0095211 -0.0010073 0.0008996 0.0695572 -0.1687054 0.0058031 -0.0002978 -0.0001268 0.0016242 -0.0001958 0.0021247 0.0001327 0.0027804 0.0006296 0.0022014 0.0012049 0.0018666
0.0018806 0.0047568 -0.0067008 0.0124980 0.0063250 -0.0212162 0.0648714 -0.1629698 0.0035656 0.0012532 -0.0001164 0.0017293 -0.0001983 0.0022006 0.0001264 0.0029216 0.0006514 0.0023759 0.0012246 0.0019305
-0.0006248 0.0143422 0.0003266 -0.0046358 0.0033391 -0.0079646 0.0547081 -0.1505582 0.0032818 0.0015684 -0.0001013 0.0018686 -0.0002042 0.0023429 0.0001245 0.0030821 0.0006743 0.0025697 0.0012467 0.0019195
0.0009536 -0.0069735 0.0079013 -0.0210631 0.0049059 -0.0075355 0.0506565 -0.1405321 0.0051471 0.0003274 -0.0000882 0.0018284 -0.0002022 0.0022564 0.0001262 0.0029310 0.0006993 0.0024819 0.0012455 0.0016676
0.0052943 -0.0226554 0.0057597 -0.0061879 0.0113890 -0.0192024 0.0563150 -0.1425672 0.0052001 0.0000732 -0.0000755 0.0016111 -0.0001873 0.0020216 0.0001308 0.0026782 0.0007485 0.0023731 0.0011358 0.0012498
-0.0058869 -0.0050698 0.0043350 -0.0017045 0.0070197 -0.0101954 0.0599452 -0.1404316 -0.0004082 0.0036276 -0.0000648 0.0015198 -0.0001829 0.0019771 0.0001329 0.0026941 0.0007672 0.0024271 0.0010376 0.0012399
-0.0056555 -0.0027035 -0.0026863 0.0080789 0.0024879 -0.0010769 0.0618233 -0.1448017 -0.0008621 0.0039280 -0.0000787 0.0014920 -0.0002262 0.0018552 0.0001154 0.0026950 0.0005674 0.0015525 0.0015064 0.0019478
0.0080170 -0.0209046 -0.0029067 0.0083712 0.0083337 -0.0154521 0.0691575 -0.1652670 0.0023510 0.0018264 -0.0001117 0.0014574 -0.0002937 0.0016636 0.0000904 0.0026535 0.0001636 0.0004465 0.0017337 0.0028944
0.0116173 -0.0296610 -0.0044865 0.0028251 0.0105603 -0.0259507 0.0824314 -0.2006795 -0.0019000 0.0047095 -0.0001201 0.0015613 -0.0002939 0.0017497 0.0000792 0.0027851 0.0002754 0.0011538 0.0015033 0.0025993
-0.0084853 0.0006419 -0.0053544 0.0043897 0.0017135 -0.0122268 0.0811318 -0.1833102 -0.0022696 0.0051543 -0.0000831 0.0018248 -0.0002446 0.0020951 0.0000924 0.0031237 0.0006739 0.0026366 0.0012483 0.0015157
-0.0129649 0.0215697 -0.0068714 0.0070192 -0.0151142 0.0112546 0.0758645 -0.1651699 -0.0002847 0.0038779 -0.0000511 0.0019010 -0.0002106 0.0021910 0.0001098 0.0031379 0.0007966 0.0030618 0.0011209 0.0008285
-0.0086403 0.0147866 -0.0038709 0.0053406 -0.0148339 0.0159705 0.0712278 -0.1621778 -0.0025942 0.0052006 -0.0000428 0.0017155 -0.0002020 0.0019765 0.0001191 0.0028829 0.0008267 0.0027943 0.0011447 0.0006877
-0.0004325 -0.0110107 0.0036985 -0.0020169 0.0008985 0.0008123 0.0677317 -0.1636444 -0.0046371 0.0064145 -0.0000400 0.0016160 -0.0002228 0.0018489 0.0001195 0.0028274 0.0007432 0.0025467 0.0010150 0.0012487
0.0061889 -0.0134928 0.0082649 -0.0139094 0.0011760 -0.0006413 0.0631018 -0.1693542 -0.0020901 0.0047484 -0.0000502 0.0016157 -0.0002692 0.0017875 0.0001056 0.0028471 0.0005684 0.0020141 0.0014988 0.0021622
0.0012175 0.0028939 0.0045045 -0.0179697 -0.0056896 0.0093793 0.0511179 -0.1491635 -0.0021708 0.0048542 -0.0000844 0.0015779 -0.0003171 0.0016932 0.0000888 0.0028633 0.0003147 0.0010979 0.0017932 0.0030672
0.0008641 0.0010317 -0.0068734 -0.0123458 -0.0068597 0.0108200 0.0619664 -0.1382562 -0.0044071 0.0064025 -0.0001196 0.0015756 -0.0003486 0.0016469 0.0000702 0.0028762 0.0001453 0.0007281 0.0017500 0.0039472
0.0026014 -0.0126220 -0.0067476 -0.0176205 -0.0129324 0.0144811 0.0646091 -0.1404390 -0.0029797 0.0056402 -0.0000994 0.0017720 -0.0003201 0.0019111 0.0000802 0.0031209 0.0004461 0.0019752 0.0014468 0.0033563
0.0044325 -0.0163831 0.0058788 -0.0065567 0.0044232 0.0002581 0.0573947 -0.1451508 -0.0003029 0.0039968 -0.0000560 0.0018963 -0.0002528 0.0022049 0.0001097 0.0032536 0.0008050 0.0030105 0.0011846 0.0014597
-0.0074477 0.0002083 0.0028119 0.0054526 0.0122197 -0.0173734 0.0534326 -0.1410364 0.0039233 0.0011786 -0.0000355 0.0017948 -0.0002160 0.0021616 0.0001204 0.0030565 0.0007648 0.0027273 0.0014588 0.0018109
-0.0060078 0.0054324 -0.0024376 0.0005913 0.0000018 -0.0019852 0.0550258 -0.1407478 0.0061187 -0.0002891 -0.0000490 0.0016647 -0.0002465 0.0019550 0.0001010 0.0028796 0.0005642 0.0017604 0.0017191 0.0029788
0.0083562 -0.0013708 0.0072391 -0.0253195 0.0024663 -0.0019635 0.0719549 -0.1608959 0.0047507 0.0005925 -0.0000891 0.0015579 -0.0003145 0.0017785 0.0000732 0.0027779 0.0002660 0.0008799 0.0017832 0.0034524
0.0065297 -0.0025509 0.0024337 -0.0207308 0.0076994 -0.0195801 0.0814658 -0.1803379 -0.0005665 0.0041275 -0.0001121 0.0015809 -0.0003424 0.0018010 0.0000628 0.0028273 0.0002455 0.0012765 0.0017061 0.0036972
-0.0013756 -0.0065239 -0.0037644 -0.0008859 -0.0066234 0.0113922 0.0715179 -0.1666175 -0.0017997 0.0050684 -0.0000989 0.0017539 -0.0002785 0.0021078 0.0000880 0.0031148 0.0005592 0.0021500 0.0018298 0.0031356
-0.0143233 0.0164808 -0.0004244 0.0148822 -0.0021694 0.0239600 0.0671142 -0.1700517 -0.0022952 0.0052241 -0.0001395 0.0017306 -0.0000561 0.0029494 0.0001586 0.0034879 0.0007022 0.0025760 0.0018616 0.0026566
-0.0099292 0.0148018 0.0015048 0.0095337 0.0023220 0.0094896 0.0676851 -0.1601074 -0.0067158 0.0078066 -0.0001938 0.0015128 0.0001410 0.0035095 0.0001834 0.0033586 0.0007052 0.0025051 0.0017299 0.0024771
0.0070269 -0.0086901 -0.0029560 -0.0006162 0.0053883 -0.0217315 0.0624374 -0.1445788 -0.0031184 0.0053092 -0.0002005 0.0013227 0.0001823 0.0034189 0.0001805 0.0030485 0.0006942 0.0022415 0.0016309 0.0022119
0.0047525 -0.0049488 -0.0113464 0.0249808 0.0012579 -0.0112595 0.0621712 -0.1351927 -0.0004363 0.0034952 -0.0001954 0.0012730 0.0001627 0.0032604 0.0001887 0.0030425 0.0006735 0.0021495 0.0015841 0.0020933
-0.0007537 0.0064435 -0.0068036 0.0204082 -0.0099973 0.0108910 0.0630289 -0.1349853 -0.0015093 0.0042780 -0.0001662 0.0014124 0.0001073 0.0031322 0.0001805 0.0031114 0.0006515 0.0021643 0.0014949 0.0021307
0.0006057 0.0029177 0.0122986 -0.0212656 0.0021097 0.0015691 0.0601426 -0.1450998 -0.0004270 0.0036859 -0.0001522 0.0015458 0.0000914 0.0032248 0.0001889 0.0032863 0.0006395 0.0022504 0.0014766 0.0022156
0.0016759 -0.0089880 0.0040763 0.0024949 0.0070596 -0.0034899 0.0601339 -0.1440650 0.0032050 0.0013575 -0.0001688 0.0015841 0.0002169 0.0037687 0.0002520 0.0036301 0.0006242 0.0023234 0.0015014 0.0024238
-0.0042981 0.0069976 -0.0012857 0.0065347 0.0027953 -0.0070090 0.0577050 -0.1418680 0.0034716 0.0012252 -0.0001774 0.0016452 0.0003766 0.0044112 0.0003240 0.0039697 0.0006166 0.0024223 0.0015200 0.0027216
-0.0008873 0.0228045 0.0066980 -0.0187125 0.0114952 -0.0443053 0.0630832 -0.1556980 0.0026144 0.0017398 -0.0001608 0.0016330 0.0004511 0.0045478 0.0003491 0.0038671 0.0006217 0.0022680 0.0015482 0.0026451
-0.0051726 0.0257250 0.0059959 -0.0085092 0.0047328 -0.0147841 0.0621218 -0.1540949 0.0055178 -0.0003695 -0.0001520 0.0014507 0.0004887 0.0044527 0.0003530 0.0035471 0.0006322 0.0019800 0.0015641 0.0023236
-0.0140954 0.0174039 0.0080597 -0.0138405 0.0083819 -0.0123743 0.0553094 -0.1408688 0.0057685 -0.0007579 -0.0001440 0.0013357 0.0005409 0.0045320 0.0003726 0.0034962 0.0006533 0.0018721 0.0016291 0.0022449
-0.0001773 -0.0030117 0.0059340 -0.0031618 0.0096213 -0.0094286 0.0607173 -0.1514988 0.0041999 0.0001169 -0.0001334 0.0013240 0.0005800 0.0046358 0.0003778 0.0035441 0.0006574 0.0018325 0.0016520 0.0023213
-0.0018081 -0.0057877 0.0071845 0.0003854 0.0000715 0.0063569 0.0680518 -0.1613389 0.0018050 0.0016624 -0.0001334 0.0013635 0.0005798 0.0047012 0.0003599 0.0035833 0.0006376 0.0018923 0.0016462 0.0023534
-0.0004673 -0.0114294 0.0009704 0.0039652 -0.0104851 0.0175363 0.0650916 -0.1563594 0.0017660 0.0017363 -0.0001422 0.0014207 0.0005795 0.0047721 0.0003619 0.0036623 0.0006256 0.0019800 0.0016965 0.0023832
0.0075582 -0.0174863 -0.0010461 -0.0033245 -0.0005478 -0.0000777 0.0651843 -0.1619741 0.0008114 0.0024147 -0.0001514 0.0015016 0.0005852 0.0048739 0.0003749 0.0037632 0.0006237 0.0020344 0.0017090 0.0024531
-0.0012785 0.0023596 -0.0004729 -0.0052423 0.0049693 -0.0176349 0.0649070 -0.1574230 -0.0010417 0.0035167 -0.0001637 0.0013999 0.0005733 0.0047291 0.0003779 0.0035746 0.0006164 0.0018201 0.0016764 0.0024212
-0.0065717 0.0086948 -0.0050949 0.0053987 -0.0023336 -0.0032429 0.0633850 -0.1416968 0.0007062 0.0022071 -0.0001694 0.0011301 0.0004253 0.0039840 0.0003322 0.0030867 0.0005777 0.0014228 0.0016144 0.0020509
0.0017831 -0.0010855 -0.0006429 -0.0119664 0.0016083 -0.0096116 0.0611693 -0.1396764 0.0001454 0.0029164 -0.0001381 0.0011379 0.0001963 0.0031712 0.0002659 0.0027892 0.0005574 0.0013049 0.0015510 0.0016289
-0.0005774 0.0005873 -0.0001550 -0.0047195 0.0014373 -0.0081419 0.0543701 -0.1339374 -0.0032326 0.0055661 -0.0000947 0.0013226 0.0000790 0.0028361 0.0002289 0.0027530 0.0005758 0.0014656 0.0014991 0.0015287
0.0002987 -0.0016528 0.0051796 -0.0058847 0.0052243 -0.0041017 0.0586594 -0.1408345 -0.0072315 0.0083482 -0.0000719 0.0014717 0.0000424 0.0028170 0.0002085 0.0028301 0.0005762 0.0016605 0.0014607 0.0016160
0.0045699 -0.0168303 0.0086550 -0.0124792 0.0095393 -0.0102381 0.0567722 -0.1604360 -0.0043828 0.0066308 -0.0000572 0.0016310 0.0000056 0.0028560 0.0001916 0.0029185 0.0005686 0.0018181 0.0014260 0.0017112
-0.0014961 -0.0096875 -0.0013913 0.0107661 0.0106361 -0.0224868 0.0512421 -0.1585736 -0.0039921 0.0064897 -0.0000448 0.0017829 -0.0000215 0.0028676 0.0001893 0.0029542 0.0005777 0.0019115 0.0014216 0.0017509
0.0026383 -0.0055252 -0.0044163 0.0083809 0.0074397 -0.0260824 0.0627273 -0.1421685 -0.0009344 0.0043378 -0.0000482 0.0016865 -0.0000179 0.0027016 0.0001987 0.0027853 0.0005846 0.0017763 0.0014587 0.0016550
0.0002520 -0.0135995 0.0088956 -0.0379073 0.0038044 -0.0230482 0.0638777 -0.1409059 0.0013571 0.0024788 -0.0000621 0.0014060 -0.0000168 0.0024778 0.0001972 0.0025794 0.0005844 0.0016008 0.0014490 0.0015837
0.0092160 -0.0328298 0.0144526 -0.0278023 0.0077778 -0.0097452 0.0525272 -0.1394818 0.0005777 0.0027880 -0.0000716 0.0012773 -0.0000289 0.0024013 0.0001930 0.0025597 0.0005755 0.0015605 0.0014599 0.0016180
0.0094716 -0.0241951 0.0123928 -0.0177657 0.0054095 -0.0007606 0.0460574 -0.1309162 0.0031103 0.0010647 -0.0000787 0.0012745 -0.0000394 0.0024019 0.0001931 0.0026329 0.0005423 0.0015454 0.0015027 0.0017091
