-0.0000000 -0.0000000 -0.0000000 -0.0000000 -0.0000000 -0.0000000 -0.0000000 -0.0000000 -0.0000000 -0.0000000 -0.0000000 -0.0000000 -0.0000000 -0.0000000 -0.0000000 -0.0000000 -0.0000000 -0.0000000 -0.0000000 -0.0000000
-0.0000000 -0.0000000 -0.0000000 -0.0000000 -0.0000000 -0.0000000 -0.0000000 -0.0000000 -0.0000000 -0.0000000 -0.0000000 -0.0000000 -0.0000000 -0.0000000 -0.0000000 -0.0000000 -0.0000000 -0.0000000 -0.0000000 -0.0000000
-0.0081990 0.0119295 -0.0021872 0.0024733 -0.0028572 0.0013284 0.0052919 -0.0047579 0.0000010 0.0000503 0.0001722 -0.0001604 0.0028757 -0.0032533 -0.0000015 0.0000367 -0.0000102 0.0000637 -0.0001460 -0.0008163
0.0010406 0.0026504 0.0012896 0.0020222 -0.0008630 0.0004187 0.0039850 -0.0008713 0.0000007 0.0001087 0.0002103 -0.0001038 0.0063813 -0.0033194 -0.0000069 0.0000838 -0.0000221 0.0001622 0.0031016 -0.0045225
0.0027806 -0.0006434 0.0046741 0.0006659 0.0076057 -0.0116781 0.0041836 -0.0020273 0.0000023 0.0001606 -0.0039011 0.0037171 0.0037426 0.0004761 -0.0000035 0.0000629 -0.0000056 0.0001445 0.0014888 -0.0000350
0.0046612 -0.0140775 -0.0005832 0.0070765 0.0066961 -0.0097925 0.0018099 -0.0001918 0.0000086 0.0001307 -0.0054424 0.0034305 0.0046013 -0.0028872 -0.0000029 -0.0000710 0.0000054 -0.0000076 -0.0043229 0.0012535
-0.0031675 -0.0031535 -0.0100231 0.0149731 0.0082273 -0.0128491 -0.0017646 0.0082595 0.0000126 0.0000841 -0.0026783 0.0011614 0.0031393 -0.0005612 0.0000019 -0.0001482 0.0000147 -0.0000665 -0.0091347 0.0097151
-0.0019331 0.0060206 -0.0117929 0.0148531 0.0060232 -0.0041312 0.0021230 0.0008327 0.0000174 0.0001164 -0.0023644 0.0010147 -0.0026116 0.0044705 0.0000106 -0.0001166 0.0000614 -0.0000146 -0.0025972 0.0061453
0.0046918 0.0019038 -0.0092362 0.0085921 0.0000076 0.0005102 -0.0015449 -0.0021999 0.0000188 0.0001869 -0.0009202 -0.0004289 -0.0063505 0.0037076 0.0000131 -0.0000621 0.0000793 0.0000619 0.0004290 -0.0019003
0.0080264 -0.0128314 -0.0109878 0.0002710 0.0095460 -0.0221258 -0.0034660 0.0029878 0.0000185 0.0002608 -0.0022740 0.0013523 -0.0029768 0.0013085 0.0000099 0.0000116 0.0000549 0.0001898 -0.0066073 0.0061871
-0.0031951 0.0057142 -0.0088297 0.0100352 0.0061109 -0.0126430 0.0061983 -0.0161953 0.0000142 0.0003566 0.0012566 -0.0015857 -0.0085632 0.0056331 0.0000097 0.0000462 0.0000615 0.0002370 0.0022698 -0.0031882
-0.0124753 0.0200311 0.0018908 -0.0106750 -0.0017557 0.0088467 0.0018803 -0.0074153 0.0000150 0.0003652 0.0058420 -0.0056525 -0.0135101 0.0086584 0.0000063 -0.0000372 0.0000646 0.0001305 0.0056255 -0.0012837
-0.0157553 0.0146211 0.0081574 -0.0251022 0.0034412 -0.0011824 0.0015907 0.0002763 0.0000233 0.0002711 0.0036515 -0.0022427 -0.0075583 0.0038655 0.0000063 -0.0001336 0.0000753 0.0000106 -0.0002735 0.0033901
-0.0026961 0.0000434 -0.0064328 0.0147792 0.0111707 -0.0317539 -0.0068378 0.0125084 0.0000268 0.0002524 0.0030236 -0.0016530 -0.0014870 -0.0018094 0.0000146 -0.0001395 0.0000925 0.0000053 0.0030338 -0.0069890
-0.0038381 0.0049527 -0.0078770 0.0243942 0.0025994 -0.0068072 -0.0109531 0.0131950 0.0000240 0.0002983 0.0018780 -0.0005573 0.0031218 -0.0041288 0.0000155 -0.0000861 0.0000831 0.0000987 0.0010032 0.0011177
0.0129320 -0.0214752 0.0018845 0.0040323 0.0005152 0.0060398 0.0045822 -0.0203345 0.0000182 0.0003501 -0.0014886 0.0023730 0.0067946 -0.0067554 0.0000086 0.0000006 0.0000737 0.0002003 0.0013274 0.0014778
0.0043315 0.0029633 0.0136752 -0.0411710 0.0026404 -0.0026931 0.0104135 -0.0363461 0.0000133 0.0004111 -0.0031896 0.0019651 0.0085572 -0.0079251 0.0000085 0.0000816 0.0000822 0.0002844 0.0040138 -0.0066305
-0.0021646 0.0099867 0.0091877 -0.0276241 0.0134058 -0.0274149 0.0038704 -0.0049952 0.0000100 0.0004393 -0.0023961 0.0010906 0.0054923 -0.0024718 0.0000132 0.0000594 0.0000704 0.0002837 0.0025726 -0.0016751
0.0104635 -0.0120879 0.0082346 -0.0178984 0.0043798 -0.0019729 -0.0026688 0.0119733 0.0000051 0.0003607 -0.0021196 0.0014941 0.0015363 -0.0008930 0.0000198 -0.0000791 0.0000709 0.0000888 0.0041241 -0.0050896
0.0050053 -0.0019157 0.0074924 -0.0203201 -0.0013807 0.0067337 -0.0114823 0.0160127 -0.0000031 0.0002483 -0.0026161 0.0011017 0.0005983 -0.0024453 0.0000268 -0.0001474 0.0000915 -0.0000456 -0.0039026 -0.0002631
0.0008884 -0.0044145 -0.0036554 0.0002258 -0.0050542 0.0054436 -0.0019087 0.0085652 -0.0000083 0.0002035 -0.0023182 -0.0005619 0.0009870 -0.0013724 0.0000243 -0.0001100 0.0001024 -0.0000155 -0.0054794 0.0011947
-0.0098766 0.0204742 -0.0019759 0.0064704 -0.0017449 0.0031566 0.0065060 -0.0029767 -0.0000055 0.0002149 0.0033383 -0.0048446 -0.0062149 0.0009622 0.0000258 -0.0000642 0.0001232 0.0000596 0.0050522 -0.0027887
-0.0131595 0.0262564 -0.0038577 0.0113786 0.0119224 -0.0296341 0.0100505 -0.0221304 0.0000042 0.0002485 0.0049339 -0.0041432 -0.0166762 0.0104949 0.0000318 0.0000050 0.0001334 0.0001639 0.0044882 0.0032894
-0.0043788 0.0042707 -0.0138695 0.0192837 -0.0025508 -0.0000385 0.0108176 -0.0272363 -0.0000053 0.0002291 0.0037261 0.0000258 -0.0138337 0.0094808 0.0000244 -0.0000114 0.0001091 0.0000975 0.0029629 -0.0010022
-0.0013400 -0.0016204 -0.0027528 -0.0045848 -0.0029290 0.0030349 -0.0045410 0.0109603 -0.0000263 0.0000667 0.0054851 -0.0030992 -0.0015269 -0.0025288 0.0000144 -0.0001685 0.0000588 -0.0002151 0.0054357 -0.0133444
-0.0033281 0.0002294 -0.0038109 -0.0009324 -0.0026627 0.0027744 -0.0079715 0.0140663 -0.0000398 -0.0001537 0.0030756 -0.0032329 0.0022925 0.0002844 0.0000179 -0.0002360 0.0000332 -0.0003984 0.0013958 0.0002621
-0.0039264 0.0052677 -0.0065701 0.0129208 -0.0025054 0.0007000 0.0113194 -0.0292020 -0.0000749 -0.0002930 -0.0039106 0.0035263 0.0041791 -0.0007798 0.0000237 -0.0001937 0.0000067 -0.0004338 0.0027960 -0.0024981
-0.0026458 -0.0015299 -0.0051378 0.0123577 0.0036202 -0.0175220 0.0150892 -0.0371916 -0.0001173 -0.0003701 -0.0048193 0.0021655 0.0092537 -0.0101318 0.0000210 -0.0001456 -0.0000318 -0.0004282 0.0035719 -0.0161804
0.0085902 -0.0206946 -0.0017676 0.0008123 -0.0027009 0.0073461 -0.0027735 0.0115491 -0.0001307 -0.0003886 -0.0030670 0.0011311 0.0071667 -0.0056570 0.0000085 -0.0001502 -0.0000131 -0.0003618 -0.0043170 0.0040295
0.0112311 -0.0236237 0.0110121 -0.0188978 -0.0040300 0.0177554 -0.0053156 0.0164898 -0.0001256 -0.0003552 -0.0049151 0.0019102 0.0017146 -0.0009890 0.0000244 -0.0001241 0.0000090 -0.0003480 -0.0096753 0.0123891
0.0052785 -0.0108166 -0.0015726 -0.0044829 -0.0023120 0.0068735 0.0011097 -0.0042325 -0.0001256 -0.0004044 -0.0054384 0.0010481 -0.0017793 -0.0003805 0.0000464 -0.0001645 0.0000057 -0.0005358 -0.0133127 0.0126780
0.0059074 -0.0069915 -0.0201129 0.0189267 0.0139798 -0.0394547 0.0072622 -0.0113821 -0.0001296 -0.0006094 -0.0068258 0.0034794 -0.0009252 0.0001697 0.0000477 -0.0002984 -0.0000045 -0.0007727 -0.0133301 0.0103362
0.0025816 0.0017600 -0.0041006 0.0024847 0.0056455 -0.0210948 0.0070341 -0.0173269 -0.0001267 -0.0007750 -0.0005116 -0.0018154 -0.0054229 0.0020482 0.0000474 -0.0003274 -0.0000029 -0.0008464 -0.0015979 -0.0003206
-0.0036137 0.0107061 0.0043364 -0.0111962 -0.0000386 -0.0013274 -0.0056805 -0.0086055 -0.0000944 -0.0007822 0.0035355 -0.0035559 -0.0143504 0.0086202 0.0000105 -0.0003968 0.0000048 -0.0009165 0.0046173 -0.0051723
-0.0039005 0.0112761 -0.0005836 -0.0019384 -0.0079906 0.0172952 0.0013840 -0.0103224 -0.0000532 -0.0006828 0.0029488 -0.0007053 -0.0215542 0.0129831 -0.0000244 -0.0004415 0.0000066 -0.0008926 0.0020122 -0.0049448
0.0070085 -0.0073073 -0.0013940 0.0055843 -0.0108241 0.0118280 -0.0008907 0.0037823 -0.0000603 -0.0005876 0.0044355 -0.0041905 -0.0063930 0.0008912 -0.0000155 -0.0003090 -0.0000157 -0.0006932 0.0063147 -0.0108244
0.0084680 -0.0193834 -0.0033344 0.0146003 -0.0002257 -0.0036931 -0.0074421 0.0159422 -0.0000851 -0.0005551 0.0047567 -0.0055578 0.0017043 -0.0003256 0.0000026 -0.0002600 -0.0000524 -0.0006440 0.0057264 -0.0052400
0.0023950 -0.0000331 -0.0051544 0.0187008 -0.0051729 0.0123147 -0.0016168 0.0072895 -0.0000938 -0.0006688 0.0010429 -0.0020515 0.0057535 -0.0029841 0.0000039 -0.0003929 -0.0000413 -0.0008507 0.0038099 -0.0054759
0.0012399 0.0019019 -0.0018316 0.0080786 -0.0057944 0.0067031 0.0008627 -0.0018778 -0.0000950 -0.0008358 -0.0027435 -0.0005153 0.0097066 -0.0088815 0.0000045 -0.0004625 -0.0000123 -0.0009523 0.0022528 -0.0088821
-0.0005922 -0.0019048 0.0130198 -0.0281784 -0.0000582 0.0040240 0.0060625 -0.0104657 -0.0000868 -0.0008831 -0.0026066 0.0003111 0.0069775 -0.0049183 0.0000158 -0.0004142 0.0000010 -0.0008448 -0.0081027 0.0070656
-0.0054020 -0.0008583 0.0045501 -0.0051670 -0.0006606 0.0103392 0.0124691 -0.0309922 -0.0000815 -0.0008495 -0.0046650 0.0015462 0.0027674 -0.0028620 0.0000299 -0.0003390 0.0000233 -0.0007160 -0.0026580 -0.0003244
-0.0103474 0.0005590 -0.0002310 0.0035928 -0.0075515 0.0125089 0.0123513 -0.0369932 -0.0000795 -0.0007776 -0.0076015 0.0031890 0.0013235 0.0006317 0.0000403 -0.0002495 0.0000477 -0.0006030 -0.0045819 0.0010958
-0.0055609 0.0097153 0.0005942 -0.0109406 -0.0050176 -0.0013055 0.0037065 -0.0013288 -0.0000731 -0.0006702 -0.0046993 0.0014868 0.0027912 0.0003292 0.0000314 -0.0001525 0.0000489 -0.0004943 -0.0114778 0.0060200
-0.0052166 0.0081076 -0.0147079 -0.0045998 -0.0015145 0.0026496 -0.0038112 0.0136554 -0.0000654 -0.0006077 0.0007856 -0.0023096 -0.0051905 -0.0000234 0.0000238 -0.0001944 0.0000423 -0.0005642 0.0067897 -0.0178103
0.0071173 -0.0185178 -0.0039809 0.0016263 -0.0046170 0.0095168 -0.0032236 0.0130331 -0.0000623 -0.0006915 0.0019797 -0.0010999 -0.0197692 0.0125196 0.0000256 -0.0003014 0.0000326 -0.0006873 0.0070773 -0.0058740
0.0206260 -0.0479232 -0.0027203 0.0038289 -0.0010891 0.0033020 0.0095996 -0.0126796 -0.0000684 -0.0007648 0.0025224 0.0001260 -0.0208825 0.0119834 0.0000255 -0.0002978 0.0000317 -0.0006565 0.0042167 -0.0015834
-0.0043409 -0.0015524 -0.0020232 -0.0106086 0.0005850 0.0023611 0.0149371 -0.0320358 -0.0000699 -0.0007137 0.0048696 -0.0033912 -0.0089890 0.0019453 0.0000209 -0.0002205 0.0000177 -0.0005171 0.0082211 -0.0160678
-0.0030823 0.0122346 -0.0000082 -0.0014153 -0.0027827 0.0096258 0.0011522 -0.0061015 -0.0000609 -0.0005918 0.0050570 -0.0047133 -0.0001950 0.0010223 0.0000228 -0.0001194 -0.0000061 -0.0003204 0.0055426 -0.0025206
0.0049031 -0.0024269 0.0044506 -0.0034894 -0.0060641 0.0159911 0.0089457 -0.0200839 -0.0000561 -0.0004334 0.0002634 -0.0004184 0.0063183 -0.0029348 0.0000312 -0.0000238 -0.0000120 -0.0001576 0.0048052 -0.0012641
-0.0110342 0.0053165 -0.0028427 0.0084784 -0.0026511 0.0061097 0.0041820 -0.0032481 -0.0000513 -0.0003125 -0.0016572 -0.0000430 0.0067022 -0.0030782 0.0000186 -0.0000177 -0.0000110 -0.0001626 0.0030605 -0.0045039
-0.0042125 0.0024318 -0.0228233 0.0255297 0.0050488 -0.0088699 -0.0074916 0.0148626 -0.0000449 -0.0003067 0.0000485 -0.0003804 0.0040287 -0.0009356 0.0000083 -0.0001047 -0.0000273 -0.0002766 -0.0049007 0.0053813
0.0133530 -0.0170094 -0.0065642 0.0024103 0.0047448 -0.0090265 -0.0070428 0.0167028 -0.0000337 -0.0003153 -0.0027509 0.0014270 0.0035333 -0.0022208 0.0000159 -0.0001332 -0.0000138 -0.0003158 -0.0034618 0.0038119
0.0079986 -0.0170352 -0.0016081 0.0049002 0.0014037 -0.0003272 0.0028122 0.0057592 -0.0000203 -0.0002236 -0.0058355 0.0018212 0.0014345 0.0001534 0.0000184 -0.0000761 0.0000093 -0.0002667 -0.0048281 0.0110398
-0.0080609 0.0032393 -0.0004191 0.0054859 0.0000732 -0.0005855 0.0084107 -0.0086697 -0.0000153 -0.0000715 -0.0090625 0.0051596 0.0027926 0.0004208 0.0000129 0.0000125 0.0000032 -0.0001443 -0.0168284 0.0174598
-0.0014634 0.0074254 -0.0026926 0.0066817 0.0070504 -0.0231782 0.0021445 -0.0029516 -0.0000148 0.0000867 -0.0034748 0.0014196 -0.0074893 0.0048832 0.0000107 0.0000902 0.0000105 0.0000082 0.0024720 -0.0078220
-0.0011385 0.0000060 -0.0127393 0.0100106 -0.0012191 -0.0021899 -0.0077577 0.0159821 -0.0000196 0.0001654 0.0009918 0.0000228 -0.0221877 0.0148435 0.0000112 0.0000474 0.0000156 -0.0000152 0.0058148 -0.0007008
-0.0053369 -0.0038782 -0.0111222 0.0075252 -0.0028967 0.0058987 -0.0009375 0.0082927 -0.0000192 0.0001625 0.0019447 0.0007437 -0.0118587 0.0060997 0.0000233 -0.0000359 0.0000319 -0.0000864 -0.0053306 0.0094710
-0.0002049 -0.0003939 -0.0009143 0.0005541 0.0049758 -0.0210208 0.0070998 -0.0143601 -0.0000039 0.0002370 0.0035670 -0.0019194 -0.0016714 -0.0052292 0.0000370 0.0000128 0.0000424 0.0001644 0.0025646 -0.0118404
0.0090528 -0.0019402 -0.0054734 -0.0015716 -0.0015771 -0.0036686 0.0026637 -0.0163433 0.0000061 0.0003621 0.0044698 -0.0028916 -0.0002056 -0.0014578 0.0000212 0.0000974 0.0000118 0.0005102 0.0075033 -0.0083574
0.0081467 -0.0000616 -0.0034146 -0.0007585 -0.0011957 0.0021606 0.0122771 -0.0334445 0.0000218 0.0004777 0.0016611 0.0005433 0.0010417 0.0000803 0.0000019 0.0001525 -0.0000411 0.0006522 0.0031483 -0.0026162
0.0032961 -0.0095531 0.0113435 -0.0174158 -0.0023497 -0.0051088 0.0052627 -0.0135088 0.0000453 0.0006135 -0.0011240 0.0021007 0.0058619 -0.0037687 -0.0000083 0.0001805 -0.0001059 0.0007458 0.0022280 -0.0059294
0.0037860 -0.0107368 0.0166918 -0.0268071 0.0056250 -0.0131788 0.0036984 -0.0087310 0.0000364 0.0006224 0.0010115 0.0011446 0.0052324 -0.0021374 0.0003726 0.0007287 0.0000693 0.0008855 -0.0033095 0.0098664
-0.0060896 0.0127601 0.0114195 -0.0100933 0.0091639 -0.0216839 0.0079821 -0.0130056 0.0000067 0.0004676 -0.0000380 0.0025614 0.0027007 0.0001436 0.0010305 0.0017381 0.0003247 0.0007767 -0.0097429 0.0180392
-0.0035192 0.0005084 0.0105222 -0.0104327 -0.0070402 -0.0039519 -0.0006415 -0.0007811 -0.0000112 0.0003728 -0.0026842 0.0042193 0.0038136 -0.0011095 0.0013333 0.0021967 0.0003593 0.0004558 -0.0136586 0.0183921
0.0069346 -0.0182181 0.0174277 -0.0258654 -0.0161603 0.0128095 -0.0068904 0.0038723 -0.0000170 0.0003914 -0.0026050 0.0045362 0.0047417 -0.0009480 0.0013592 0.0021604 0.0004416 0.0003569 -0.0267050 0.0229238
0.0122009 -0.0162567 0.0067664 -0.0087030 -0.0084970 0.0065565 0.0086290 -0.0177126 -0.0000264 0.0004182 0.0001099 0.0025611 -0.0023097 0.0024820 0.0013218 0.0020401 0.0007406 0.0007822 -0.0005413 -0.0056202
0.0085666 0.0010084 -0.0025274 0.0053428 -0.0017636 -0.0000664 0.0125399 -0.0260896 -0.0000361 0.0004739 0.0020916 0.0037458 -0.0145006 0.0113776 0.0011107 0.0016425 0.0008036 0.0010204 0.0051621 -0.0016893
0.0094422 0.0024372 0.0059524 -0.0055716 -0.0057160 0.0035905 0.0110555 -0.0236613 -0.0000334 0.0004927 0.0037265 0.0032776 -0.0119043 0.0082692 0.0007666 0.0009374 0.0005619 0.0005743 0.0017342 0.0007102
0.0108446 -0.0091315 0.0048015 -0.0048252 -0.0167623 0.0116217 0.0021001 0.0009831 -0.0000120 0.0004413 0.0056972 -0.0013087 -0.0002603 -0.0030447 0.0005323 0.0002748 0.0003869 0.0000886 0.0083746 -0.0146957
0.0014116 0.0049696 -0.0053384 0.0159618 -0.0052447 0.0052555 -0.0090536 0.0141505 0.0000240 0.0004656 0.0050632 -0.0013973 -0.0003837 0.0003418 0.0004504 -0.0000856 0.0002945 -0.0000864 0.0030987 0.0026075
0.0002912 0.0055414 -0.0105581 0.0229470 -0.0016945 -0.0019972 -0.0033683 -0.0050930 0.0000559 0.0005463 0.0014837 0.0014735 0.0035882 -0.0023128 0.0004137 -0.0001860 0.0002915 -0.0000830 0.0036245 0.0017079
-0.0021097 0.0017486 -0.0054324 0.0149608 -0.0002575 -0.0021136 -0.0003196 -0.0122092 0.0000628 0.0006036 -0.0002056 0.0002371 0.0068527 -0.0058813 0.0003763 -0.0001565 0.0002605 0.0000172 0.0029734 -0.0004901
0.0018637 -0.0071544 0.0027884 0.0040531 0.0055952 -0.0080083 -0.0094565 0.0080481 0.0000485 0.0006547 -0.0007480 0.0021761 0.0060227 -0.0031780 0.0003458 -0.0001222 0.0002026 0.0001077 0.0023413 0.0029232
0.0057608 -0.0165462 0.0070426 -0.0134190 -0.0019121 0.0015680 -0.0038614 -0.0020557 0.0000302 0.0006074 -0.0035654 0.0047597 0.0045953 -0.0017762 0.0003267 -0.0002574 0.0002137 -0.0000764 0.0025539 0.0007676
-0.0046912 0.0021926 0.0062396 -0.0121558 -0.0028106 0.0036071 0.0063749 -0.0302569 0.0000198 0.0004344 -0.0066006 0.0059452 0.0024172 -0.0008852 0.0003094 -0.0004590 0.0002206 -0.0003048 -0.0083635 0.0117316
-0.0302111 0.0357381 0.0077878 -0.0126239 -0.0023770 -0.0029757 0.0089840 -0.0259597 0.0000145 0.0003056 -0.0073286 0.0072838 0.0060223 -0.0064518 0.0002980 -0.0005526 0.0002068 -0.0003432 -0.0180034 0.0122653
-0.0110715 0.0239335 0.0045156 0.0018334 -0.0028861 0.0095553 0.0077260 -0.0220811 0.0000017 0.0002765 -0.0016186 0.0023436 -0.0026617 -0.0050905 0.0002939 -0.0005519 0.0002130 -0.0003337 0.0006974 -0.0112170
0.0030574 0.0024888 -0.0008673 0.0076789 0.0030186 -0.0033721 -0.0063455 -0.0003888 -0.0000135 0.0002777 0.0007549 0.0009107 -0.0218485 0.0127242 0.0002877 -0.0004962 0.0002011 -0.0002474 0.0023565 0.0000791
-0.0004676 0.0105950 -0.0060937 -0.0028195 0.0072584 -0.0218810 -0.0010650 -0.0043476 -0.0000248 0.0002899 0.0010789 0.0016058 -0.0146172 0.0096102 0.0002883 -0.0005276 0.0002075 -0.0002286 -0.0009608 0.0012775
-0.0012904 0.0076561 0.0010413 -0.0081441 0.0092539 -0.0203913 0.0045151 -0.0160529 -0.0000142 0.0002080 0.0046418 -0.0035045 -0.0046348 -0.0028463 0.0002580 -0.0007243 0.0002202 -0.0004107 0.0101197 -0.0217635
0.0009639 -0.0014938 0.0091659 -0.0182757 0.0028988 -0.0020038 -0.0002638 -0.0125060 0.0000442 0.0001072 0.0051228 -0.0035431 -0.0065800 0.0016801 0.0002342 -0.0008850 0.0002605 -0.0004767 0.0064624 -0.0057858
0.0065849 -0.0057228 0.0023978 0.0014420 -0.0002132 0.0043041 -0.0058975 -0.0048354 0.0001442 0.0001563 0.0008962 0.0011339 -0.0017321 0.0022750 0.0002443 -0.0009118 0.0003112 -0.0003819 0.0061890 -0.0042977
0.0024241 -0.0048754 -0.0041101 0.0105087 0.0104185 -0.0282841 0.0001946 -0.0105946 0.0002204 0.0002446 -0.0012732 0.0007769 0.0053102 -0.0049595 0.0001639 -0.0009319 0.0002244 -0.0003231 0.0101859 -0.0181929
-0.0020032 -0.0094274 -0.0007117 0.0019673 0.0155129 -0.0287093 -0.0014539 0.0091472 0.0002126 0.0002608 -0.0003948 -0.0006932 0.0053582 -0.0062261 0.0000646 -0.0008677 0.0001171 -0.0002271 0.0012444 -0.0023409
0.0028617 -0.0219869 0.0004340 -0.0000617 0.0037369 0.0012528 -0.0066314 0.0202671 0.0001796 0.0002341 -0.0039669 0.0004122 0.0058210 -0.0075141 0.0000598 -0.0008637 0.0001025 -0.0002598 -0.0036221 0.0077539
0.0012231 -0.0165658 0.0042024 -0.0117377 -0.0106641 0.0154990 -0.0011531 -0.0067104 0.0001718 0.0000984 -0.0061023 0.0026067 0.0058684 -0.0055142 0.0000691 -0.0010480 0.0001054 -0.0004828 -0.0030171 0.0094208
0.0124829 -0.0368910 0.0026979 -0.0072381 -0.0023151 0.0024968 0.0285935 -0.0763789 0.0001689 -0.0000968 -0.0065914 0.0035336 0.0064654 -0.0067674 0.0000637 -0.0011921 0.0001232 -0.0006101 -0.0036499 0.0049026
0.0170805 -0.0412662 -0.0085455 0.0166022 0.0010096 -0.0080440 0.0082066 -0.0075096 0.0001658 -0.0001868 -0.0011714 -0.0016596 -0.0003950 -0.0077654 0.0000598 -0.0012169 0.0001236 -0.0005712 0.0028236 -0.0108925
0.0239047 -0.0547711 -0.0026245 0.0093578 -0.0151590 -0.0002707 0.0009535 0.0096265 0.0001600 -0.0001841 0.0013313 -0.0014242 -0.0166709 0.0091168 0.0000593 -0.0011830 0.0001174 -0.0004678 0.0013354 -0.0019278
0.0056442 -0.0065294 0.0002509 0.0089478 -0.0071568 -0.0003057 -0.0051017 0.0068454 0.0001557 -0.0001263 0.0018018 -0.0008827 -0.0188278 0.0136191 0.0000586 -0.0011153 0.0001357 -0.0003642 0.0003062 -0.0107248
-0.0044641 0.0157402 -0.0072275 0.0171297 -0.0036694 0.0051453 -0.0069276 -0.0013428 0.0001563 -0.0000319 0.0055858 -0.0054137 -0.0052772 -0.0004213 0.0000498 -0.0010580 0.0001159 -0.0002663 0.0123098 -0.0278992
0.0049227 -0.0024254 -0.0069877 0.0177646 -0.0028985 0.0040592 -0.0204152 0.0151661 0.0001589 -0.0000336 0.0040375 -0.0038990 0.0017377 -0.0040878 0.0000452 -0.0011377 0.0000923 -0.0003234 0.0092406 -0.0077430
0.0126555 -0.0292853 -0.0027953 0.0112700 -0.0054730 0.0093861 -0.0124531 0.0152927 0.0001589 -0.0001672 -0.0015763 0.0004180 0.0019492 -0.0003253 0.0000467 -0.0012765 0.0001098 -0.0004896 0.0095891 -0.0092364
0.0103682 -0.0329738 -0.0021943 -0.0004696 -0.0125424 0.0073617 0.0043429 -0.0194053 0.0001540 -0.0002323 -0.0026676 -0.0015175 0.0023009 -0.0014186 0.0000470 -0.0013265 0.0001203 -0.0005091 0.0079079 -0.0104275
0.0023178 -0.0101405 -0.0044774 0.0049280 0.0100951 -0.0302628 -0.0020532 -0.0031435 0.0001476 -0.0001874 -0.0007334 -0.0032904 0.0005304 -0.0010263 0.0000458 -0.0013018 0.0001182 -0.0004324 0.0006726 -0.0012140
-0.0133958 0.0078901 -0.0052961 0.0099732 -0.0025137 0.0105523 -0.0049791 0.0087362 0.0001457 -0.0000945 -0.0026740 -0.0008614 -0.0007290 -0.0018741 0.0000495 -0.0012391 0.0001363 -0.0003333 -0.0043143 0.0020868
-0.0175046 0.0077569 -0.0090983 0.0105243 -0.0077983 0.0191418 -0.0077535 0.0052805 0.0001402 0.0000283 -0.0038459 -0.0011058 0.0023306 -0.0052068 0.0000511 -0.0011581 0.0001409 -0.0002072 -0.0088664 0.0086723
0.0052355 -0.0087925 -0.0039694 0.0059854 0.0023448 -0.0111833 -0.0001005 0.0052159 0.0001270 0.0001061 -0.0047552 -0.0004531 0.0026123 -0.0025321 0.0000468 -0.0011730 0.0001240 -0.0002496 -0.0107369 0.0105386
0.0251946 -0.0410312 -0.0019631 0.0046676 -0.0092717 0.0111557 -0.0010947 0.0072421 0.0001190 0.0000734 0.0006561 -0.0049858 -0.0065210 0.0014493 0.0000521 -0.0013112 0.0001262 -0.0004727 0.0045184 -0.0123280
0.0047475 0.0083560 -0.0049216 -0.0035937 -0.0140812 0.0218463 -0.0003425 -0.0035212 0.0001124 0.0000444 0.0034084 -0.0052413 -0.0209476 0.0111098 0.0000563 -0.0013743 0.0001400 -0.0005435 0.0078478 -0.0106163
-0.0037381 0.0216980 0.0023309 -0.0089179 -0.0050621 -0.0026520 0.0109441 -0.0281137 0.0001025 0.0001005 0.0032358 -0.0022409 -0.0221052 0.0096431 0.0000614 -0.0013417 0.0001508 -0.0004879 0.0049285 -0.0098457
0.0008070 -0.0005554 -0.0014778 -0.0036327 -0.0059776 0.0079863 -0.0030155 0.0021878 0.0000897 0.0002026 0.0050749 -0.0060620 -0.0010601 -0.0084621 0.0000597 -0.0012959 0.0001376 -0.0003842 0.0097695 -0.0283315
-0.0011226 -0.0011405 -0.0076986 0.0135040 -0.0088706 0.0224777 -0.0086065 0.0180837 0.0001631 0.0005360 0.0045436 -0.0063343 0.0037414 -0.0034196 0.0000765 -0.0012268 0.0001635 -0.0001679 0.0080401 -0.0203178
0.0026149 0.0046156 -0.0105874 0.0222816 -0.0073860 0.0144593 -0.0034595 0.0070919 0.0003084 0.0009921 -0.0012357 -0.0002709 0.0023500 0.0013983 0.0001290 -0.0011634 0.0002179 -0.0001925 0.0079661 -0.0140035
0.0007767 0.0053766 -0.0030106 0.0078999 -0.0001861 -0.0058127 -0.0011664 0.0059063 0.0003797 0.0011689 -0.0021114 -0.0022013 0.0067999 -0.0066698 0.0001728 -0.0011844 0.0002209 -0.0005339 0.0040006 -0.0061255
0.0009296 -0.0088409 0.0138757 -0.0180440 0.0032436 0.0018099 -0.0038212 0.0156223 0.0003666 0.0011045 0.0002349 -0.0040886 0.0058803 -0.0050783 0.0001956 -0.0012105 0.0002195 -0.0007836 -0.0023202 0.0052454
0.0007914 -0.0111448 0.0110682 -0.0157566 0.0060395 -0.0047424 -0.0041337 0.0051014 0.0003016 0.0009831 -0.0050209 0.0015092 0.0025633 -0.0021339 0.0002220 -0.0011437 0.0002435 -0.0008365 -0.0020773 0.0005533
0.0054686 -0.0081027 0.0028849 -0.0114147 0.0112450 -0.0250325 0.0081556 -0.0213683 0.0002199 0.0009132 -0.0053907 0.0009528 0.0027400 -0.0056677 0.0002390 -0.0010349 0.0002544 -0.0007803 0.0004690 -0.0102741
0.0030538 0.0021934 0.0060230 -0.0265253 0.0014419 -0.0019190 0.0143586 -0.0163278 0.0001686 0.0009206 -0.0048056 0.0007718 0.0037159 -0.0036978 0.0002363 -0.0009671 0.0002784 -0.0007119 -0.0059871 -0.0019736
-0.0104856 0.0166649 -0.0115253 0.0067577 -0.0042523 0.0059627 0.0198683 -0.0291224 0.0001746 0.0010304 0.0005268 -0.0037661 -0.0051308 0.0028915 0.0002348 -0.0009375 0.0003227 -0.0006166 0.0032264 -0.0101232
-0.0127840 0.0163325 -0.0118063 0.0227107 -0.0038331 0.0077321 0.0125040 -0.0237509 0.0001918 0.0011104 0.0039151 -0.0044936 -0.0238684 0.0165143 0.0002483 -0.0009896 0.0003305 -0.0006564 0.0076758 -0.0111248
0.0015159 0.0048392 -0.0057146 0.0158672 -0.0008007 -0.0029407 0.0019140 0.0030294 0.0001659 0.0010082 0.0028958 -0.0007858 -0.0185087 0.0124387 0.0002663 -0.0011165 0.0003225 -0.0009069 0.0030944 -0.0059417
0.0086796 -0.0091346 -0.0021154 0.0046101 -0.0148276 0.0031880 0.0007221 -0.0002935 0.0001495 0.0009404 0.0048173 -0.0061450 -0.0031106 -0.0015133 0.0002633 -0.0011964 0.0003385 -0.0010644 0.0043270 -0.0098801
0.0160611 -0.0229920 -0.0004789 0.0154353 -0.0084058 0.0132202 -0.0084457 0.0085073 0.0001474 0.0009753 0.0029131 -0.0046779 0.0033012 -0.0022069 0.0002692 -0.0011503 0.0003428 -0.0010137 0.0034242 0.0021905
0.0173502 -0.0315657 0.0014461 0.0158020 -0.0026250 0.0153991 -0.0037992 0.0042132 0.0001242 0.0010373 -0.0042437 0.0027337 0.0036140 0.0031403 0.0003008 -0.0010376 0.0003300 -0.0008925 0.0038273 0.0018668
-0.0029683 -0.0234327 0.0012506 0.0068835 -0.0063409 0.0148000 0.0013212 -0.0040367 0.0001127 0.0011404 -0.0072244 0.0012715 0.0079544 -0.0043211 0.0003108 -0.0010089 0.0003494 -0.0008423 0.0001638 -0.0073222
-0.0023369 -0.0179010 0.0016222 0.0032277 0.0033827 0.0077576 -0.0035041 0.0157011 0.0001275 0.0012678 -0.0060897 0.0014105 0.0088180 -0.0080787 0.0003044 -0.0010624 0.0004036 -0.0008759 -0.0086115 0.0063648
0.0089099 -0.0237310 -0.0023366 0.0041420 0.0036653 0.0084415 -0.0028703 0.0149046 0.0001590 0.0013066 -0.0043486 0.0021010 -0.0018903 0.0028216 0.0003049 -0.0012198 0.0004672 -0.0009947 -0.0075786 0.0049909
0.0074891 -0.0176098 -0.0099164 0.0151403 -0.0015027 0.0055859 -0.0038322 0.0033003 0.0001820 0.0012415 -0.0015588 -0.0019862 -0.0063626 0.0029982 0.0003190 -0.0012838 0.0004959 -0.0010568 -0.0035124 -0.0000979
0.0032339 -0.0065442 -0.0005276 0.0035071 0.0027983 -0.0033367 -0.0008631 0.0054111 0.0001573 0.0011819 -0.0028138 -0.0018292 -0.0020720 0.0012780 0.0003199 -0.0012086 0.0004757 -0.0009444 -0.0032421 0.0068545
0.0081165 -0.0111294 -0.0023211 -0.0014440 0.0034822 -0.0059842 -0.0007276 0.0058565 0.0001161 0.0011695 0.0009131 -0.0031481 -0.0056165 0.0051599 0.0002984 -0.0011418 0.0004462 -0.0008266 -0.0010586 0.0083640
0.0042767 0.0034117 -0.0078088 0.0114186 0.0007392 0.0055768 -0.0093452 -0.0013382 0.0000960 0.0012022 0.0049859 -0.0058727 -0.0078713 0.0047082 0.0002992 -0.0010489 0.0004348 -0.0007226 0.0042153 0.0019805
0.0001756 0.0106806 0.0020426 -0.0045145 -0.0027507 0.0176148 0.0005148 -0.0220342 0.0000788 0.0012555 0.0045919 -0.0049693 -0.0053485 0.0031889 0.0003120 -0.0009681 0.0004399 -0.0006089 0.0065521 -0.0088578
0.0071144 -0.0149813 0.0179674 -0.0427551 -0.0106767 0.0236633 -0.0067460 0.0001731 0.0000647 0.0012296 0.0035623 -0.0046711 0.0037292 -0.0054153 0.0002776 -0.0011432 0.0004572 -0.0006521 0.0015629 -0.0097736
0.0035054 -0.0005966 0.0028199 -0.0044511 -0.0091915 0.0170908 -0.0135710 0.0150688 0.0000522 0.0011045 0.0022204 -0.0036357 0.0074754 -0.0063157 0.0003479 -0.0012310 0.0005197 -0.0007005 -0.0003726 -0.0018034
0.0009613 0.0052427 -0.0090311 0.0162630 0.0018545 0.0026086 0.0060731 -0.0161278 0.0000376 0.0010207 -0.0044536 0.0036933 0.0073618 -0.0018351 0.0004817 -0.0010050 0.0005676 -0.0006546 0.0037636 -0.0025412
-0.0004266 -0.0068538 -0.0087754 0.0062978 0.0009897 0.0038350 0.0153651 -0.0335347 0.0000292 0.0010135 -0.0087721 0.0056851 0.0093274 -0.0082263 0.0005181 -0.0009132 0.0006213 -0.0005910 0.0023059 -0.0113873
0.0002277 -0.0161419 -0.0119021 0.0070536 -0.0036637 0.0161801 0.0041199 -0.0079442 0.0000165 0.0010403 -0.0058225 0.0033885 0.0088734 -0.0083426 0.0005908 -0.0007462 0.0006912 -0.0004542 -0.0154038 0.0091882
-0.0026764 -0.0106558 -0.0071291 0.0052496 -0.0002673 0.0112763 0.0035221 -0.0102701 -0.0000042 0.0010712 -0.0021883 0.0015402 -0.0045409 0.0066187 0.0006680 -0.0004926 0.0007117 -0.0003568 -0.0196357 0.0170129
-0.0158670 0.0116860 0.0103255 -0.0242767 0.0061869 -0.0093487 -0.0012137 -0.0007051 -0.0000190 0.0010214 0.0016723 -0.0038987 -0.0277798 0.0173120 0.0006857 -0.0004757 0.0007179 -0.0004596 -0.0019387 -0.0059109
-0.0079869 0.0116773 0.0087459 -0.0248149 -0.0001426 -0.0081412 0.0006791 0.0035893 -0.0000249 0.0009047 -0.0000776 -0.0009703 -0.0152907 0.0090407 0.0006932 -0.0005295 0.0007002 -0.0005412 0.0056429 -0.0073500
-0.0009758 0.0126550 -0.0118381 0.0022446 -0.0050836 0.0067966 0.0041989 -0.0021747 -0.0000346 0.0008359 0.0013329 0.0007750 -0.0078535 0.0095498 0.0006943 -0.0004687 0.0006698 -0.0004576 0.0057379 0.0017661
0.0026800 0.0062585 -0.0201414 0.0202942 0.0067817 -0.0158612 0.0018930 0.0046530 -0.0000433 0.0008272 0.0060891 -0.0045681 -0.0038769 0.0043159 0.0007049 -0.0003694 0.0006625 -0.0003835 0.0067817 -0.0001857
0.0087128 -0.0099337 0.0023495 -0.0040751 0.0205201 -0.0430102 -0.0046101 0.0111108 -0.0000440 0.0008492 0.0056702 -0.0038724 -0.0046408 0.0044382 0.0007266 -0.0002204 0.0006435 -0.0002468 0.0055808 -0.0008995
0.0003047 -0.0030573 0.0150505 -0.0252574 0.0019640 0.0091670 -0.0048583 -0.0004305 -0.0000503 0.0008510 0.0003999 0.0019684 0.0032774 0.0028400 0.0007400 -0.0001596 0.0006226 -0.0002307 -0.0018905 0.0035058
-0.0103023 0.0100564 0.0126094 -0.0154318 -0.0084167 0.0163667 0.0076458 -0.0184904 -0.0000565 0.0007359 -0.0023393 0.0008701 0.0093054 -0.0049252 0.0007616 -0.0002564 0.0006102 -0.0003945 -0.0108482 0.0064829
-0.0028998 0.0005105 0.0092713 -0.0089727 -0.0152751 0.0186345 0.0015476 -0.0019392 -0.0000554 0.0005760 -0.0015138 -0.0027863 0.0076551 -0.0048639 0.0007719 -0.0003181 0.0005902 -0.0004361 -0.0094938 0.0127632
-0.0059260 -0.0024515 0.0027202 0.0048105 -0.0111268 0.0129519 0.0025988 -0.0080436 -0.0000563 0.0005061 -0.0029105 -0.0000162 0.0046669 -0.0010938 0.0007727 -0.0003017 0.0006020 -0.0003676 -0.0127872 0.0163607
-0.0082441 0.0049134 0.0067748 -0.0005025 -0.0111627 0.0127929 0.0091415 -0.0200244 -0.0000647 0.0005091 -0.0030142 -0.0002219 0.0020912 -0.0020656 0.0007775 -0.0002264 0.0006135 -0.0002288 -0.0148342 0.0113687
-0.0104685 0.0090916 0.0122008 -0.0096402 -0.0050803 0.0126983 0.0097411 -0.0239569 -0.0000706 0.0004902 0.0009102 -0.0022942 -0.0045214 0.0017243 0.0007635 -0.0000993 0.0005495 0.0000018 -0.0225525 0.0170469
-0.0052569 0.0052133 0.0060394 -0.0015139 0.0025129 -0.0045125 0.0072465 -0.0281711 -0.0000612 0.0004241 0.0037018 -0.0027373 -0.0100334 0.0033739 0.0007250 -0.0001326 0.0004566 -0.0000350 -0.0086840 0.0087542
0.0003195 0.0091519 -0.0017208 0.0038922 -0.0023839 -0.0118975 -0.0006515 0.0006617 -0.0000267 0.0003383 0.0043163 -0.0042217 -0.0122854 0.0050058 0.0006942 -0.0003105 0.0003859 -0.0002843 0.0053070 -0.0034224
-0.0018663 0.0077222 -0.0010980 0.0042139 -0.0058608 0.0061128 0.0009388 0.0049699 0.0000398 0.0003202 0.0030202 -0.0020311 -0.0043777 0.0027004 0.0006852 -0.0004295 0.0003526 -0.0003794 0.0049300 0.0019348
-0.0003708 -0.0018522 0.0057849 -0.0041900 -0.0138370 0.0236100 -0.0006487 0.0021357 0.0001287 0.0004180 0.0020462 -0.0012736 0.0044176 -0.0031316 0.0006834 -0.0004759 0.0003764 -0.0003686 0.0034853 0.0026125
0.0028102 -0.0079657 0.0070690 -0.0162965 -0.0041530 0.0026498 -0.0092341 0.0107248 0.0001834 0.0005002 0.0031189 -0.0038197 0.0032416 0.0004284 0.0006824 -0.0004315 0.0003915 -0.0002968 0.0002096 -0.0005764
0.0007159 -0.0016195 -0.0171777 -0.0010398 -0.0041461 0.0062627 -0.0001512 0.0048231 0.0001736 0.0005242 -0.0003934 -0.0000936 0.0025592 0.0032753 0.0006830 -0.0004035 0.0003720 -0.0002918 -0.0090333 0.0079917
-0.0077530 0.0158768 0.0011713 -0.0030912 -0.0172377 0.0131485 -0.0028719 0.0107365 0.0001521 0.0004230 -0.0030504 0.0006036 0.0059428 -0.0031407 0.0006809 -0.0005274 0.0003551 -0.0004909 -0.0124803 0.0057003
-0.0131659 0.0150218 0.0132320 -0.0160195 -0.0076475 -0.0035911 -0.0131329 0.0122486 0.0001435 0.0002519 0.0005884 -0.0045512 0.0075507 -0.0065784 0.0006762 -0.0006645 0.0003608 -0.0006672 -0.0107698 0.0088138
-0.0016522 -0.0006702 0.0137161 -0.0244167 -0.0022736 0.0012100 -0.0041298 0.0010719 0.0001414 0.0001733 0.0012153 -0.0041773 0.0019859 -0.0003359 0.0006782 -0.0006917 0.0003980 -0.0006697 -0.0079495 0.0138567
0.0028908 -0.0052725 0.0081607 -0.0129117 -0.0003022 0.0101617 -0.0101685 0.0154055 0.0001458 0.0001672 0.0007455 -0.0044557 -0.0090948 0.0047292 0.0006926 -0.0006676 0.0004422 -0.0006032 -0.0046626 0.0026180
0.0030874 -0.0150156 0.0155678 -0.0277115 -0.0034679 0.0187771 -0.0070357 0.0122993 0.0001456 0.0002008 0.0043375 -0.0080636 -0.0022696 -0.0031995 0.0007064 -0.0005882 0.0004711 -0.0004662 -0.0012040 -0.0015009
0.0118492 -0.0131414 0.0129769 -0.0237068 -0.0042732 0.0115010 -0.0113321 0.0219912 0.0001433 0.0002790 0.0052634 -0.0054810 0.0023801 -0.0008495 0.0007087 -0.0005257 0.0004717 -0.0003401 0.0058478 -0.0002750
0.0113156 -0.0122606 0.0101101 -0.0227513 -0.0050495 0.0157414 -0.0106353 0.0180221 0.0001492 0.0002643 0.0042238 -0.0032232 0.0012821 0.0009289 0.0007127 -0.0006151 0.0004842 -0.0004875 0.0075890 -0.0030775
0.0007633 -0.0059294 0.0045137 -0.0098301 -0.0048334 0.0144795 0.0092922 -0.0175017 0.0001564 0.0001623 0.0001615 -0.0012430 0.0042920 -0.0042808 0.0007238 -0.0007311 0.0005070 -0.0006644 0.0049215 -0.0036228
-0.0032961 -0.0009454 -0.0111813 0.0117522 -0.0052163 0.0122672 0.0066793 -0.0145153 0.0001554 0.0001419 -0.0042243 0.0017619 0.0060461 -0.0032667 0.0007271 -0.0007291 0.0005132 -0.0006216 -0.0004107 -0.0026027
-0.0053628 -0.0012668 0.0025337 -0.0010262 -0.0033322 0.0077826 -0.0027652 -0.0041842 0.0001611 0.0002000 -0.0013744 -0.0011276 0.0082231 -0.0069058 0.0007344 -0.0006651 0.0005342 -0.0005371 -0.0015276 -0.0073273
0.0015824 -0.0015650 0.0141833 -0.0160950 -0.0025529 0.0044303 0.0006191 -0.0119131 0.0001639 0.0002831 -0.0001696 -0.0013418 0.0054963 -0.0063254 0.0007418 -0.0005704 0.0005813 -0.0004566 0.0054163 -0.0128345
0.0062325 -0.0033265 0.0079483 -0.0158108 -0.0096245 0.0072589 0.0074456 -0.0265824 0.0001540 0.0003718 -0.0028008 0.0027179 -0.0030112 0.0050505 0.0007433 -0.0004874 0.0005955 -0.0003394 0.0023272 0.0021654
0.0063291 -0.0094267 0.0020949 -0.0029450 0.0022807 -0.0243476 -0.0006635 -0.0101515 0.0001490 0.0003782 0.0001587 0.0004912 -0.0043356 0.0055538 0.0007530 -0.0005444 0.0005939 -0.0004060 -0.0065395 0.0113455
-0.0001639 0.0024313 0.0111175 -0.0158258 0.0007435 0.0002008 -0.0069856 -0.0013704 0.0001495 0.0002923 0.0044437 -0.0039331 -0.0098046 0.0071825 0.0007479 -0.0006320 0.0006103 -0.0005730 -0.0103953 0.0123463
0.0042879 0.0009384 0.0067594 -0.0108913 -0.0054867 0.0167463 0.0022868 -0.0129661 0.0001523 0.0002784 0.0045877 -0.0040230 -0.0117573 0.0088174 0.0007405 -0.0006079 0.0006081 -0.0005523 0.0003247 0.0039576
0.0069842 -0.0051028 -0.0022292 0.0081301 -0.0184349 0.0246216 -0.0023380 0.0041691 0.0001575 0.0003562 0.0030285 -0.0048638 0.0021347 -0.0033323 0.0007459 -0.0005308 0.0006183 -0.0004707 0.0067942 -0.0096540
0.0044034 -0.0068212 -0.0028489 0.0041571 -0.0340071 0.0281943 -0.0037556 0.0065755 0.0001573 0.0004599 0.0008428 -0.0025267 0.0066923 -0.0070500 0.0007474 -0.0004216 0.0006179 -0.0003457 0.0032314 -0.0044245
0.0049460 -0.0210907 -0.0050084 0.0042206 -0.0077820 0.0101796 -0.0001177 0.0008000 0.0001514 0.0005911 -0.0001216 0.0008724 0.0052650 -0.0022889 0.0007466 -0.0003422 0.0006107 -0.0002484 0.0012680 0.0016031
-0.0027337 -0.0007637 -0.0072259 0.0171822 -0.0044478 0.0068506 -0.0020298 -0.0012324 0.0001529 0.0006308 -0.0033031 0.0022794 0.0043552 -0.0049527 0.0007446 -0.0003984 0.0006386 -0.0003894 0.0030112 0.0012471
-0.0129975 0.0114986 -0.0124629 0.0168075 0.0004718 -0.0005851 -0.0064907 0.0018933 0.0001534 0.0005489 -0.0061016 0.0037574 0.0048886 -0.0068552 0.0007480 -0.0004996 0.0006632 -0.0005628 -0.0019796 0.0043016
0.0049252 -0.0048595 -0.0123361 0.0022545 0.0055781 -0.0025473 -0.0071888 0.0044522 0.0001484 0.0005272 -0.0054999 0.0034754 0.0067642 -0.0068620 0.0007496 -0.0004882 0.0006769 -0.0005507 -0.0145700 0.0088534
0.0085153 -0.0022422 -0.0108220 -0.0025849 -0.0048706 0.0069284 0.0065757 -0.0165165 0.0001440 0.0005998 0.0006623 -0.0009468 -0.0042734 -0.0019672 0.0007506 -0.0004171 0.0006736 -0.0004655 0.0049588 -0.0131264
-0.0021229 0.0069213 -0.0036004 -0.0130456 -0.0134438 0.0184664 0.0025761 -0.0039636 0.0001377 0.0006823 0.0048465 -0.0035304 -0.0193116 0.0112442 0.0007516 -0.0003234 0.0006474 -0.0003353 0.0083631 -0.0096075
0.0034328 -0.0055119 0.0051303 -0.0309324 -0.0073649 0.0077342 -0.0002134 -0.0035841 0.0001232 0.0007467 0.0032258 -0.0004213 -0.0132674 0.0073490 0.0007474 -0.0002088 0.0006342 -0.0002142 0.0015724 -0.0015363
0.0142321 -0.0352532 0.0129579 -0.0447633 -0.0004656 -0.0139400 0.0088392 -0.0148307 0.0000980 0.0008019 0.0030898 -0.0004888 0.0013830 -0.0042328 0.0007422 -0.0001649 0.0006156 -0.0001952 0.0042326 -0.0146977
0.0154644 -0.0359106 -0.0062709 -0.0013672 -0.0081147 0.0073368 0.0086433 -0.0147667 0.0000828 0.0007318 0.0028381 -0.0013738 0.0067433 -0.0047897 0.0007292 -0.0002686 0.0005883 -0.0003754 0.0033963 -0.0049005
0.0208949 -0.0388146 -0.0149606 0.0129899 -0.0032591 0.0005961 0.0005828 -0.0064159 0.0000788 0.0005602 -0.0031084 0.0029568 0.0057321 -0.0021931 0.0007263 -0.0003743 0.0006002 -0.0005734 0.0065810 -0.0069644
0.0119807 -0.0196140 -0.0054568 0.0066526 -0.0055169 0.0087278 -0.0064678 0.0007852 0.0000751 0.0004779 -0.0060981 0.0023945 0.0081546 -0.0063093 0.0007335 -0.0003711 0.0006473 -0.0006150 -0.0017990 -0.0095701
0.0016233 -0.0043807 -0.0158825 0.0213062 0.0004240 0.0078904 0.0068906 -0.0208722 0.0000686 0.0004838 -0.0041848 0.0020196 0.0065660 -0.0050129 0.0007343 -0.0003152 0.0006638 -0.0005436 -0.0168044 0.0086814
0.0061950 -0.0078825 -0.0129941 0.0061011 0.0051989 0.0006332 0.0051000 -0.0054326 0.0000563 0.0005299 -0.0013743 0.0017413 -0.0045164 0.0067461 0.0007328 -0.0002342 0.0006626 -0.0004294 -0.0189547 0.0110206
0.0006516 -0.0059819 0.0047062 -0.0163572 -0.0039929 0.0195766 -0.0003575 0.0057064 0.0000512 0.0005992 0.0009112 -0.0012205 -0.0148134 0.0110295 0.0007347 -0.0001362 0.0006756 -0.0003375 -0.0100656 0.0020550
-0.0028969 0.0108703 -0.0065198 0.0073792 -0.0047899 0.0151941 -0.0044600 0.0081929 0.0000473 0.0006683 0.0017925 -0.0011233 -0.0138012 0.0084000 0.0007273 -0.0001126 0.0006787 -0.0003356 -0.0020423 0.0031486
-0.0001211 0.0142219 -0.0008629 -0.0099615 -0.0042399 0.0056949 0.0078820 -0.0125167 0.0000443 0.0006026 0.0033972 -0.0014401 -0.0085551 0.0097409 0.0007060 -0.0002316 0.0006619 -0.0005144 0.0006899 0.0098384
0.0041638 -0.0022508 0.0073653 -0.0210104 -0.0026628 0.0020018 0.0135867 -0.0290167 0.0000450 0.0004278 0.0056507 -0.0047024 -0.0017599 0.0031262 0.0006963 -0.0003246 0.0006416 -0.0006584 0.0062105 0.0018504
-0.0015488 0.0027502 -0.0015753 0.0032707 0.0023973 -0.0109620 -0.0080530 0.0058717 0.0000448 0.0003285 0.0051855 -0.0041138 -0.0008688 0.0019534 0.0006995 -0.0003029 0.0006404 -0.0006118 0.0057769 0.0006268
-0.0065925 0.0074285 -0.0001973 -0.0072057 0.0020072 -0.0009102 -0.0132852 0.0173647 0.0000432 0.0003225 -0.0010254 0.0029482 0.0034643 0.0019782 0.0007054 -0.0002350 0.0006497 -0.0004957 -0.0025993 0.0074184
0.0065763 -0.0053546 -0.0044417 -0.0102682 -0.0008807 0.0073073 -0.0123806 0.0114624 0.0000402 0.0003554 -0.0038533 0.0035580 0.0062664 -0.0023905 0.0007165 -0.0001454 0.0006731 -0.0002808 -0.0022250 -0.0113096
-0.0008198 0.0101876 -0.0004410 -0.0008158 0.0001399 -0.0037142 -0.0016932 -0.0128354 0.0000445 0.0004082 -0.0000669 -0.0019158 0.0038087 -0.0003135 0.0007207 -0.0000411 0.0006881 -0.0000381 0.0000102 -0.0110348
-0.0088011 0.0133590 0.0073237 -0.0081447 0.0075640 -0.0203190 0.0082984 -0.0362906 0.0000477 0.0004363 0.0001638 -0.0010752 -0.0022195 0.0055464 0.0007174 -0.0000693 0.0006927 -0.0000342 -0.0076158 0.0065611
-0.0046192 0.0006663 0.0039102 0.0043921 -0.0022516 -0.0075831 -0.0047174 -0.0023172 0.0000567 0.0003416 -0.0003636 -0.0001850 -0.0064816 0.0028397 0.0007131 -0.0002328 0.0007082 -0.0002458 -0.0064215 0.0025381
-0.0145459 0.0095384 -0.0035371 0.0158118 0.0009807 -0.0070307 -0.0118773 0.0180639 0.0000728 0.0002240 0.0035995 -0.0036365 -0.0000171 -0.0059183 0.0007047 -0.0002968 0.0007013 -0.0003029 -0.0056054 0.0047188
-0.0086761 0.0000493 0.0010293 -0.0020798 0.0054536 -0.0115437 -0.0128171 0.0192929 0.0000792 0.0002052 0.0054374 -0.0033793 -0.0042874 0.0032064 0.0006933 -0.0002539 0.0006743 -0.0001960 -0.0010937 0.0034232
0.0082245 -0.0188010 0.0252097 -0.0514989 -0.0041632 -0.0103277 -0.0032864 0.0046581 0.0000852 0.0002500 0.0057527 -0.0046281 -0.0085748 0.0074996 0.0006884 -0.0001896 0.0006672 -0.0001054 0.0047918 -0.0033135
0.0047835 -0.0135709 0.0073856 -0.0104871 -0.0024820 -0.0061883 0.0017832 -0.0008191 0.0000930 0.0003176 0.0032996 -0.0029271 0.0018510 -0.0034780 0.0006835 -0.0000967 0.0006570 0.0000221 0.0003673 0.0074998
-0.0022844 0.0001320 -0.0022436 -0.0010901 -0.0028747 0.0042488 -0.0034461 0.0089974 0.0000966 0.0003933 0.0014526 0.0004741 0.0064775 -0.0041865 0.0006754 -0.0000609 0.0006308 0.0000867 -0.0031029 0.0104693
0.0005235 0.0062069 0.0028876 -0.0164580 0.0085447 -0.0175390 -0.0046563 0.0050895 0.0001010 0.0003417 0.0006432 0.0000299 0.0051215 -0.0001848 0.0006751 -0.0001808 0.0006365 -0.0000952 -0.0026047 0.0007968
0.0017783 0.0032508 -0.0035148 -0.0011503 0.0138063 -0.0267673 -0.0054219 0.0075158 0.0001054 0.0001839 -0.0023147 0.0016002 0.0022936 -0.0005528 0.0006830 -0.0002946 0.0006761 -0.0002893 0.0039770 -0.0128293
0.0015177 0.0031758 0.0043690 -0.0110766 -0.0003577 -0.0023684 -0.0015561 0.0037694 0.0001086 0.0001222 -0.0014177 0.0017007 -0.0020914 0.0012191 0.0006896 -0.0002875 0.0006918 -0.0002727 0.0024999 -0.0047704
-0.0007190 0.0087536 0.0005443 0.0032479 -0.0030450 0.0013853 0.0013705 -0.0030611 0.0001102 0.0001573 0.0018450 -0.0003070 -0.0023677 0.0028219 0.0006878 -0.0002160 0.0006854 -0.0001810 -0.0076703 0.0067109
-0.0049183 0.0093387 -0.0027805 0.0055799 0.0008835 -0.0072224 -0.0024343 0.0091203 0.0001102 0.0002311 0.0038045 -0.0014510 -0.0071982 0.0042355 0.0006764 -0.0001142 0.0006742 -0.0000601 -0.0006755 -0.0008225
-0.0040928 0.0126359 0.0205762 -0.0448138 -0.0033495 -0.0119816 -0.0061835 0.0084667 0.0001101 0.0003292 0.0044843 -0.0014448 -0.0177792 0.0110915 0.0006679 0.0000039 0.0006452 0.0001030 0.0045175 -0.0027377
0.0035008 0.0029629 0.0263523 -0.0563064 0.0048870 -0.0125878 -0.0138327 0.0153724 0.0001107 0.0003820 0.0030625 -0.0011317 -0.0008983 0.0003514 0.0006610 0.0000220 0.0006385 0.0000988 0.0005828 0.0029223
-0.0039676 0.0044002 -0.0019818 -0.0013776 -0.0002031 0.0039826 -0.0068562 0.0070279 0.0001135 0.0002890 0.0016604 -0.0005087 0.0062177 -0.0035387 0.0006520 -0.0001053 0.0006380 -0.0001267 -0.0001226 0.0037868
-0.0088857 0.0087408 -0.0007805 0.0086192 0.0005574 0.0050084 -0.0108790 0.0161503 0.0001165 0.0001561 0.0031595 -0.0015501 0.0035928 0.0007493 0.0006543 -0.0001814 0.0006291 -0.0002377 0.0011132 0.0017505
-0.0048444 0.0097234 0.0080603 -0.0111720 0.0101493 -0.0103557 -0.0059856 0.0156410 0.0001127 0.0000852 0.0008891 -0.0021342 0.0035410 -0.0026125 0.0006582 -0.0001553 0.0006243 -0.0001403 0.0017360 0.0042210
-0.0026872 0.0119087 0.0217463 -0.0582354 0.0036770 -0.0026283 0.0013030 -0.0114767 0.0000959 0.0000904 -0.0025887 -0.0000620 0.0028770 -0.0029714 0.0006494 -0.0000786 0.0006065 0.0000126 -0.0049798 0.0120947
0.0063835 -0.0083185 0.0136601 -0.0304548 0.0023455 -0.0090892 0.0066394 -0.0277427 0.0000707 0.0001424 -0.0042364 0.0031447 0.0020305 -0.0004976 0.0006429 0.0000288 0.0005942 0.0001507 -0.0202428 0.0168998
0.0017789 -0.0106233 -0.0030659 0.0072874 -0.0018147 -0.0038198 0.0201167 -0.0550929 0.0000649 0.0001880 -0.0001238 -0.0000550 -0.0026916 0.0007593 0.0006429 0.0001525 0.0005916 0.0003000 0.0000524 -0.0095001
0.0065557 -0.0093930 -0.0042288 0.0171819 -0.0081585 0.0171654 0.0057945 -0.0273093 0.0000772 0.0002349 0.0039733 -0.0021040 -0.0133369 0.0078236 0.0006349 0.0001677 0.0005837 0.0003161 0.0064736 -0.0074753
0.0053260 -0.0014052 0.0047386 0.0062221 -0.0006236 0.0011733 0.0011144 -0.0060443 0.0000828 0.0001700 0.0034829 0.0013579 -0.0166695 0.0104396 0.0006300 0.0000388 0.0005809 0.0001439 0.0040768 -0.0017165
-0.0030698 0.0083391 0.0047916 0.0040473 0.0081851 -0.0143680 -0.0005135 0.0000999 0.0000868 0.0000577 0.0038971 -0.0006342 -0.0021604 0.0000082 0.0006237 -0.0000067 0.0005759 0.0000672 0.0055565 -0.0100380
-0.0070044 0.0126924 -0.0030875 0.0141922 -0.0049724 0.0081306 -0.0042034 0.0037015 0.0000898 0.0000473 0.0033972 -0.0013244 0.0047125 -0.0010326 0.0006171 0.0000624 0.0005647 0.0001621 0.0006336 0.0009934
-0.0006551 0.0015588 0.0013512 -0.0020431 -0.0141044 0.0136058 -0.0029430 -0.0039858 0.0000916 0.0001049 -0.0016538 0.0032962 0.0054760 0.0010615 0.0006169 0.0001538 0.0005632 0.0002894 0.0054728 -0.0015520
0.0105762 -0.0260169 0.0152411 -0.0321971 -0.0062027 0.0110260 -0.0017860 -0.0029799 0.0000891 0.0001932 -0.0038609 0.0022167 0.0082964 -0.0043483 0.0006175 0.0002500 0.0005736 0.0004165 0.0032751 -0.0103050
-0.0116595 0.0149323 0.0287175 -0.0523771 -0.0038024 0.0125116 -0.0084091 0.0092531 0.0000834 0.0003023 -0.0027708 0.0021933 0.0074457 -0.0063628 0.0006182 0.0003372 0.0005895 0.0005500 -0.0154214 0.0079874
-0.0171157 0.0265478 0.0369753 -0.0805165 -0.0033337 0.0097093 -0.0127548 0.0119221 0.0000817 0.0003197 -0.0007058 0.0024096 -0.0023272 -0.0007943 0.0006247 0.0003061 0.0006157 0.0004981 -0.0192385 0.0085514
-0.0118553 0.0041807 0.0177614 -0.0598013 -0.0026435 -0.0019898 -0.0041192 -0.0051845 0.0000816 0.0002344 0.0027424 -0.0014282 -0.0154577 0.0062822 0.0006330 0.0002172 0.0006553 0.0003725 -0.0020362 -0.0089161
0.0056732 -0.0193436 -0.0096821 -0.0088864 0.0074780 -0.0171630 0.0036367 -0.0078183 0.0000964 0.0002211 0.0024569 -0.0015021 -0.0264174 0.0145544 0.0006562 0.0002488 0.0007327 0.0004291 0.0021066 0.0052685
-0.0000896 0.0073592 -0.0256372 0.0234591 0.0070734 -0.0123570 -0.0024041 0.0124597 0.0001375 0.0003439 0.0044457 -0.0026838 -0.0098428 0.0055118 0.0006747 0.0002894 0.0008315 0.0005393 0.0010598 0.0098732
-0.0093015 0.0066541 -0.0016121 0.0016695 0.0016394 -0.0127819 0.0023135 -0.0027762 0.0001780 0.0004998 0.0058856 -0.0036021 0.0021478 -0.0020571 0.0006717 0.0003018 0.0009346 0.0006721 0.0050764 -0.0033350
-0.0131343 0.0077844 0.0147006 -0.0281800 0.0045714 -0.0078803 0.0077534 -0.0171291 0.0001610 0.0005761 0.0035546 -0.0002973 0.0014905 0.0012992 0.0006883 0.0004510 0.0009855 0.0008978 0.0050573 0.0000871
-0.0171744 0.0204038 -0.0064657 0.0170446 -0.0000547 0.0050755 -0.0068298 0.0070145 0.0001081 0.0006058 0.0011284 0.0028315 0.0040357 0.0016818 0.0007077 0.0004891 0.0009947 0.0008770 -0.0021536 0.0109548
-0.0124086 0.0142652 -0.0232108 0.0325345 -0.0082205 0.0143064 -0.0100600 0.0146771 0.0000784 0.0005292 -0.0001542 0.0018769 0.0071218 -0.0028757 0.0007132 0.0003477 0.0010242 0.0006339 -0.0107862 0.0074475
-0.0035044 0.0102076 -0.0133665 0.0123645 -0.0013732 0.0108215 0.0024383 -0.0003176 0.0000593 0.0004082 -0.0015049 -0.0000200 0.0057535 -0.0022423 0.0007185 0.0003219 0.0010388 0.0005921 -0.0088459 0.0049877
-0.0097351 0.0173894 -0.0007993 -0.0007175 0.0054222 -0.0088928 0.0184875 -0.0422015 0.0000483 0.0003771 -0.0023484 0.0026226 0.0000649 0.0026478 0.0007265 0.0003753 0.0010674 0.0006676 -0.0065255 0.0124256
-0.0142302 0.0163181 -0.0020545 0.0057457 0.0045549 -0.0137712 0.0050626 -0.0169660 0.0000534 0.0003910 -0.0003704 0.0017998 -0.0051855 0.0037378 0.0007326 0.0004067 0.0011151 0.0007270 -0.0011859 0.0023055
-0.0052503 0.0116982 0.0009451 -0.0005716 -0.0057928 0.0070316 0.0055468 -0.0088669 0.0000580 0.0004332 0.0033573 -0.0023179 0.0002931 -0.0045662 0.0007309 0.0004679 0.0011192 0.0008678 -0.0007620 0.0037953
-0.0053304 0.0186188 0.0066733 -0.0160479 -0.0000975 0.0034136 0.0062926 -0.0098085 0.0000494 0.0004780 0.0049515 -0.0020513 -0.0002719 -0.0003751 0.0007198 0.0005157 0.0010809 0.0009556 -0.0002060 0.0090170
-0.0027714 0.0170099 0.0053728 -0.0053627 0.0036190 0.0060768 -0.0005731 -0.0001276 0.0000352 0.0003847 0.0053378 -0.0023717 -0.0037906 0.0033189 0.0007158 0.0004280 0.0010607 0.0007908 0.0112786 -0.0115080
-0.0064239 0.0167844 0.0034012 -0.0054783 0.0008717 0.0027922 -0.0001723 0.0054411 0.0000214 0.0001850 0.0023927 -0.0014265 0.0027038 -0.0043248 0.0007240 0.0003548 0.0010605 0.0006412 0.0073918 -0.0021539
-0.0162704 0.0169445 -0.0057361 0.0026794 0.0095515 -0.0199437 0.0014056 0.0074678 0.0000114 0.0000826 -0.0024024 0.0026732 0.0047489 -0.0013420 0.0007327 0.0003894 0.0010581 0.0006858 -0.0036275 0.0097132
0.0026090 0.0004134 -0.0050684 0.0006872 0.0085244 -0.0172325 0.0050756 0.0010094 0.0000109 0.0000822 -0.0018041 0.0002793 0.0058870 -0.0022104 0.0007380 0.0004477 0.0010602 0.0007892 -0.0054509 0.0001108
0.0044086 0.0037778 0.0001733 -0.0020592 0.0018585 -0.0048842 0.0059409 -0.0041899 0.0000087 0.0001228 -0.0010667 -0.0004198 0.0020000 -0.0017132 0.0007464 0.0005055 0.0010770 0.0008885 -0.0001873 -0.0054384
0.0038853 0.0078993 -0.0068880 0.0070935 -0.0058665 0.0068516 0.0057534 -0.0117761 0.0000191 0.0001920 -0.0017934 0.0040243 -0.0072127 0.0071568 0.0007339 0.0005017 0.0011004 0.0009775 -0.0053872 0.0098722
0.0024388 0.0003297 -0.0115293 0.0110403 -0.0036611 0.0052943 0.0058989 -0.0114508 0.0000314 0.0001908 0.0017534 0.0021749 -0.0115440 0.0089913 0.0007124 0.0004158 0.0010991 0.0008913 -0.0112071 0.0144075
-0.0059951 -0.0086128 -0.0080237 0.0119806 -0.0002664 0.0034874 0.0076445 -0.0159784 0.0000182 -0.0000001 0.0055509 -0.0023426 -0.0142657 0.0092311 0.0007076 0.0003069 0.0010783 0.0006724 -0.0006429 0.0010026
0.0196440 -0.0349383 0.0054456 -0.0009121 -0.0039521 0.0143167 0.0102815 -0.0222843 -0.0000048 -0.0002083 0.0048780 -0.0018902 -0.0030882 0.0034285 0.0007076 0.0002819 0.0010529 0.0006285 0.0057589 0.0006773
0.0093666 -0.0086208 0.0091915 -0.0077426 -0.0048623 0.0120683 0.0075453 -0.0114700 -0.0000217 -0.0002762 0.0011310 0.0012242 0.0060481 -0.0021722 0.0007114 0.0003576 0.0010339 0.0007036 0.0084760 -0.0090540
-0.0080912 0.0107652 -0.0033662 -0.0004827 -0.0017633 0.0016394 -0.0010768 0.0077428 -0.0000323 -0.0002559 -0.0000802 0.0006955 0.0093906 -0.0062704 0.0007066 0.0004495 0.0010215 0.0007827 0.0051995 -0.0070935
-0.0112065 -0.0009718 0.0036151 -0.0052967 0.0088498 -0.0149213 -0.0047933 0.0141054 -0.0000374 -0.0001943 -0.0007010 0.0021411 0.0060674 -0.0022567 0.0007021 0.0005525 0.0010104 0.0008927 -0.0061880 0.0147690
-0.0060319 -0.0121729 0.0092981 -0.0095330 0.0105796 -0.0202932 -0.0097557 0.0125707 -0.0000391 -0.0000927 -0.0029997 0.0040516 -0.0005596 0.0026807 0.0007142 0.0006723 0.0009899 0.0010302 -0.0115835 0.0165865
-0.0043489 0.0009024 0.0048131 -0.0079646 -0.0025593 -0.0027550 -0.0180921 0.0269665 -0.0000476 -0.0000831 -0.0021272 0.0021836 -0.0022987 0.0018688 0.0007099 0.0006771 0.0009336 0.0010187 -0.0083469 0.0045688
-0.0013604 -0.0001129 0.0018933 -0.0031250 -0.0046984 -0.0054101 -0.0003312 0.0118536 -0.0000448 -0.0002513 -0.0029934 0.0035467 -0.0040066 0.0064509 0.0006738 0.0006097 0.0008314 0.0009338 -0.0099369 0.0106740
0.0023007 -0.0023117 -0.0031887 0.0040002 0.0002612 0.0028103 0.0060483 0.0015319 -0.0000058 -0.0002964 0.0000537 0.0018151 -0.0095443 0.0103590 0.0006582 0.0006702 0.0007010 0.0009317 -0.0014721 0.0102621
-0.0018134 0.0150293 -0.0045462 0.0057896 -0.0022459 0.0160946 -0.0019936 0.0101982 0.0000478 -0.0001322 0.0040863 -0.0013806 -0.0099416 0.0077701 0.0006636 0.0007601 0.0006208 0.0009490 0.0047141 0.0021689
-0.0016138 0.0110340 0.0002253 0.0083570 -0.0054052 0.0160895 -0.0053205 0.0133736 0.0000838 0.0000451 0.0038279 -0.0001042 -0.0076038 0.0048757 0.0006640 0.0008108 0.0006046 0.0010309 0.0056957 -0.0010176
-0.0053953 0.0104498 0.0028803 0.0031454 -0.0038015 0.0042993 -0.0051074 0.0073177 0.0001011 0.0001943 0.0024327 0.0009537 -0.0013251 0.0020630 0.0006563 0.0008868 0.0006016 0.0011610 0.0019352 -0.0028428
-0.0161672 0.0232852 0.0092550 -0.0103499 -0.0006882 -0.0026028 0.0081934 -0.0283097 0.0001087 0.0003035 -0.0000677 0.0006756 0.0054805 -0.0024981 0.0006502 0.0008885 0.0006005 0.0011834 -0.0071730 -0.0013915
-0.0148991 0.0178585 0.0078172 -0.0126322 0.0050610 -0.0025477 0.0083724 -0.0204699 0.0001182 0.0003061 -0.0033409 0.0029351 0.0055865 0.0005624 0.0006489 0.0007797 0.0006037 0.0010379 -0.0136461 0.0098264
-0.0071463 0.0148609 0.0014246 -0.0076194 0.0076990 -0.0115846 0.0015026 0.0030577 0.0001324 0.0002673 -0.0052868 0.0058981 0.0027515 0.0008017 0.0006643 0.0007309 0.0006508 0.0009325 -0.0128361 0.0103849
0.0002170 0.0062975 0.0040351 -0.0090274 0.0027790 -0.0065764 -0.0026181 0.0140012 0.0001421 0.0002820 -0.0054268 0.0057043 0.0004678 -0.0045118 0.0006893 0.0007781 0.0007011 0.0009606 -0.0158863 0.0122734
0.0025743 0.0004674 -0.0037458 0.0049023 0.0065839 -0.0125404 -0.0034160 0.0158853 0.0001406 0.0003422 0.0005278 0.0009963 -0.0061970 0.0031024 0.0007108 0.0008438 0.0007353 0.0009662 -0.0229731 0.0202931
-0.0056567 0.0080419 -0.0028574 0.0132367 0.0087196 -0.0225068 -0.0006088 0.0072203 0.0001431 0.0004329 0.0049495 -0.0021597 -0.0126887 0.0114743 0.0007182 0.0009071 0.0007828 0.0009783 -0.0020250 0.0017241
0.0033244 -0.0093342 -0.0028176 0.0016741 0.0085398 -0.0193968 0.0051324 -0.0011156 0.0001370 0.0004920 0.0042248 -0.0020035 -0.0139145 0.0120051 0.0007198 0.0008964 0.0007908 0.0009048 0.0070913 -0.0040026
0.0034559 -0.0095763 0.0041144 -0.0302309 0.0095074 -0.0250977 0.0021864 0.0085441 0.0001187 0.0004600 0.0028265 -0.0010866 -0.0039038 0.0052391 0.0007067 0.0008371 0.0007520 0.0006643 0.0020519 0.0070458
-0.0046397 0.0006161 0.0084508 -0.0281903 0.0013998 -0.0043308 -0.0013243 0.0011088 0.0001128 0.0004389 0.0025790 -0.0015300 0.0031727 0.0009971 0.0006849 0.0008396 0.0006994 0.0004959 0.0023375 -0.0015674
0.0009220 -0.0083998 -0.0023151 0.0019132 0.0012598 -0.0012395 0.0111656 -0.0378256 0.0000982 0.0004739 0.0018866 -0.0012631 0.0037540 0.0012585 0.0006738 0.0009034 0.0006548 0.0005062 0.0008373 -0.0010280
-0.0167763 0.0125759 -0.0106092 0.0125602 -0.0020827 -0.0037486 0.0021776 -0.0062911 0.0000743 0.0005097 -0.0024676 0.0030387 0.0041258 0.0022064 0.0006497 0.0009517 0.0006438 0.0006306 -0.0098696 0.0094901
-0.0031769 0.0016066 -0.0198510 0.0059545 -0.0056513 0.0068697 -0.0063451 0.0010024 0.0000619 0.0006010 -0.0054834 0.0053604 0.0052150 -0.0014052 0.0006381 0.0010113 0.0006600 0.0007609 -0.0273281 0.0197240
0.0110349 -0.0136489 0.0021481 -0.0239796 -0.0049282 0.0087914 0.0015000 -0.0091356 0.0000686 0.0007185 -0.0003419 0.0002097 0.0045070 -0.0013243 0.0006539 0.0010224 0.0007231 0.0008785 -0.0297276 0.0244971
0.0012858 -0.0002620 0.0019606 -0.0062104 -0.0075154 0.0177390 0.0014856 0.0020312 0.0000770 0.0006206 0.0030405 -0.0013566 -0.0067572 0.0084745 0.0006764 0.0009213 0.0007782 0.0009162 -0.0046941 0.0114170
-0.0013632 0.0062691 0.0015545 0.0027194 -0.0112767 0.0185449 -0.0070156 0.0069258 0.0000739 0.0004250 0.0035340 -0.0007660 -0.0145028 0.0119469 0.0006884 0.0008864 0.0007783 0.0008876 0.0015331 0.0069834
0.0011941 0.0046683 0.0002556 -0.0002513 -0.0077556 0.0024070 -0.0055765 0.0052027 0.0000882 0.0004260 0.0034995 -0.0019758 0.0015574 -0.0019092 0.0006754 0.0009083 0.0007593 0.0008028 0.0016225 0.0046775
0.0049472 -0.0128213 -0.0064372 0.0100000 -0.0134399 0.0183930 -0.0036326 0.0116545 0.0000794 0.0004558 0.0028988 -0.0012104 0.0054326 -0.0014203 0.0006509 0.0009182 0.0006709 0.0006937 0.0031839 0.0058943
-0.0027522 -0.0036890 0.0026217 0.0015058 -0.0124788 0.0192349 0.0052711 -0.0007391 0.0000141 0.0003940 0.0041575 -0.0026908 0.0049463 -0.0006571 0.0006273 0.0009591 0.0005696 0.0006198 0.0044402 0.0026069
-0.0179177 0.0128037 0.0035116 -0.0102347 -0.0037223 0.0015036 0.0173936 -0.0302563 -0.0000620 0.0003076 -0.0005908 -0.0002261 0.0082695 -0.0076558 0.0006125 0.0009697 0.0005605 0.0005864 0.0034384 0.0042905
-0.0073293 0.0084658 -0.0167745 0.0212849 -0.0114878 0.0025201 -0.0009136 0.0019447 -0.0001086 0.0001286 -0.0070573 0.0061296 0.0062448 -0.0014929 0.0006098 0.0008874 0.0005843 0.0005852 -0.0099568 0.0178879
0.0024270 0.0009024 -0.0065511 0.0204040 -0.0133733 0.0003781 0.0001173 0.0066390 -0.0001314 -0.0001360 -0.0040851 0.0030322 0.0034160 0.0019168 0.0006047 0.0008127 0.0006025 0.0005609 -0.0338596 0.0342673
0.0144958 -0.0212541 0.0030261 0.0040176 -0.0030909 -0.0047392 0.0037126 0.0051276 -0.0001476 -0.0003117 -0.0000683 -0.0009210 0.0001110 -0.0034339 0.0006062 0.0008306 0.0006251 0.0005963 -0.0037622 0.0030079
0.0094788 -0.0067306 -0.0080043 0.0161534 0.0027763 -0.0050963 0.0002701 -0.0023851 -0.0001415 -0.0003113 0.0020615 -0.0003540 -0.0098152 0.0066372 0.0006102 0.0008908 0.0006301 0.0007592 0.0057252 -0.0035343
-0.0002255 0.0124204 -0.0060931 0.0212308 0.0052444 -0.0164034 0.0052184 -0.0240962 -0.0001305 -0.0002362 0.0036252 -0.0003693 -0.0170211 0.0136763 0.0006135 0.0009569 0.0006390 0.0009268 0.0006119 0.0040255
-0.0031204 0.0102994 0.0031819 -0.0041923 0.0039235 -0.0138771 -0.0005749 0.0035595 -0.0001326 -0.0001758 0.0049847 -0.0013900 -0.0043343 0.0010175 0.0006031 0.0010251 0.0006284 0.0010672 0.0076780 -0.0097787
-0.0001298 0.0035969 0.0058169 -0.0228941 -0.0074188 0.0181131 -0.0048978 0.0131435 -0.0001418 -0.0001871 0.0041316 -0.0004022 0.0029274 0.0002919 0.0005861 0.0009838 0.0006113 0.0010547 0.0036209 0.0036395
0.0105265 -0.0114484 0.0060133 -0.0061811 -0.0069883 0.0144389 -0.0041754 0.0096107 -0.0001477 -0.0003072 0.0000122 0.0018841 0.0038865 0.0024555 0.0005822 0.0008844 0.0006264 0.0009024 0.0034928 0.0004714
0.0138906 -0.0168234 -0.0010520 0.0037271 0.0047789 -0.0079180 -0.0045659 0.0066188 -0.0001367 -0.0003726 -0.0030351 0.0016318 0.0091416 -0.0063147 0.0005780 0.0008680 0.0006481 0.0008348 -0.0003424 -0.0084088
0.0024340 0.0061731 -0.0179835 0.0261500 -0.0045606 0.0219432 -0.0099961 0.0234437 -0.0001301 -0.0003118 -0.0041631 0.0043553 0.0085439 -0.0061398 0.0005703 0.0009094 0.0006466 0.0008839 -0.0143978 0.0143809
-0.0017932 0.0049560 -0.0172793 0.0185740 -0.0024475 0.0201545 -0.0072751 0.0200132 -0.0001346 -0.0002121 -0.0022964 0.0053671 -0.0045917 0.0061338 0.0005627 0.0009800 0.0006593 0.0010056 -0.0074641 0.0079771
-0.0050669 0.0140584 -0.0144164 0.0191752 0.0019840 0.0056753 -0.0008701 -0.0004340 -0.0001354 -0.0001035 0.0012945 0.0009177 -0.0114281 0.0073838 0.0005563 0.0010610 0.0006761 0.0011343 -0.0002356 -0.0052320
-0.0077677 0.0197453 -0.0107863 0.0244637 -0.0021385 0.0112895 0.0059414 -0.0099443 -0.0001338 -0.0000391 0.0003170 0.0018984 -0.0054845 0.0067739 0.0005436 0.0010461 0.0006467 0.0011190 -0.0071094 0.0097215
0.0027840 -0.0138621 0.0016875 -0.0046942 -0.0010337 0.0085695 0.0016431 -0.0010792 -0.0001331 -0.0000697 0.0018464 0.0022987 -0.0070146 0.0116119 0.0005291 0.0009669 0.0006012 0.0009877 -0.0042531 0.0145168
0.0107474 -0.0365821 0.0067249 -0.0275427 0.0021286 -0.0078239 -0.0164421 0.0251468 -0.0001360 -0.0000696 0.0056696 -0.0019818 -0.0017121 0.0026180 0.0005207 0.0009451 0.0005831 0.0009406 0.0101808 -0.0038539
0.0106981 -0.0172886 -0.0090263 0.0005948 0.0190803 -0.0505486 -0.0139943 0.0189222 -0.0001454 -0.0000243 0.0043320 -0.0007129 -0.0014398 0.0013658 0.0005148 0.0009871 0.0005952 0.0010505 0.0114569 -0.0075721
0.0102773 -0.0240817 -0.0071431 -0.0026817 0.0112063 -0.0233564 0.0070272 -0.0087957 -0.0001606 0.0000240 -0.0002283 0.0037475 0.0023674 0.0022160 0.0005118 0.0010729 0.0005962 0.0012284 -0.0040475 0.0077553
0.0048010 -0.0335085 0.0093225 -0.0107583 0.0001209 0.0013025 0.0002414 0.0005740 -0.0001609 0.0001005 -0.0019075 0.0037368 0.0090130 -0.0047210 0.0005126 0.0011168 0.0005935 0.0013153 -0.0131091 0.0108083
0.0134670 -0.0372531 0.0078444 -0.0027817 -0.0019967 0.0082871 -0.0103837 0.0107040 -0.0001497 0.0000877 -0.0012980 0.0017059 0.0090512 -0.0029497 0.0005098 0.0010686 0.0005713 0.0012642 -0.0099037 0.0136153
0.0080674 -0.0226363 0.0059538 -0.0154640 -0.0069925 0.0148165 0.0053944 -0.0137335 -0.0001422 -0.0000156 -0.0027465 0.0034428 0.0034746 0.0030267 0.0005146 0.0010109 0.0005614 0.0012116 -0.0123975 0.0174565
-0.0111978 0.0073749 0.0014624 -0.0047059 -0.0117372 0.0186152 0.0202806 -0.0537282 -0.0001404 -0.0000594 -0.0020071 0.0035123 -0.0005624 0.0021623 0.0005152 0.0010145 0.0005738 0.0012283 -0.0115580 0.0122026
-0.0075707 0.0090554 0.0002365 -0.0013415 -0.0028696 0.0094606 0.0030079 -0.0165140 -0.0001422 -0.0000294 0.0026854 0.0000963 -0.0006253 0.0002219 0.0005046 0.0010585 0.0005642 0.0012768 -0.0106555 0.0128024
-0.0027872 -0.0024037 0.0197120 -0.0464732 0.0008781 0.0014351 -0.0014967 -0.0037590 -0.0001414 0.0000388 0.0036267 0.0008998 -0.0063890 0.0045703 0.0004937 0.0011113 0.0005669 0.0014105 -0.0024749 0.0060570
-0.0052538 0.0040707 0.0125872 -0.0147240 -0.0013442 -0.0037892 -0.0084429 0.0124588 -0.0001250 0.0001212 0.0036267 0.0009312 -0.0064517 0.0035983 0.0004825 0.0011113 0.0006064 0.0014771 0.0039516 0.0002408
-0.0131171 0.0177033 0.0091802 -0.0107803 -0.0067619 0.0096051 -0.0057400 0.0134831 -0.0000989 0.0001247 0.0029142 0.0008392 0.0037433 -0.0029679 0.0004879 0.0010363 0.0006274 0.0013826 0.0034213 0.0091483
-0.0148640 0.0113875 0.0081306 -0.0158455 -0.0136524 0.0186571 0.0042167 0.0000326 -0.0000805 0.0000834 0.0008781 0.0023176 0.0065928 -0.0018673 0.0005009 0.0010041 0.0006116 0.0013214 0.0021096 0.0088529
0.0043608 -0.0123994 0.0051330 0.0000866 -0.0083633 0.0104756 0.0079113 -0.0094251 -0.0000818 0.0000831 0.0016699 0.0006098 0.0049084 -0.0001035 0.0005034 0.0010283 0.0006197 0.0013343 0.0001856 0.0047400
0.0047481 -0.0188186 0.0015369 0.0083853 0.0075902 -0.0081705 0.0027562 -0.0055503 -0.0000775 0.0001385 -0.0009194 0.0020064 0.0034557 0.0000015 0.0005060 0.0010303 0.0006682 0.0013819 -0.0068172 0.0060430
-0.0006577 -0.0196866 -0.0022690 0.0085121 0.0014545 0.0043616 -0.0130876 0.0096370 -0.0000544 0.0002401 -0.0030745 0.0036826 0.0030347 -0.0004198 0.0005086 0.0010307 0.0007256 0.0014916 -0.0297186 0.0226597
-0.0018980 0.0041805 0.0004239 -0.0026391 -0.0002629 0.0047217 -0.0052860 -0.0007146 -0.0000446 0.0002667 0.0016170 -0.0007121 0.0049065 -0.0020205 0.0005161 0.0010226 0.0007345 0.0014389 -0.0308353 0.0302798
-0.0065090 0.0190873 0.0028106 -0.0002574 0.0056188 -0.0111398 -0.0058889 0.0080621 -0.0000530 0.0001409 0.0047028 -0.0010390 -0.0030501 0.0031467 0.0005189 0.0009301 0.0007242 0.0012280 -0.0031326 0.0086474
-0.0040964 0.0099911 0.0072881 -0.0114745 -0.0056623 0.0195039 -0.0062370 0.0049299 -0.0000667 -0.0000315 0.0041106 0.0010358 -0.0142403 0.0085285 0.0004898 0.0007672 0.0007456 0.0011606 0.0078214 -0.0038807
0.0057012 -0.0080262 0.0042459 0.0002141 -0.0075344 0.0231957 0.0105761 -0.0214905 -0.0000791 -0.0001385 0.0055208 -0.0040598 0.0032240 -0.0062513 0.0004675 0.0006871 0.0007650 0.0012344 0.0045096 -0.0011176
0.0032875 -0.0030188 -0.0028289 0.0077215 -0.0047392 0.0108612 0.0059113 -0.0030727 -0.0000985 -0.0001963 0.0052784 -0.0036643 0.0067679 -0.0052309 0.0004817 0.0006997 0.0007617 0.0013258 0.0034584 0.0061448
0.0070166 -0.0097979 0.0048743 -0.0036542 0.0058032 -0.0064361 0.0001759 0.0097434 -0.0001183 -0.0002293 0.0037134 -0.0019500 0.0045705 -0.0002206 0.0005292 0.0007762 0.0007353 0.0013517 0.0099839 -0.0048902
0.0113595 -0.0234195 0.0084994 -0.0098267 0.0003579 0.0023936 0.0015107 -0.0018621 -0.0001308 -0.0003428 -0.0012785 -0.0002593 0.0092371 -0.0071438 0.0005612 0.0007301 0.0007325 0.0011278 0.0139413 -0.0108687
0.0048048 -0.0172972 -0.0125568 0.0130907 -0.0054577 0.0168001 0.0022897 0.0023608 -0.0001347 -0.0005783 -0.0084688 0.0069375 0.0085163 -0.0047467 0.0005434 0.0005252 0.0007757 0.0008918 0.0043357 0.0059801
0.0037245 -0.0128193 -0.0115728 0.0245218 0.0043000 0.0010250 -0.0002399 0.0105350 -0.0001281 -0.0007466 -0.0054321 0.0043272 0.0072984 -0.0023963 0.0005204 0.0003555 0.0008472 0.0008287 -0.0113677 0.0079366
0.0020948 -0.0056549 -0.0071895 0.0167871 0.0037177 0.0020596 0.0062928 -0.0096099 -0.0001230 -0.0008043 -0.0000672 -0.0014775 -0.0019361 -0.0012606 0.0005264 0.0003408 0.0008874 0.0008327 0.0036298 -0.0104884
-0.0037830 0.0128854 -0.0074503 0.0058737 -0.0000544 0.0017986 0.0175891 -0.0330172 -0.0001342 -0.0008270 0.0018604 -0.0002578 -0.0344992 0.0225760 0.0005475 0.0004734 0.0008722 0.0009525 0.0067666 0.0005148
-0.0051204 0.0136308 0.0006438 0.0047892 -0.0020380 0.0082988 0.0027835 0.0024003 -0.0001493 -0.0008340 0.0031624 0.0017768 -0.0257103 0.0179939 0.0005538 0.0005160 0.0008693 0.0009431 0.0039837 0.0019694
-0.0029548 0.0036094 0.0047334 -0.0004754 0.0026321 0.0061303 -0.0034967 0.0170525 -0.0001329 -0.0009419 0.0054272 -0.0017203 -0.0007800 -0.0011364 0.0005358 0.0003698 0.0008668 0.0007385 0.0093507 -0.0098929
0.0082543 -0.0030356 0.0116151 -0.0274771 -0.0001490 0.0058872 -0.0016938 0.0174924 -0.0001172 -0.0011358 0.0048281 -0.0016745 0.0067152 -0.0032340 0.0005127 0.0002743 0.0008379 0.0006337 0.0064627 0.0017077
0.0114529 -0.0081149 0.0078722 -0.0118433 -0.0002065 0.0063225 -0.0019565 0.0173365 -0.0001223 -0.0012593 -0.0022869 0.0045554 0.0069279 -0.0006603 0.0005136 0.0003176 0.0008204 0.0006698 0.0079360 -0.0008921
0.0060587 -0.0027018 0.0004830 0.0055599 0.0061451 -0.0073008 0.0061583 -0.0000709 -0.0001302 -0.0012845 -0.0067954 0.0039507 0.0127306 -0.0108005 0.0005176 0.0003845 0.0008495 0.0007292 0.0091356 -0.0124321
0.0065566 -0.0088180 -0.0021406 0.0158258 0.0021454 -0.0060207 0.0093263 -0.0020800 -0.0001371 -0.0012504 -0.0042047 0.0031449 0.0128508 -0.0116626 0.0005075 0.0004395 0.0008464 0.0008620 -0.0016275 0.0011210
0.0039839 -0.0098927 -0.0003280 0.0097401 0.0019883 -0.0018233 0.0033980 0.0051903 -0.0001374 -0.0012037 -0.0033990 0.0059174 0.0003371 0.0024552 0.0004709 0.0003302 0.0008385 0.0008959 -0.0013806 -0.0000410
-0.0014693 0.0049547 -0.0057350 0.0020521 0.0010551 0.0056087 0.0002366 0.0025644 -0.0001370 -0.0012793 -0.0006936 0.0012965 -0.0075543 0.0046408 0.0004425 0.0001110 0.0008649 0.0006949 0.0076486 -0.0146831
0.0010593 0.0021994 0.0006892 -0.0106238 0.0005815 0.0056250 0.0080771 -0.0108753 -0.0001351 -0.0014213 0.0002876 0.0001926 -0.0045621 0.0038904 0.0004668 0.0001069 0.0008453 0.0006077 -0.0009607 0.0061269
0.0153390 -0.0185019 0.0096486 -0.0238516 0.0012072 0.0009213 0.0085124 -0.0111036 -0.0001331 -0.0014594 0.0035180 -0.0010598 -0.0076862 0.0083587 0.0004937 0.0002652 0.0008111 0.0006880 -0.0007131 0.0152825
0.0112991 -0.0035267 0.0027874 -0.0125483 -0.0010896 0.0032605 -0.0025655 0.0075276 -0.0001281 -0.0014107 0.0069123 -0.0048620 -0.0025308 -0.0034742 0.0005041 0.0003763 0.0008075 0.0008113 0.0078311 0.0040418
0.0025298 0.0105251 -0.0088228 0.0084279 0.0011728 -0.0020383 0.0033721 -0.0060991 -0.0001165 -0.0013201 0.0050303 -0.0014388 -0.0045052 0.0002010 0.0005036 0.0005070 0.0008048 0.0009988 0.0079216 0.0026920
0.0024823 0.0034170 -0.0140819 0.0223866 -0.0006760 0.0071932 0.0025131 0.0009115 -0.0000985 -0.0012071 0.0010464 0.0021271 0.0026067 0.0032980 0.0004985 0.0005798 0.0007836 0.0010805 0.0028685 0.0078313
0.0044912 0.0011520 -0.0085199 0.0095087 -0.0079426 0.0199359 -0.0095256 0.0237966 -0.0000813 -0.0011861 -0.0001086 -0.0000140 0.0114184 -0.0063762 0.0004971 0.0005039 0.0007754 0.0009466 -0.0011190 0.0021916
0.0066758 -0.0086669 -0.0105455 0.0008040 0.0030079 -0.0063212 -0.0108227 0.0148426 -0.0000642 -0.0012562 -0.0005910 -0.0011215 0.0082683 -0.0035214 0.0004913 0.0004693 0.0007628 0.0008564 -0.0052116 0.0055825
0.0068751 -0.0164238 -0.0081549 0.0001098 0.0056747 -0.0162760 -0.0008593 -0.0090345 -0.0000516 -0.0012222 -0.0034609 0.0020568 0.0043082 0.0008789 0.0004907 0.0005530 0.0007708 0.0009336 -0.0076449 0.0095240
0.0051101 -0.0112989 -0.0154988 0.0232629 0.0014490 -0.0036832 0.0012589 -0.0103950 -0.0000447 -0.0010336 -0.0034869 0.0023557 0.0027836 0.0003124 0.0005005 0.0006736 0.0007739 0.0010815 -0.0082571 0.0052312
-0.0064242 0.0026937 -0.0107218 0.0168536 0.0021723 -0.0028362 -0.0064406 0.0071016 -0.0000354 -0.0008123 0.0014772 -0.0011037 -0.0024196 0.0026184 0.0004985 0.0008231 0.0007386 0.0012773 -0.0137564 0.0082139
-0.0062099 0.0201579 -0.0014348 -0.0111334 0.0009042 -0.0004454 -0.0092458 0.0126481 -0.0000327 -0.0006041 0.0045709 -0.0017864 -0.0085258 0.0049403 0.0004853 0.0009367 0.0007075 0.0014144 0.0004748 0.0004822
0.0022304 0.0089210 -0.0132862 0.0220846 0.0097482 -0.0181079 -0.0042154 0.0106977 -0.0000331 -0.0004957 0.0046075 -0.0015091 -0.0091138 0.0070921 0.0004690 0.0009136 0.0006587 0.0013591 0.0040884 -0.0014263
-0.0057733 0.0132622 -0.0043045 0.0198644 0.0044450 -0.0083191 -0.0011863 0.0068789 -0.0000334 -0.0005172 0.0032844 -0.0005421 0.0000682 0.0023667 0.0004528 0.0008545 0.0006087 0.0012334 0.0022511 0.0027429
-0.0101232 0.0190509 0.0042623 -0.0063308 -0.0015164 0.0098148 -0.0065147 0.0019620 -0.0000361 -0.0004936 0.0022368 -0.0006948 0.0066057 -0.0023037 0.0004480 0.0008768 0.0005561 0.0012271 0.0065305 -0.0007815
-0.0001502 -0.0068792 0.0047816 -0.0163822 0.0008755 0.0006698 -0.0164457 0.0229586 -0.0000535 -0.0004193 0.0023250 -0.0010211 0.0045227 -0.0005183 0.0004347 0.0009447 0.0004644 0.0012638 0.0020367 0.0006915
0.0151428 -0.0295809 -0.0022693 0.0017267 -0.0082387 0.0055933 -0.0009147 0.0082328 -0.0000923 -0.0003993 -0.0021412 0.0034996 0.0029271 0.0026396 0.0004165 0.0010315 0.0003939 0.0012993 -0.0128029 0.0147084
0.0184031 -0.0294011 -0.0101852 0.0101224 -0.0114804 0.0182660 0.0128241 -0.0267934 -0.0001214 -0.0003659 -0.0061235 0.0062627 0.0036729 0.0007472 0.0004022 0.0010742 0.0003539 0.0013287 -0.0247971 0.0205020
0.0015890 0.0027728 -0.0090143 0.0006983 -0.0005252 0.0055532 0.0065268 -0.0108411 -0.0001278 -0.0004007 -0.0002652 -0.0003878 0.0027718 0.0001497 0.0004010 0.0010726 0.0003246 0.0013804 -0.0261965 0.0259689
0.0008430 0.0006138 -0.0022345 0.0002585 0.0058848 -0.0072385 0.0026490 0.0057628 -0.0001306 -0.0005344 0.0006756 0.0009017 -0.0060696 0.0071906 0.0004152 0.0011162 0.0002973 0.0014785 -0.0120207 0.0150334
0.0023642 0.0024674 0.0023521 -0.0036742 0.0021873 0.0026991 -0.0025789 0.0154349 -0.0001211 -0.0005092 -0.0002059 0.0028995 -0.0127994 0.0100222 0.0004268 0.0011980 0.0002543 0.0015697 0.0024839 -0.0065362
-0.0011752 0.0016075 0.0056643 -0.0137552 -0.0019348 0.0079080 0.0010057 0.0056594 -0.0000967 -0.0003493 0.0026526 -0.0021874 -0.0005217 0.0008051 0.0004184 0.0012917 0.0002099 0.0016354 0.0041504 -0.0038538
-0.0029973 -0.0113874 -0.0131099 0.0187120 -0.0011865 0.0030876 0.0048653 -0.0108275 -0.0000923 -0.0002182 0.0031973 -0.0008416 0.0035915 0.0003125 0.0003869 0.0013688 0.0001574 0.0017223 0.0038074 0.0047117
-0.0026853 -0.0006079 -0.0084547 0.0195847 0.0075966 -0.0107487 0.0035274 -0.0151147 -0.0001089 -0.0001257 0.0041275 -0.0007144 0.0024787 0.0006799 0.0003738 0.0013754 0.0001490 0.0017734 0.0068759 -0.0007300
0.0026542 -0.0061196 -0.0008755 0.0066204 0.0058210 -0.0058842 0.0125151 -0.0323174 -0.0001290 -0.0002111 0.0021379 -0.0014154 0.0058162 -0.0044040 0.0003936 0.0012696 0.0002274 0.0016683 0.0057113 -0.0020194
0.0116510 -0.0154448 0.0016507 0.0028979 -0.0058134 0.0109743 0.0056394 -0.0140418 -0.0001412 -0.0004257 -0.0024275 0.0026952 0.0075084 -0.0034638 0.0004100 0.0011651 0.0002895 0.0015441 -0.0020337 0.0072858
0.0150769 -0.0221891 -0.0017437 0.0133749 -0.0019232 0.0055309 0.0020764 -0.0154903 -0.0001320 -0.0004358 -0.0052524 0.0055416 0.0097758 -0.0075831 0.0004125 0.0011574 0.0003380 0.0015004 -0.0058370 0.0027871
0.0092592 -0.0111768 -0.0133962 0.0201259 0.0034343 -0.0074531 -0.0069054 -0.0038122 -0.0001116 -0.0003027 -0.0041731 0.0031629 0.0061714 -0.0088113 0.0004242 0.0011797 0.0004216 0.0015410 0.0000042 -0.0082859
0.0054058 -0.0059745 -0.0063781 -0.0024999 0.0067006 -0.0229067 -0.0139465 0.0165279 -0.0000937 -0.0001774 -0.0013231 0.0022804 -0.0050020 0.0035483 0.0004330 0.0012334 0.0004708 0.0016605 -0.0048800 0.0052217
-0.0045828 0.0020688 0.0089485 -0.0245162 -0.0023941 0.0007586 -0.0134024 0.0178320 -0.0000915 -0.0000756 0.0018018 0.0018659 -0.0060461 0.0061825 0.0004346 0.0012108 0.0004914 0.0016252 -0.0041494 0.0069520
-0.0168197 0.0120334 -0.0053095 0.0142176 -0.0072307 0.0195430 -0.0082855 0.0151951 -0.0000969 -0.0000809 0.0044556 -0.0020053 -0.0066096 0.0039697 0.0004350 0.0010813 0.0004859 0.0013900 0.0053767 -0.0017307
-0.0043202 0.0037045 -0.0038794 0.0172419 -0.0003799 0.0135977 -0.0107036 0.0120197 -0.0000974 -0.0001338 0.0034485 -0.0010581 -0.0081367 0.0050649 0.0004292 0.0010201 0.0004833 0.0012639 0.0001109 0.0081429
0.0065678 -0.0114259 0.0025123 -0.0012706 -0.0000797 0.0159819 -0.0187414 0.0113053 -0.0000949 -0.0001374 0.0015741 0.0005228 0.0008427 0.0017661 0.0004284 0.0010201 0.0005025 0.0012606 0.0012576 0.0054200
-0.0085170 0.0031695 -0.0043157 -0.0030461 -0.0047882 0.0209425 -0.0018709 0.0008134 -0.0000846 -0.0000734 0.0000938 0.0003953 0.0075218 -0.0006314 0.0004218 0.0010258 0.0004996 0.0012741 0.0054265 -0.0056759
-0.0100378 0.0097753 -0.0001912 -0.0037460 0.0033255 0.0025917 0.0096427 -0.0081508 -0.0000554 0.0000422 0.0005662 0.0010935 0.0077872 -0.0014607 0.0004090 0.0010865 0.0004965 0.0013026 -0.0027707 0.0024722
0.0070371 -0.0177450 -0.0035227 0.0058967 0.0037810 -0.0052098 0.0097358 -0.0135341 -0.0000315 0.0001671 -0.0014977 0.0026216 0.0058772 -0.0025750 0.0004062 0.0010942 0.0004850 0.0011594 -0.0038679 0.0045900
-0.0087108 0.0037032 0.0002055 0.0037355 -0.0043125 0.0014233 0.0122532 -0.0289415 -0.0000143 0.0001991 -0.0060352 0.0058455 0.0011981 0.0004600 0.0004006 0.0009761 0.0004625 0.0009186 -0.0153838 0.0127594
-0.0167061 0.0044264 0.0094782 -0.0141403 0.0051939 -0.0122239 0.0049336 -0.0145924 0.0000023 0.0001117 -0.0046976 0.0044055 -0.0002603 0.0027850 0.0003935 0.0008591 0.0004810 0.0007700 -0.0330412 0.0274656
0.0089049 -0.0390402 -0.0016628 -0.0035487 0.0193208 -0.0427178 -0.0052499 -0.0041493 0.0000170 0.0000540 0.0001131 -0.0005960 -0.0050759 0.0053465 0.0003893 0.0008061 0.0005272 0.0007846 -0.0039625 0.0060196
-0.0084461 -0.0030804 -0.0050738 0.0007779 0.0137782 -0.0323333 0.0023804 -0.0211168 0.0000326 0.0000458 0.0019290 0.0002808 -0.0146860 0.0107128 0.0004004 0.0008744 0.0005605 0.0009466 0.0044407 0.0006797
-0.0182592 0.0119672 -0.0029876 -0.0044885 0.0002270 -0.0104941 0.0025452 -0.0148906 0.0000342 0.0000646 0.0015241 0.0039369 -0.0114982 0.0084682 0.0004077 0.0010183 0.0005584 0.0011169 0.0061253 -0.0031061
-0.0093360 0.0016519 -0.0167302 0.0082558 0.0038199 -0.0127656 -0.0049522 0.0103075 0.0000431 0.0001155 0.0031266 0.0008779 -0.0013532 0.0017105 0.0003954 0.0010530 0.0005554 0.0012034 0.0091921 -0.0081558
0.0075341 -0.0211874 -0.0107491 -0.0023683 -0.0001730 0.0052927 -0.0047263 0.0132093 0.0000479 0.0000821 0.0040329 -0.0022626 0.0044272 0.0019678 0.0003953 0.0009646 0.0005304 0.0011181 0.0007216 0.0088385
0.0004567 -0.0038131 -0.0049537 -0.0066871 -0.0025003 0.0030352 0.0041524 0.0012073 0.0000504 -0.0000472 -0.0013468 0.0030432 0.0047558 0.0029118 0.0004060 0.0009139 0.0005139 0.0009752 -0.0021599 0.0097770
-0.0183471 0.0203975 0.0021142 -0.0109384 -0.0017748 -0.0197532 0.0078836 -0.0073712 0.0000571 -0.0001263 -0.0028334 0.0034600 0.0062630 -0.0030808 0.0004115 0.0009514 0.0005267 0.0009572 -0.0023610 -0.0024645
-0.0211143 0.0189694 0.0127663 -0.0369873 0.0002920 -0.0112255 0.0002213 0.0045064 0.0000619 -0.0001121 -0.0026300 0.0044093 0.0058361 -0.0027030 0.0004010 0.0010143 0.0004960 0.0010458 -0.0102986 0.0133035
0.0008262 -0.0065764 0.0043289 -0.0250270 -0.0006447 0.0059738 -0.0025405 0.0079432 0.0000798 -0.0000374 -0.0026308 0.0066600 -0.0019019 0.0045945 0.0003905 0.0010734 0.0004934 0.0011235 -0.0058497 0.0103678
0.0089414 -0.0147318 -0.0047085 -0.0056935 -0.0019541 0.0056820 0.0078231 -0.0178095 0.0000944 0.0000660 0.0001242 0.0026896 -0.0045730 0.0024393 0.0003777 0.0010772 0.0005349 0.0011232 -0.0015826 0.0028112
-0.0067305 0.0111059 -0.0097673 0.0028862 -0.0032044 0.0002514 0.0161400 -0.0227472 0.0001057 0.0000821 0.0003528 0.0015360 -0.0036620 0.0017847 0.0003691 0.0010236 0.0005518 0.0010612 -0.0057301 0.0097517
-0.0137800 0.0257975 -0.0055526 -0.0004387 -0.0152575 0.0103958 0.0104052 -0.0122160 0.0000832 -0.0001148 0.0020749 0.0014403 -0.0058832 0.0062446 0.0003715 0.0010109 0.0005142 0.0011124 -0.0029172 0.0116957
-0.0080652 0.0092068 0.0171609 -0.0338584 -0.0124538 0.0093642 -0.0013384 -0.0047371 0.0000591 -0.0001933 0.0036187 -0.0000124 0.0013165 -0.0022032 0.0003732 0.0011132 0.0004285 0.0013768 0.0047628 0.0032859
-0.0057593 -0.0054340 0.0039758 -0.0039668 0.0004761 -0.0066468 0.0089981 -0.0213222 0.0001167 -0.0000786 0.0029976 0.0023997 0.0017158 -0.0035811 0.0004444 0.0012742 0.0004447 0.0017143 0.0070699 -0.0027767
-0.0062667 0.0089957 -0.0153988 0.0117972 0.0134753 -0.0323597 0.0159795 -0.0327227 0.0003518 0.0003081 0.0010624 0.0041175 0.0023250 0.0001282 0.0004450 0.0013821 0.0004404 0.0019010 0.0005238 0.0003447
-0.0033366 0.0082474 -0.0024737 -0.0060689 0.0066115 -0.0134979 0.0081613 -0.0139669 0.0004988 0.0006258 0.0000231 0.0027203 0.0052774 -0.0010231 0.0003769 0.0016271 0.0002805 0.0019694 -0.0044919 -0.0015162
-0.0061925 0.0062670 0.0020789 0.0018423 0.0074544 -0.0111179 0.0029520 -0.0016880 0.0004448 0.0005365 -0.0037828 0.0046294 0.0034937 0.0022507 0.0003754 0.0017606 0.0001655 0.0018999 -0.0077419 0.0056975
-0.0035195 -0.0098992 0.0060719 -0.0117082 0.0102485 -0.0188534 0.0012868 -0.0011108 0.0004169 0.0003998 -0.0058738 0.0066950 0.0014937 0.0037419 0.0003936 0.0016522 0.0001523 0.0016586 -0.0084963 0.0059335
0.0055305 -0.0074462 0.0061132 -0.0108710 0.0074872 -0.0223132 -0.0004706 -0.0077870 0.0004008 0.0002944 -0.0032405 0.0039487 0.0014568 0.0017319 0.0004081 0.0016035 0.0001556 0.0015615 -0.0125217 0.0049866
-0.0014866 0.0065050 0.0144370 -0.0126887 0.0119319 -0.0274541 0.0050685 -0.0165750 0.0003758 0.0002562 -0.0005343 0.0019955 -0.0050754 0.0051471 0.0004198 0.0015435 0.0002005 0.0017034 -0.0252316 0.0191699
-0.0065813 0.0107160 0.0167235 -0.0255790 0.0029776 -0.0063824 0.0088571 -0.0203324 0.0003481 0.0002683 0.0031255 0.0012763 -0.0180158 0.0104845 0.0004449 0.0016015 0.0002413 0.0018366 -0.0087658 0.0071257
0.0018059 0.0007743 0.0075974 -0.0220282 -0.0055700 0.0063576 0.0047390 -0.0130483 0.0003241 0.0003201 0.0039223 0.0016984 -0.0155114 0.0091289 0.0004797 0.0017641 0.0002082 0.0018985 -0.0038830 0.0072481
-0.0080317 0.0058586 0.0057409 -0.0297562 -0.0011395 -0.0014909 0.0007864 -0.0166068 0.0003004 0.0002985 0.0032586 0.0020506 -0.0062279 0.0073459 0.0005347 0.0017635 0.0002415 0.0018678 0.0004339 0.0093745
0.0013138 0.0000094 0.0039212 -0.0176822 -0.0009967 0.0015153 0.0078436 -0.0311092 0.0003036 0.0001705 0.0028020 0.0006652 0.0027116 -0.0011064 0.0005783 0.0016451 0.0003409 0.0016833 0.0098931 -0.0077480
0.0162673 -0.0188856 0.0018698 -0.0093092 0.0092710 -0.0108150 0.0071136 -0.0185471 0.0003169 0.0001085 0.0024917 0.0008397 0.0020647 -0.0010140 0.0005664 0.0014158 0.0004187 0.0015194 0.0057557 0.0005702
0.0181563 -0.0264764 -0.0057416 0.0122462 0.0234266 -0.0486542 -0.0055410 0.0186808 0.0003088 0.0001131 -0.0013833 0.0044525 0.0034475 0.0009152 0.0005505 0.0013245 0.0004768 0.0015547 -0.0078062 0.0126690
0.0095637 -0.0079970 -0.0046497 0.0075225 -0.0028820 0.0036904 -0.0051950 0.0201704 0.0002766 0.0001014 -0.0058663 0.0068984 0.0076269 -0.0068136 0.0005567 0.0014425 0.0005319 0.0016874 -0.0215418 0.0091880
0.0050024 0.0065538 -0.0046689 -0.0035552 -0.0053336 0.0126379 0.0062523 -0.0097137 0.0002415 0.0001155 -0.0023492 0.0030616 0.0052006 -0.0046700 0.0005372 0.0014579 0.0005577 0.0017930 -0.0213071 0.0170693
-0.0008541 0.0134443 -0.0056349 0.0081014 0.0016758 -0.0087307 0.0084021 -0.0119530 0.0002326 0.0000900 -0.0018768 0.0046704 -0.0027095 0.0073166 0.0005063 0.0013265 0.0005592 0.0017103 -0.0178497 0.0198338
-0.0056737 0.0107018 -0.0137581 0.0193150 0.0055312 -0.0220513 0.0065277 -0.0028772 0.0002311 -0.0000386 -0.0021933 0.0044875 -0.0072141 0.0086112 0.0004947 0.0011901 0.0005784 0.0015206 -0.0011003 0.0015269
0.0008758 0.0052593 -0.0046286 0.0090896 0.0092783 -0.0144568 0.0085004 -0.0085553 0.0002162 -0.0001283 0.0027314 -0.0006174 -0.0018701 -0.0013583 0.0004978 0.0011871 0.0005748 0.0014929 -0.0029223 0.0082487
0.0060121 -0.0021473 0.0011831 -0.0039725 0.0065547 -0.0043035 0.0002216 -0.0057490 0.0002054 -0.0001104 0.0049700 -0.0010535 -0.0021718 0.0034446 0.0004919 0.0012441 0.0005571 0.0015519 -0.0009563 0.0109707
0.0147170 -0.0387035 -0.0000412 0.0043075 -0.0101083 0.0192328 -0.0045683 0.0061970 0.0002165 -0.0000422 0.0051319 -0.0027085 -0.0031349 0.0057597 0.0004724 0.0012950 0.0005554 0.0015849 0.0071362 -0.0009865
0.0117883 -0.0369698 0.0068350 -0.0083200 -0.0206526 0.0283888 -0.0032864 0.0057520 0.0002251 0.0000882 0.0021110 -0.0009702 0.0018132 0.0010277 0.0004557 0.0013351 0.0005332 0.0016131 0.0040233 0.0057953
0.0172587 -0.0443589 -0.0092223 0.0056292 -0.0112545 0.0206849 -0.0028857 0.0119741 0.0002188 0.0001211 -0.0017953 0.0038908 0.0036643 0.0013179 0.0004480 0.0012799 0.0005036 0.0015203 -0.0013978 0.0101962
0.0102146 -0.0218267 -0.0032678 0.0030439 0.0012433 0.0093850 0.0061058 0.0001384 0.0002162 0.0000259 -0.0009407 0.0029474 0.0065070 -0.0031040 0.0004508 0.0011566 0.0005135 0.0013480 -0.0047690 0.0088104
-0.0000506 -0.0028474 0.0048645 -0.0114824 0.0077282 -0.0120223 0.0026775 0.0005408 0.0002242 0.0000128 -0.0029989 0.0042122 0.0071578 -0.0034096 0.0004630 0.0011362 0.0005334 0.0012954 -0.0046084 0.0087973
-0.0208302 0.0198699 0.0043173 -0.0100030 -0.0025493 0.0054494 -0.0049273 0.0091583 0.0002239 0.0000602 -0.0060236 0.0065084 0.0049279 -0.0005439 0.0004595 0.0011441 0.0005553 0.0013274 -0.0077641 0.0053516
-0.0210715 0.0226499 0.0160194 -0.0280189 0.0015395 0.0054351 0.0030111 -0.0044058 0.0002100 0.0000919 -0.0015947 0.0027909 0.0022120 0.0017469 0.0004402 0.0011766 0.0005799 0.0014726 -0.0140212 0.0148036
-0.0052825 0.0144227 0.0027262 -0.0126092 0.0041143 -0.0052890 0.0000200 0.0071815 0.0002258 0.0001741 0.0023960 0.0005161 -0.0107358 0.0111738 0.0003829 0.0009689 0.0006889 0.0017235 -0.0091840 0.0170749
-0.0057254 0.0184865 -0.0112047 0.0221087 0.0102216 -0.0237122 -0.0036002 0.0093314 0.0004541 0.0006224 0.0042218 -0.0015221 -0.0196761 0.0140970 0.0002790 0.0003370 0.0008410 0.0018001 -0.0002232 0.0058312
-0.0132735 0.0207659 -0.0075117 0.0251453 0.0058354 -0.0126346 0.0033770 -0.0040393 0.0007534 0.0011420 0.0052168 -0.0048190 -0.0019599 -0.0007947 0.0001129 -0.0003168 0.0008197 0.0016871 0.0005033 0.0054045
-0.0126254 0.0282084 -0.0026729 0.0071882 0.0034160 0.0014748 0.0053807 -0.0105370 0.0008677 0.0013472 0.0047127 -0.0028713 0.0005838 0.0003336 -0.0000466 -0.0005486 0.0006883 0.0016976 -0.0031865 0.0150406
-0.0028789 0.0174487 0.0116511 -0.0250423 0.0028276 0.0148746 0.0061110 -0.0103382 0.0008762 0.0013979 0.0048024 -0.0024078 -0.0027299 0.0022765 -0.0001106 -0.0004830 0.0006070 0.0017806 0.0020244 0.0079888
0.0089530 -0.0122360 0.0182136 -0.0360424 -0.0016284 0.0153795 0.0035354 -0.0108061 0.0008569 0.0013610 0.0014006 -0.0011746 0.0054117 -0.0051843 -0.0001726 -0.0004393 0.0005331 0.0018361 0.0042845 0.0049499
0.0053066 -0.0145099 0.0148190 -0.0284962 -0.0017836 -0.0001952 -0.0121287 0.0128781 0.0008356 0.0013251 -0.0037969 0.0044887 0.0076180 -0.0018710 -0.0002566 -0.0004135 0.0004630 0.0018203 -0.0028727 0.0127006
-0.0136432 0.0171396 0.0109346 -0.0238590 0.0041495 -0.0074477 -0.0039761 0.0107316 0.0007988 0.0011881 -0.0044611 0.0046489 0.0071428 -0.0018109 -0.0002654 -0.0002207 0.0004766 0.0017217 -0.0076490 0.0070593
-0.0136218 0.0232604 0.0124107 -0.0347579 0.0017125 0.0004326 0.0117154 -0.0211417 0.0007307 0.0009557 -0.0058803 0.0055525 0.0046106 -0.0017300 -0.0001260 0.0001636 0.0005723 0.0017380 -0.0105346 0.0047348
0.0009131 -0.0018440 0.0149160 -0.0367574 0.0028894 -0.0000424 0.0057398 -0.0091226 0.0006239 0.0007573 -0.0059098 0.0067790 -0.0004007 0.0028978 0.0001952 0.0005896 0.0007138 0.0019901 -0.0202232 0.0165463
0.0072831 -0.0230130 0.0023561 -0.0013756 0.0097853 -0.0190626 -0.0028888 0.0045307 0.0005414 0.0006980 0.0011363 0.0003732 0.0006345 0.0010958 0.0004193 0.0008710 0.0008112 0.0022167 -0.0323785 0.0296775
-0.0076200 0.0071262 -0.0001094 0.0003432 -0.0038183 0.0082919 -0.0070692 0.0080998 0.0005205 0.0007629 0.0036412 -0.0003096 -0.0067039 0.0069176 0.0004547 0.0009898 0.0008347 0.0023693 -0.0088834 0.0168105
-0.0098184 0.0243272 -0.0039264 0.0069348 -0.0096017 0.0215752 -0.0109337 0.0158445 0.0005033 0.0007688 0.0028210 0.0013460 -0.0186413 0.0152907 0.0004818 0.0009830 0.0008482 0.0023320 0.0045531 0.0043166
-0.0067343 0.0166160 -0.0157940 0.0148677 -0.0028610 0.0082234 -0.0051807 0.0118408 0.0004876 0.0006658 0.0046290 -0.0026227 -0.0002288 -0.0011476 0.0004986 0.0008908 0.0008557 0.0021307 0.0044993 0.0073804
-0.0166976 0.0199760 -0.0052849 -0.0135764 0.0018547 -0.0000913 -0.0066518 0.0119093 0.0004851 0.0005768 0.0035792 -0.0000094 0.0044202 -0.0023479 0.0005000 0.0009048 0.0008336 0.0020979 0.0033303 0.0094954
-0.0132390 0.0181175 0.0072608 -0.0206625 0.0029542 -0.0008210 -0.0087558 0.0107472 0.0004786 0.0005726 0.0038563 0.0000277 -0.0002387 0.0025586 0.0005038 0.0009927 0.0008280 0.0021528 0.0059386 0.0004695
0.0015937 -0.0012421 0.0049024 -0.0119707 0.0107197 -0.0189301 -0.0073925 0.0084742 0.0004615 0.0005894 0.0029613 -0.0013412 0.0035184 -0.0018699 0.0005109 0.0011051 0.0008302 0.0022077 0.0015945 0.0088450
-0.0040015 0.0122339 0.0036271 -0.0046540 0.0205061 -0.0427139 -0.0053387 0.0046929 0.0004488 0.0006233 -0.0014628 0.0042760 0.0048159 0.0003446 0.0005093 0.0011395 0.0008060 0.0021686 -0.0056087 0.0183628
-0.0119962 0.0228501 0.0095329 -0.0014357 0.0107793 -0.0155272 -0.0079028 0.0130014 0.0004495 0.0005680 -0.0015447 0.0036219 0.0038154 0.0011174 0.0005198 0.0010115 0.0007741 0.0018968 -0.0089632 0.0144848
-0.0056813 0.0123695 0.0032702 0.0055498 0.0004889 0.0062168 -0.0056499 0.0167021 0.0004548 0.0004050 -0.0041022 0.0044746 0.0025562 0.0008149 0.0005313 0.0008956 0.0007698 0.0016037 -0.0036359 0.0043230
-0.0053699 0.0097546 -0.0156598 0.0252652 0.0034035 -0.0026964 -0.0015105 0.0067459 0.0004525 0.0003193 -0.0074058 0.0076632 0.0025665 0.0006558 0.0005372 0.0008879 0.0007803 0.0015232 -0.0102083 0.0074237
-0.0035573 0.0029424 -0.0184308 0.0305847 0.0008999 0.0090352 -0.0071048 0.0088825 0.0004412 0.0003270 0.0005847 0.0007480 0.0038435 -0.0003223 0.0005423 0.0009372 0.0007672 0.0015721 -0.0479548 0.0354490
-0.0010405 -0.0088789 -0.0084902 0.0156697 -0.0035965 0.0198667 -0.0056535 0.0052066 0.0004307 0.0003687 0.0031042 0.0011472 -0.0058710 0.0079662 0.0005402 0.0010169 0.0007498 0.0016436 -0.0106919 0.0152908
0.0021442 -0.0010897 -0.0052187 0.0028972 0.0020277 0.0017154 -0.0044513 0.0066091 0.0004173 0.0004146 0.0022746 0.0018262 -0.0181276 0.0147797 0.0005278 0.0010228 0.0007274 0.0015840 0.0026711 0.0044316
0.0017809 0.0061926 0.0011089 -0.0094498 0.0041597 -0.0119744 -0.0072945 0.0153387 0.0003992 0.0003112 0.0043963 -0.0023226 -0.0029512 -0.0016859 0.0005097 0.0008661 0.0007029 0.0012763 0.0020065 0.0069344
-0.0038599 -0.0023059 0.0045140 -0.0036745 -0.0065433 0.0047368 -0.0034733 0.0074672 0.0003817 0.0001079 0.0037858 0.0002634 -0.0016515 0.0011653 0.0004604 0.0006259 0.0006757 0.0010019 0.0022612 0.0121649
-0.0018021 -0.0088888 0.0043230 -0.0066751 0.0012283 -0.0045831 0.0005348 -0.0029090 0.0003662 -0.0000274 0.0031926 -0.0000399 -0.0034932 0.0055965 0.0004453 0.0005862 0.0007082 0.0009838 0.0063279 0.0031804
-0.0040918 0.0038856 0.0119310 -0.0258119 0.0078450 -0.0109263 0.0010608 -0.0006570 0.0003448 -0.0000903 0.0011790 -0.0002634 0.0037792 -0.0005649 0.0004789 0.0007636 0.0007254 0.0010606 0.0042916 0.0067572
0.0011864 -0.0016135 0.0085823 -0.0182836 -0.0027761 0.0130405 0.0058588 -0.0099607 0.0003121 -0.0001041 -0.0005011 0.0024386 0.0038636 0.0022726 0.0005012 0.0009204 0.0006650 0.0010482 -0.0017589 0.0131326
0.0058117 -0.0033752 0.0024660 -0.0013610 -0.0032025 0.0129818 0.0041711 -0.0043335 0.0002822 -0.0001149 0.0006536 0.0017949 0.0041339 0.0011783 0.0005095 0.0009856 0.0006108 0.0010126 -0.0029519 0.0102708
0.0078540 -0.0049484 0.0026561 0.0046695 0.0076608 -0.0169088 0.0034139 -0.0018044 0.0002624 -0.0001980 -0.0020970 0.0041795 0.0047859 -0.0005671 0.0004965 0.0008801 0.0006064 0.0008823 -0.0076859 0.0161396
0.0128977 -0.0126177 0.0025305 0.0003625 0.0082617 -0.0405475 0.0089942 -0.0187497 0.0002565 -0.0004081 -0.0044422 0.0046289 0.0068965 -0.0037577 0.0004849 0.0007056 0.0006254 0.0006119 -0.0145738 0.0133078
0.0119785 -0.0142745 0.0018890 0.0015515 -0.0129445 -0.0058942 0.0174464 -0.0381323 0.0002652 -0.0006001 0.0003757 -0.0016061 0.0078863 -0.0042612 0.0004769 0.0006694 0.0006177 0.0005108 -0.0093391 0.0087456
-0.0054688 0.0031307 0.0027553 -0.0095744 -0.0131367 0.0145180 -0.0043466 0.0029866 0.0002577 -0.0006933 0.0004047 -0.0005896 -0.0011935 0.0043615 0.0004758 0.0007308 0.0005972 0.0005920 -0.0045807 0.0100132
-0.0086821 0.0015605 -0.0033976 -0.0034148 -0.0003853 -0.0010203 -0.0090418 0.0140105 0.0002303 -0.0007387 -0.0018516 0.0015409 -0.0053450 0.0032867 0.0004720 0.0008231 0.0006060 0.0007753 -0.0016530 0.0026438
-0.0000173 -0.0057723 0.0016407 0.0013716 0.0091504 -0.0146512 -0.0016834 0.0060411 0.0002116 -0.0007411 0.0019979 -0.0004962 -0.0033270 0.0010675 0.0004653 0.0009361 0.0006222 0.0010506 -0.0046621 0.0074340
0.0039697 -0.0063042 -0.0058970 0.0048883 0.0011378 0.0031253 -0.0036145 0.0072796 0.0001968 -0.0007936 0.0037344 0.0008504 -0.0113375 0.0101912 0.0004611 0.0009186 0.0006365 0.0011948 -0.0007288 0.0082164
0.0057145 -0.0135861 -0.0106823 0.0112062 0.0017420 -0.0015562 0.0032448 0.0009105 0.0001990 -0.0009483 0.0045286 -0.0005041 -0.0160192 0.0139388 0.0004593 0.0007895 0.0006588 0.0011676 0.0048421 0.0041509
-0.0004171 -0.0083770 0.0026670 -0.0006507 0.0064978 -0.0127089 0.0045482 -0.0005693 0.0001998 -0.0011049 0.0045388 -0.0006427 -0.0008709 0.0037554 0.0004428 0.0007232 0.0006277 0.0011966 0.0045393 0.0080925
0.0024530 -0.0003127 0.0030701 -0.0013428 0.0068076 -0.0135879 0.0051956 -0.0036774 0.0002016 -0.0011545 0.0032933 0.0006381 0.0050676 -0.0019947 0.0004524 0.0007940 0.0006308 0.0012821 0.0044138 0.0070072
0.0061381 -0.0031960 0.0017512 -0.0075549 0.0037685 -0.0086476 -0.0038564 0.0122485 0.0002484 -0.0010486 0.0017453 0.0028698 0.0007702 0.0017137 0.0004670 0.0008736 0.0006504 0.0013303 0.0049379 0.0048524
0.0023696 0.0017080 0.0060199 -0.0281954 -0.0065133 0.0030415 -0.0041792 0.0127799 0.0003357 -0.0007960 -0.0008082 0.0059523 0.0018147 0.0045852 0.0004520 0.0009489 0.0006554 0.0016365 -0.0001733 0.0083192
-0.0038018 0.0043283 0.0123123 -0.0369301 -0.0034721 -0.0012431 0.0058797 -0.0055002 0.0005545 -0.0000668 -0.0011350 0.0032077 0.0049560 -0.0016922 0.0006184 0.0013316 0.0007678 0.0021316 -0.0035096 0.0068339
-0.0049356 0.0044212 0.0085705 -0.0166612 0.0004072 -0.0030149 0.0032995 -0.0096194 0.0006609 0.0003346 -0.0030364 0.0026125 0.0061604 -0.0048324 0.0008844 0.0016300 0.0009065 0.0022109 -0.0046906 0.0095350
-0.0016199 0.0026772 0.0019308 -0.0103829 0.0013180 -0.0009499 0.0025213 -0.0041530 0.0006896 0.0003044 -0.0047515 0.0043810 0.0044585 -0.0029828 0.0010273 0.0016999 0.0009799 0.0020675 -0.0103804 0.0123667
-0.0047300 0.0022960 -0.0026636 -0.0036854 0.0078697 -0.0125329 -0.0010855 0.0064527 0.0007770 0.0004262 -0.0040432 0.0045172 0.0011636 -0.0003435 0.0010631 0.0017972 0.0009857 0.0020910 -0.0202220 0.0150960
-0.0005935 0.0027047 0.0027050 0.0029890 0.0054367 -0.0059970 -0.0005322 0.0002114 0.0007580 0.0003388 -0.0005667 0.0033009 -0.0077982 0.0074390 0.0010591 0.0018723 0.0009535 0.0021931 -0.0098291 0.0001874
0.0073907 -0.0067333 0.0019352 0.0015641 -0.0072855 0.0105997 0.0072365 -0.0171216 0.0006912 0.0001742 0.0024867 0.0011230 -0.0187990 0.0102340 0.0010302 0.0019256 0.0008735 0.0022641 0.0054378 -0.0157986
0.0044421 -0.0050811 -0.0064459 0.0160719 -0.0159079 0.0204758 0.0052322 -0.0101928 0.0006347 -0.0000362 0.0003247 0.0028046 -0.0113554 0.0067629 0.0010551 0.0021051 0.0007107 0.0022256 -0.0021026 0.0031036
-0.0179106 0.0277185 -0.0036295 0.0136465 -0.0060022 0.0078672 0.0058438 -0.0077236 0.0005561 -0.0004889 0.0013749 0.0036349 -0.0080429 0.0079316 0.0011597 0.0024005 0.0005776 0.0020729 0.0048211 0.0005662
-0.0223354 0.0364661 -0.0004790 0.0127060 0.0034821 -0.0165298 -0.0004023 -0.0050395 0.0005147 -0.0007817 0.0045086 0.0011135 -0.0081899 0.0060429 0.0011737 0.0024200 0.0005861 0.0018705 0.0105077 -0.0061541
-0.0036732 0.0065812 -0.0004408 0.0179608 0.0056271 -0.0144297 -0.0103003 -0.0000063 0.0004883 -0.0007978 0.0043794 0.0004645 -0.0101895 0.0052106 0.0011951 0.0024618 0.0006492 0.0018119 0.0072000 -0.0037599
-0.0034063 0.0059064 -0.0002004 0.0069711 0.0063325 -0.0063409 0.0001806 -0.0067595 0.0003631 -0.0008983 0.0033516 -0.0005598 -0.0010306 -0.0024005 0.0012453 0.0026633 0.0006568 0.0018553 0.0060441 -0.0066455
-0.0011752 0.0024436 0.0069933 -0.0122315 0.0077475 -0.0085738 0.0075677 -0.0187248 0.0002840 -0.0009081 0.0023976 0.0001762 0.0034319 -0.0019948 0.0012479 0.0027622 0.0006501 0.0019200 0.0024085 0.0017031
-0.0010520 -0.0025488 0.0128786 -0.0137551 0.0053241 -0.0138923 -0.0046588 -0.0032253 0.0002795 -0.0009113 -0.0020900 0.0044173 0.0037656 0.0008166 0.0012687 0.0027325 0.0007103 0.0018221 0.0037593 0.0023806
-0.0193416 0.0130388 0.0051905 -0.0062710 0.0031717 -0.0158612 -0.0061291 -0.0029095 0.0002967 -0.0010194 -0.0047894 0.0036368 0.0069787 -0.0028808 0.0012874 0.0026461 0.0007842 0.0016473 -0.0026448 0.0021288
0.0032933 -0.0136505 0.0106234 -0.0212810 0.0089479 -0.0169046 -0.0015713 0.0021763 0.0003043 -0.0011002 -0.0028216 0.0026629 0.0067788 -0.0009629 0.0012935 0.0026534 0.0007780 0.0016633 -0.0092506 0.0118906
0.0083569 -0.0159629 0.0046419 0.0001125 0.0049002 -0.0073355 -0.0014049 0.0114191 0.0002874 -0.0011008 -0.0046339 0.0045163 0.0058755 -0.0031138 0.0014151 0.0027521 0.0008553 0.0017692 -0.0033243 0.0090484
-0.0066348 -0.0005610 -0.0016858 0.0076888 -0.0048346 0.0111583 0.0005444 0.0035859 0.0002852 -0.0010123 -0.0055058 0.0050464 0.0041895 -0.0029287 0.0015192 0.0029140 0.0009368 0.0018804 -0.0086643 0.0128755
0.0033849 -0.0108916 0.0056605 -0.0081018 -0.0040826 0.0157552 0.0056643 -0.0118805 0.0002866 -0.0008772 -0.0047610 0.0043761 0.0043165 -0.0016095 0.0014730 0.0030380 0.0009129 0.0019046 -0.0242498 0.0191901
0.0125630 -0.0176227 -0.0060233 0.0063474 -0.0012401 0.0103827 0.0031925 -0.0032071 0.0002828 -0.0008572 -0.0020819 0.0014190 -0.0004079 0.0001953 0.0014998 0.0030037 0.0009795 0.0018032 -0.0105035 0.0010035
0.0063444 -0.0055717 -0.0204715 0.0228756 -0.0043255 0.0072422 -0.0027116 0.0045659 0.0002842 -0.0009168 -0.0006406 0.0031117 -0.0080988 0.0091140 0.0015577 0.0029440 0.0010445 0.0017351 -0.0016086 0.0038200
-0.0057244 0.0072742 -0.0252796 0.0298604 -0.0054677 0.0031205 -0.0018481 0.0020291 0.0002790 -0.0009257 0.0013672 0.0031198 -0.0046005 0.0055416 0.0015408 0.0029755 0.0010524 0.0018167 -0.0040986 0.0068278
-0.0045401 0.0061677 -0.0053046 0.0083362 -0.0057448 0.0127247 -0.0043613 0.0118400 0.0002698 -0.0009055 0.0035692 0.0013978 -0.0113920 0.0078966 0.0015066 0.0030381 0.0010541 0.0019648 0.0006387 0.0020133
0.0051546 -0.0063202 -0.0010066 0.0005854 0.0010791 0.0034433 -0.0101828 0.0210077 0.0002590 -0.0008353 0.0034985 0.0006594 -0.0119823 0.0104430 0.0014663 0.0030820 0.0010363 0.0020907 0.0028705 0.0007977
-0.0012345 0.0030056 0.0003420 0.0071150 0.0057328 -0.0097720 -0.0037365 0.0127978 0.0002512 -0.0007062 0.0041532 -0.0015913 0.0004619 0.0010553 0.0013433 0.0028282 0.0010298 0.0020979 -0.0042430 0.0079079
-0.0074194 0.0083063 0.0060917 0.0036173 -0.0019873 -0.0006083 -0.0005830 0.0001064 0.0002539 -0.0007095 0.0034328 0.0003204 0.0034452 0.0008232 0.0012931 0.0025312 0.0010677 0.0020750 -0.0028277 0.0112654
-0.0081227 0.0107061 0.0009021 0.0065703 -0.0062749 0.0052058 -0.0162720 0.0214316 0.0002587 -0.0007930 0.0028137 0.0013240 0.0012214 0.0034391 0.0013281 0.0025035 0.0011036 0.0020649 0.0057592 0.0013107
-0.0055031 0.0115766 0.0010424 0.0058687 0.0062390 -0.0126842 -0.0090615 0.0211147 0.0002584 -0.0008085 0.0011582 0.0022960 0.0047395 -0.0009787 0.0012940 0.0025319 0.0010937 0.0020794 0.0011363 0.0084375
0.0040487 -0.0092725 0.0040425 -0.0010741 0.0049653 -0.0014226 -0.0025151 0.0151321 0.0002520 -0.0007891 -0.0010600 0.0048661 0.0076661 -0.0024462 0.0012451 0.0025488 0.0010577 0.0021638 -0.0062536 0.0145454
-0.0031946 0.0083405 0.0036441 -0.0097842 0.0006846 0.0078695 -0.0058473 0.0163874 0.0002460 -0.0007355 -0.0004157 0.0048989 0.0048941 0.0003864 0.0012550 0.0026172 0.0010644 0.0023514 0.0016712 0.0055492
-0.0091865 0.0109756 0.0070658 -0.0108294 0.0057218 -0.0109929 0.0001673 -0.0001575 0.0002354 -0.0007587 -0.0017161 0.0060036 0.0027914 0.0025358 0.0012832 0.0026162 0.0011029 0.0023374 -0.0041801 0.0093803
-0.0085559 -0.0042256 0.0068909 -0.0060193 0.0065749 -0.0096950 0.0117458 -0.0264196 0.0002380 -0.0008812 -0.0032795 0.0046695 0.0075074 -0.0044912 0.0012183 0.0024334 0.0010865 0.0020549 -0.0206936 0.0180465
0.0014954 -0.0017222 -0.0062489 -0.0001999 0.0079849 -0.0087300 0.0098140 -0.0251414 0.0002481 -0.0009845 -0.0009240 0.0002208 0.0080456 -0.0051594 0.0012060 0.0023988 0.0010728 0.0019972 -0.0134756 0.0137256
0.0009631 -0.0014911 -0.0135929 0.0126934 -0.0043096 0.0108060 0.0049683 -0.0103120 0.0002482 -0.0009932 -0.0010186 0.0018626 0.0011368 0.0017604 0.0012321 0.0024854 0.0011005 0.0020910 -0.0094167 0.0106561
-0.0129726 0.0014806 -0.0050608 0.0150519 -0.0074929 0.0162669 -0.0045422 0.0106881 0.0002631 -0.0009117 -0.0017470 0.0031097 0.0001377 0.0015924 0.0012274 0.0025776 0.0011207 0.0021924 -0.0105852 0.0070491
-0.0032531 -0.0107625 -0.0044621 -0.0011436 0.0011313 0.0040096 -0.0046692 0.0124756 0.0002668 -0.0008342 0.0003683 0.0033559 -0.0054736 0.0068298 0.0012219 0.0025985 0.0011141 0.0022421 -0.0227011 0.0135734
0.0040475 -0.0133500 -0.0134169 -0.0037927 -0.0001692 0.0014946 0.0047423 -0.0118052 0.0002723 -0.0008946 0.0015554 0.0022649 -0.0180217 0.0142646 0.0011928 0.0023758 0.0011374 0.0020811 -0.0081495 0.0086745
0.0038449 -0.0096470 -0.0116574 0.0182376 -0.0049263 0.0116169 0.0082692 -0.0173465 0.0003022 -0.0009788 0.0002823 0.0017190 -0.0140198 0.0105963 0.0011952 0.0022719 0.0011511 0.0019516 -0.0056614 0.0124627
-0.0025190 0.0015700 -0.0035349 0.0141326 -0.0014875 0.0139141 0.0030786 -0.0071969 0.0003137 -0.0009426 0.0021304 0.0009668 -0.0072694 0.0067934 0.0012035 0.0023113 0.0011286 0.0019532 -0.0013469 0.0111789
-0.0087664 0.0135920 0.0005270 0.0022118 -0.0021373 0.0151837 0.0002227 -0.0089357 0.0003098 -0.0008988 0.0046430 -0.0006982 -0.0029668 0.0025630 0.0012132 0.0023238 0.0011329 0.0020218 0.0032703 0.0050320
0.0000334 0.0035300 -0.0079286 0.0022722 0.0033713 0.0044025 0.0021668 -0.0026315 0.0003023 -0.0008306 0.0035607 0.0020766 -0.0059113 0.0053577 0.0012110 0.0023520 0.0011386 0.0020818 -0.0013370 0.0059052
-0.0052967 0.0102116 -0.0057474 0.0103101 0.0088073 -0.0125118 0.0019588 -0.0011618 0.0003061 -0.0007738 0.0032326 0.0005180 0.0005975 0.0010614 0.0011627 0.0021865 0.0011467 0.0019913 0.0044704 -0.0024028
-0.0208428 0.0280573 -0.0017772 0.0115852 -0.0006009 0.0092248 0.0048955 -0.0125394 0.0003546 -0.0008505 0.0034312 -0.0011030 0.0046550 -0.0009300 0.0011343 0.0019835 0.0011468 0.0018607 0.0061392 -0.0026653
0.0014081 -0.0073049 -0.0047399 0.0050854 0.0029210 0.0100383 0.0035827 -0.0064387 0.0003768 -0.0010467 0.0004249 0.0013106 0.0026638 0.0031609 0.0011244 0.0019113 0.0011315 0.0017861 0.0065583 -0.0006188
0.0160320 -0.0292673 0.0003030 -0.0018952 0.0024583 0.0062709 0.0059875 -0.0112876 0.0003622 -0.0012171 -0.0008620 0.0000123 0.0072831 -0.0036774 0.0011027 0.0018936 0.0011170 0.0017582 0.0052155 -0.0010245
0.0027523 0.0042075 -0.0011524 0.0074665 -0.0004444 0.0096244 0.0013978 0.0063850 0.0003600 -0.0012224 0.0002647 0.0005277 0.0089731 -0.0075299 0.0010965 0.0019778 0.0011173 0.0018780 -0.0016529 0.0061429
-0.0044604 0.0089450 -0.0008169 0.0009291 0.0003920 0.0076655 -0.0035026 0.0162269 0.0003495 -0.0011630 -0.0012037 0.0016120 0.0056422 -0.0023360 0.0011009 0.0021213 0.0011197 0.0020293 -0.0029037 0.0089526
-0.0055606 0.0070409 0.0067940 -0.0289892 -0.0014263 0.0001073 0.0005447 -0.0096204 0.0003510 -0.0011455 -0.0035311 0.0029023 0.0040908 -0.0003286 0.0010958 0.0021396 0.0010681 0.0019180 -0.0157936 0.0186262
-0.0002866 0.0063293 -0.0064945 -0.0050752 0.0016938 -0.0176138 0.0106595 -0.0280998 0.0003710 -0.0012090 -0.0049192 0.0036363 0.0038192 -0.0026711 0.0010989 0.0020709 0.0010371 0.0016966 -0.0269059 0.0226147
0.0111907 -0.0140743 -0.0166841 0.0116698 -0.0100173 0.0114051 0.0113123 -0.0299426 0.0003807 -0.0012663 -0.0015805 0.0003909 -0.0049059 0.0031496 0.0011090 0.0020896 0.0010409 0.0016616 -0.0095074 0.0103741
0.0028779 -0.0018907 -0.0270542 0.0158734 -0.0069941 0.0090506 0.0080110 -0.0211309 0.0003808 -0.0012612 -0.0012872 0.0026138 -0.0088918 0.0099225 0.0011123 0.0021600 0.0010356 0.0017774 -0.0076953 0.0129608
-0.0195855 0.0186657 -0.0197779 0.0043454 0.0072837 -0.0184778 0.0002054 0.0071073 0.0003953 -0.0011900 0.0009475 0.0025649 -0.0011345 0.0028820 0.0011547 0.0022205 0.0010563 0.0019186 -0.0149434 0.0189781
-0.0132831 0.0094600 -0.0088860 -0.0138525 0.0005166 0.0004073 -0.0029206 0.0092644 0.0004061 -0.0010726 0.0035148 0.0015271 -0.0055384 0.0059924 0.0012328 0.0023915 0.0010539 0.0020649 -0.0058198 0.0147787
0.0094519 -0.0164498 0.0175930 -0.0468372 0.0035344 -0.0061350 -0.0003296 0.0028515 0.0004027 -0.0010524 0.0018638 0.0020563 -0.0172463 0.0154345 0.0012497 0.0024702 0.0010360 0.0019839 0.0018353 0.0036332
0.0211647 -0.0375060 0.0122688 -0.0191522 0.0024509 -0.0061451 0.0018646 -0.0030137 0.0004007 -0.0011465 0.0020760 0.0007386 -0.0036839 0.0016386 0.0012178 0.0023507 0.0010207 0.0018122 -0.0005703 0.0042885
0.0062599 -0.0005389 -0.0018344 0.0068379 -0.0097173 0.0136509 -0.0043319 -0.0026558 0.0004052 -0.0012134 0.0035276 0.0010803 0.0001605 -0.0000766 0.0012080 0.0023210 0.0010127 0.0018333 0.0022917 0.0036209
0.0013627 0.0090952 -0.0027774 0.0060120 -0.0023071 0.0010640 0.0032770 0.0005098 0.0004021 -0.0011953 0.0035766 0.0015303 -0.0059666 0.0064787 0.0012109 0.0023960 0.0010092 0.0019125 0.0057411 -0.0009838
0.0013865 0.0013966 -0.0079555 0.0037023 0.0136730 -0.0225898 0.0059627 -0.0040266 0.0003949 -0.0011204 0.0029389 -0.0004538 0.0010441 0.0012561 0.0011982 0.0024811 0.0009897 0.0020219 0.0038754 0.0082105
-0.0000197 -0.0004098 -0.0158076 0.0124740 0.0064298 -0.0091081 -0.0138141 0.0056548 0.0003968 -0.0010248 0.0029322 -0.0014092 0.0056435 -0.0008760 0.0011809 0.0025243 0.0010067 0.0021509 0.0055582 0.0020675
0.0003788 -0.0018569 -0.0023778 0.0002113 0.0011489 -0.0083116 0.0012475 -0.0109729 0.0003932 -0.0010209 0.0023006 0.0015479 0.0026421 0.0018723 0.0011807 0.0024893 0.0009952 0.0021505 0.0057981 -0.0032913
-0.0034639 0.0055135 -0.0027714 0.0007369 0.0067502 -0.0106123 0.0087233 -0.0097485 0.0003887 -0.0011064 -0.0004335 0.0044161 0.0028354 0.0023718 0.0011884 0.0024298 0.0009716 0.0020074 -0.0058598 0.0100939
-0.0057236 0.0163231 -0.0095980 0.0046038 0.0059363 -0.0124873 0.0044793 0.0069530 0.0003847 -0.0011351 -0.0026703 0.0042833 0.0056414 -0.0005484 0.0011859 0.0024458 0.0009809 0.0019243 -0.0086903 0.0119552
-0.0009710 0.0018077 -0.0006599 0.0016910 0.0114491 -0.0326106 -0.0012028 0.0132274 0.0003819 -0.0010849 -0.0035278 0.0048556 0.0063091 0.0004815 0.0011679 0.0025034 0.0009852 0.0019688 -0.0005915 0.0028701
-0.0098341 0.0107510 0.0039597 0.0029001 0.0153725 -0.0373825 -0.0080200 0.0155531 0.0003753 -0.0010002 -0.0049661 0.0063582 0.0063221 0.0014652 0.0011453 0.0025688 0.0010010 0.0020715 -0.0081823 0.0027065
-0.0241229 0.0255505 0.0102579 -0.0139817 0.0058768 -0.0035405 -0.0003634 0.0103289 0.0003674 -0.0009191 -0.0052960 0.0067210 0.0045250 0.0017179 0.0011309 0.0026477 0.0010056 0.0022020 -0.0175512 0.0166456
-0.0029384 -0.0003751 0.0059764 -0.0047050 -0.0002565 0.0065399 0.0018034 0.0100819 0.0003667 -0.0008829 -0.0042923 0.0071242 -0.0003089 0.0033651 0.0011189 0.0025844 0.0009791 0.0021064 -0.0068104 0.0071672
0.0053907 -0.0058841 0.0053240 0.0008905 -0.0055061 0.0086381 -0.0015440 0.0095941 0.0003629 -0.0009299 -0.0017798 0.0049733 -0.0025897 0.0014702 0.0010954 0.0024419 0.0009682 0.0018728 -0.0043303 0.0016432
0.0062178 -0.0106926 0.0063471 -0.0013655 0.0030497 0.0008988 0.0124172 -0.0162899 0.0003410 -0.0010275 -0.0012643 0.0033900 0.0001773 -0.0001091 0.0010621 0.0023895 0.0009869 0.0018593 -0.0138600 0.0147762
-0.0098359 0.0200147 -0.0048287 0.0059426 0.0064491 -0.0088898 0.0096598 -0.0109209 0.0003147 -0.0010550 0.0009696 0.0011850 -0.0110004 0.0097861 0.0010365 0.0023996 0.0010086 0.0019331 0.0018401 -0.0005500
-0.0305665 0.0345691 -0.0053257 -0.0038886 -0.0055138 0.0009504 -0.0036465 0.0127055 0.0002812 -0.0009675 0.0034788 -0.0001724 -0.0217997 0.0180194 0.0010059 0.0024442 0.0010018 0.0019872 0.0084525 -0.0024522
-0.0360317 0.0231303 0.0100486 -0.0245711 -0.0101640 0.0035659 0.0049603 -0.0053509 0.0002428 -0.0008374 0.0035470 0.0014346 -0.0090280 0.0057622 0.0009703 0.0023877 0.0009829 0.0019384 0.0047919 0.0016475
-0.0092433 0.0025234 0.0071656 -0.0098094 -0.0048513 -0.0034443 0.0073064 -0.0158527 0.0002264 -0.0008229 0.0051983 -0.0023125 -0.0041359 0.0005328 0.0009608 0.0022833 0.0009714 0.0017845 0.0086926 -0.0048413
-0.0021762 0.0003697 0.0097440 -0.0061200 0.0022392 -0.0122280 -0.0010542 0.0116613 0.0002294 -0.0008446 0.0055265 -0.0036552 -0.0053323 0.0054834 0.0009654 0.0022785 0.0009686 0.0017348 0.0079202 0.0015309
-0.0036522 0.0011795 0.0063403 0.0008473 0.0014868 -0.0050667 -0.0059264 0.0106590 0.0002243 -0.0007928 0.0028318 0.0002065 0.0002337 0.0030634 0.0009733 0.0023556 0.0009816 0.0018292 0.0038909 0.0072463
-0.0038814 0.0070355 0.0038033 -0.0022726 -0.0037654 -0.0006869 -0.0069334 0.0060098 0.0002132 -0.0007528 0.0019534 0.0015720 0.0045158 0.0006384 0.0009792 0.0023969 0.0009890 0.0019434 0.0015991 0.0096696
-0.0055591 0.0135949 0.0089926 -0.0208062 0.0035914 -0.0139283 -0.0001079 0.0060473 0.0002041 -0.0007161 0.0046646 -0.0015404 0.0038667 -0.0009590 0.0009770 0.0024398 0.0009835 0.0020424 0.0047420 0.0040988
-0.0027738 0.0128437 -0.0061947 -0.0055594 0.0107584 -0.0167599 0.0043199 0.0010076 0.0001909 -0.0007434 0.0033216 -0.0018178 0.0063467 -0.0051317 0.0009751 0.0023503 0.0009885 0.0018712 0.0066067 0.0002313
-0.0103906 0.0231417 -0.0029859 -0.0052516 0.0059718 -0.0025056 0.0037985 -0.0019411 0.0001674 -0.0009691 -0.0018011 0.0041454 0.0075346 -0.0036872 0.0009699 0.0021189 0.0010081 0.0015877 0.0041766 0.0028910
-0.0080351 0.0124015 -0.0028480 0.0003727 0.0058943 -0.0136714 0.0019203 -0.0046395 0.0001365 -0.0011927 -0.0019846 0.0033375 0.0055957 -0.0000187 0.0009781 0.0020442 0.0010221 0.0015139 0.0022197 0.0025588
0.0055962 -0.0106201 -0.0024110 0.0009395 0.0117142 -0.0348885 0.0021142 -0.0046871 0.0001136 -0.0013039 -0.0048156 0.0042671 0.0034368 0.0018607 0.0009930 0.0020845 0.0010575 0.0015847 -0.0066261 0.0101136
-0.0051024 0.0122898 -0.0035644 0.0059803 0.0037795 -0.0101201 0.0057067 -0.0165992 0.0001023 -0.0013744 -0.0074278 0.0075544 0.0042583 -0.0017776 0.0009948 0.0021462 0.0010843 0.0017035 -0.0134706 0.0138533
-0.0085606 0.0203268 -0.0073007 0.0043365 -0.0028126 0.0086514 0.0030734 -0.0180239 0.0000939 -0.0013882 -0.0017030 0.0021440 0.0046332 -0.0009012 0.0009635 0.0020936 0.0010538 0.0017139 -0.0190938 0.0208842
-0.0114239 0.0097580 0.0042668 -0.0106435 0.0008790 0.0024509 -0.0087424 -0.0153526 0.0000750 -0.0015260 -0.0014852 0.0025545 -0.0020745 0.0070158 0.0009335 0.0018450 0.0010513 0.0015299 -0.0079737 0.0153320
-0.0168497 0.0024550 0.0100789 -0.0174847 0.0022579 -0.0007290 0.0004929 -0.0087274 0.0000664 -0.0017572 -0.0035520 0.0047279 -0.0045561 0.0059084 0.0009293 0.0016177 0.0010782 0.0013662 -0.0051450 0.0083813
-0.0001842 -0.0002125 0.0154191 -0.0361897 -0.0037371 0.0125900 0.0109459 -0.0090184 0.0000618 -0.0018828 0.0007993 0.0006504 -0.0041579 0.0032871 0.0009406 0.0015803 0.0010900 0.0014163 -0.0139662 0.0119084
0.0047503 -0.0078388 -0.0005990 -0.0074658 0.0017755 -0.0008006 0.0143155 -0.0225175 0.0000510 -0.0019151 0.0039471 -0.0013726 -0.0129260 0.0091457 0.0009686 0.0016833 0.0011081 0.0015246 0.0013146 0.0001429
0.0001346 -0.0063574 0.0035571 -0.0062429 0.0003731 -0.0043851 0.0163346 -0.0257589 0.0000417 -0.0019086 0.0028827 -0.0003261 -0.0114135 0.0106325 0.0009925 0.0018270 0.0011155 0.0016614 0.0029730 0.0049558
0.0037581 -0.0026914 0.0048905 -0.0030846 -0.0005640 0.0014184 0.0124851 -0.0150552 0.0000314 -0.0019163 0.0020716 0.0030432 -0.0043007 0.0089382 0.0010156 0.0018790 0.0011035 0.0016633 0.0032749 0.0088707
0.0082572 -0.0015336 -0.0038821 0.0144314 0.0041795 0.0001721 0.0029119 -0.0053843 0.0000280 -0.0020562 0.0032002 0.0020792 -0.0014854 0.0046323 0.0010611 0.0018358 0.0011011 0.0014457 0.0077697 0.0010874
-0.0015650 0.0073727 0.0076168 -0.0059012 -0.0013074 0.0099172 -0.0006583 -0.0014532 0.0000239 -0.0022546 0.0026662 0.0021515 -0.0029773 0.0040567 0.0011072 0.0018605 0.0011149 0.0013358 0.0083645 -0.0004866
-0.0029348 -0.0017066 0.0087190 -0.0174725 -0.0033862 0.0109460 0.0005667 0.0016970 0.0000176 -0.0023482 0.0022584 0.0022154 0.0038009 -0.0009818 0.0011230 0.0019502 0.0011159 0.0014004 0.0068795 0.0013950
0.0110108 -0.0181507 -0.0083585 0.0237737 -0.0003384 0.0059245 0.0023387 -0.0057858 0.0000127 -0.0023521 0.0019818 0.0013902 0.0055924 0.0002438 0.0011250 0.0020534 0.0011058 0.0015263 0.0023695 0.0054298
0.0000588 -0.0007097 -0.0078735 0.0293305 0.0103388 -0.0172302 0.0114532 -0.0273800 0.0000018 -0.0023119 -0.0028858 0.0065181 0.0041131 0.0042120 0.0011326 0.0021569 0.0010899 0.0016885 0.0030226 0.0023713
-0.0212160 0.0183810 -0.0049835 0.0148914 0.0178060 -0.0396056 0.0033887 0.0042067 -0.0000065 -0.0022649 -0.0047685 0.0072331 0.0078907 -0.0027971 0.0011360 0.0021831 0.0010891 0.0017242 0.0003966 0.0030101
-0.0124458 0.0110778 0.0036745 -0.0051808 0.0174726 -0.0340315 0.0014825 0.0101724 -0.0000118 -0.0023391 -0.0011291 0.0034559 0.0068252 -0.0014717 0.0011315 0.0020930 0.0010861 0.0015999 -0.0050466 0.0111031
0.0036868 -0.0024204 0.0056743 -0.0047613 0.0150811 -0.0295838 0.0121694 -0.0179432 -0.0000130 -0.0025192 -0.0024876 0.0032804 0.0042086 -0.0007229 0.0011464 0.0020165 0.0010948 0.0014984 -0.0044546 0.0131122
0.0038323 -0.0043775 0.0058354 -0.0039518 0.0008650 -0.0118930 0.0067283 -0.0108130 -0.0000116 -0.0026066 -0.0046452 0.0052813 0.0026190 -0.0003473 0.0011578 0.0020619 0.0010994 0.0015688 -0.0103997 0.0180133
-0.0051192 0.0030390 0.0065604 -0.0121787 0.0080165 -0.0205519 -0.0021155 0.0095756 -0.0000197 -0.0025777 -0.0041744 0.0060217 0.0047531 -0.0007471 0.0011579 0.0021634 0.0010761 0.0017084 -0.0211268 0.0182425
-0.0090503 0.0025500 0.0036825 -0.0163154 0.0170290 -0.0356006 -0.0018388 0.0063426 -0.0000303 -0.0025008 -0.0008399 0.0027350 0.0000096 0.0013476 0.0011628 0.0022682 0.0010807 0.0018277 -0.0028035 -0.0028109
-0.0067457 0.0168531 0.0052456 -0.0080203 0.0142303 -0.0307096 0.0030054 -0.0058948 -0.0000417 -0.0023954 -0.0004443 0.0036291 -0.0028181 0.0060143 0.0011603 0.0023833 0.0010869 0.0020080 -0.0022284 0.0024934
-0.0034882 0.0209254 -0.0009831 0.0018737 0.0053482 -0.0113885 0.0053031 -0.0141902 -0.0000518 -0.0023314 0.0003889 0.0029168 0.0029570 0.0005014 0.0011555 0.0023782 0.0010812 0.0020195 -0.0233211 0.0194317
-0.0053501 0.0097530 -0.0099259 0.0124450 -0.0007025 0.0006118 0.0088692 -0.0186118 -0.0000535 -0.0024045 0.0018328 0.0012245 -0.0019946 0.0034972 0.0011547 0.0022775 0.0010633 0.0018579 -0.0077334 0.0132097
0.0084722 -0.0098375 0.0005088 0.0026601 0.0005721 -0.0049031 0.0049810 -0.0063974 -0.0000568 -0.0024801 0.0003232 0.0016699 -0.0090190 0.0073173 0.0011544 0.0022669 0.0010514 0.0018255 0.0022615 0.0051400
0.0216917 -0.0371655 0.0036954 -0.0061722 -0.0066688 0.0050345 0.0001063 -0.0000237 -0.0000629 -0.0024527 0.0024349 -0.0004636 -0.0056985 0.0045836 0.0011499 0.0023171 0.0010414 0.0019359 -0.0034452 0.0115242
0.0000748 0.0000839 -0.0013252 -0.0095271 -0.0068375 0.0087421 -0.0120358 0.0145185 -0.0000688 -0.0023860 0.0034861 0.0009632 -0.0051059 0.0078991 0.0011412 0.0023881 0.0010135 0.0021057 -0.0044276 0.0179137
-0.0069183 0.0161140 0.0039917 -0.0133559 0.0026316 -0.0046732 -0.0142784 0.0229660 -0.0000768 -0.0022879 0.0034033 0.0014055 -0.0097331 0.0108902 0.0011354 0.0024884 0.0009922 0.0022865 0.0027191 0.0097996
-0.0018909 -0.0036825 0.0002760 0.0031529 0.0000397 0.0054511 0.0015142 0.0070529 -0.0000796 -0.0022138 0.0031725 0.0011717 -0.0013639 0.0053956 0.0011215 0.0024885 0.0009785 0.0022941 0.0057079 0.0073891
0.0077753 -0.0211661 -0.0006269 0.0005497 0.0042642 0.0011783 0.0056531 -0.0147383 -0.0000739 -0.0022531 0.0027912 0.0012067 0.0049848 -0.0006101 0.0011153 0.0024004 0.0009630 0.0021901 0.0070013 0.0016942
0.0113916 -0.0215789 0.0052927 -0.0122879 0.0119029 -0.0183744 -0.0125504 0.0081981 -0.0000647 -0.0022870 0.0039334 0.0008601 0.0009631 0.0018945 0.0011122 0.0023883 0.0009334 0.0022966 0.0058237 0.0027948
-0.0088101 0.0061130 0.0046355 -0.0122626 0.0045855 -0.0174395 -0.0101775 0.0164640 -0.0000571 -0.0022080 0.0019444 0.0019421 0.0042399 0.0023865 0.0010958 0.0024442 0.0009154 0.0025086 -0.0015004 0.0121290
-0.0238098 0.0258220 0.0071357 -0.0179110 -0.0028063 -0.0042784 -0.0004734 0.0041063 -0.0000490 -0.0020460 -0.0003241 0.0023959 0.0084617 -0.0004102 0.0010813 0.0025177 0.0009121 0.0026577 0.0004208 0.0042289
0.0022445 -0.0004001 0.0179668 -0.0342701 0.0031807 -0.0066014 0.0005305 0.0022273 -0.0000316 -0.0018454 -0.0028813 0.0052151 0.0064547 0.0031726 0.0010755 0.0025936 0.0009189 0.0027434 0.0036096 0.0004736
0.0051146 0.0020827 0.0091365 -0.0158023 0.0200283 -0.0450322 0.0051734 -0.0098910 -0.0000010 -0.0016721 -0.0040443 0.0058190 0.0070674 -0.0001240 0.0010644 0.0025758 0.0009230 0.0026598 -0.0052954 0.0076303
-0.0072619 0.0072423 0.0037523 -0.0105465 0.0059516 -0.0075975 0.0010978 0.0053843 0.0000416 -0.0015559 -0.0040191 0.0057791 0.0066213 -0.0013586 0.0010265 0.0023733 0.0009003 0.0023192 -0.0152226 0.0186506
-0.0090470 0.0070680 0.0028200 -0.0081760 -0.0045445 0.0051470 -0.0030450 0.0129439 0.0000852 -0.0014833 -0.0053651 0.0072353 -0.0020136 0.0079507 0.0010016 0.0022377 0.0009047 0.0021174 -0.0147296 0.0148166
-0.0008626 0.0112330 -0.0050425 -0.0031545 0.0008918 -0.0120608 0.0019118 -0.0059771 0.0001080 -0.0013662 -0.0039723 0.0050159 -0.0045884 0.0075228 0.0009902 0.0022902 0.0009005 0.0021823 -0.0085097 0.0053056
0.0071407 -0.0008021 0.0050294 -0.0095881 0.0047000 -0.0195289 0.0055699 -0.0035005 0.0001124 -0.0011764 -0.0053436 0.0058829 0.0018256 0.0017559 0.0009707 0.0023441 0.0008612 0.0022934 -0.0130344 0.0149035
0.0028889 -0.0004692 -0.0060620 0.0091841 0.0025395 -0.0203025 0.0032481 0.0015521 0.0001173 -0.0009754 -0.0014138 0.0029095 -0.0046603 0.0050548 0.0009527 0.0023923 0.0008416 0.0024277 -0.0030641 0.0036475
-0.0134195 0.0212830 -0.0125350 0.0087540 -0.0064697 -0.0001860 0.0021671 -0.0005282 0.0001211 -0.0007850 0.0017497 0.0010647 -0.0145150 0.0114727 0.0009369 0.0024297 0.0008281 0.0025262 -0.0015190 0.0060519
-0.0077847 0.0140916 0.0100402 -0.0115689 -0.0113904 0.0095488 0.0005246 0.0010222 0.0001248 -0.0006968 0.0018147 0.0024450 -0.0115828 0.0116538 0.0009331 0.0023281 0.0008412 0.0023775 -0.0069699 0.0136768
-0.0045242 0.0053848 0.0023897 -0.0002740 -0.0091555 0.0115880 -0.0086574 0.0072505 0.0001297 -0.0007383 0.0042253 -0.0002618 -0.0096791 0.0086731 0.0009250 0.0021818 0.0008438 0.0021556 -0.0018052 0.0097175
0.0022759 -0.0019710 -0.0091758 0.0171015 -0.0049168 0.0088944 -0.0126181 0.0119785 0.0001323 -0.0007433 0.0040479 -0.0000431 -0.0114577 0.0085716 0.0009239 0.0021285 0.0008303 0.0020558 -0.0002397 0.0070446
0.0090726 -0.0213422 -0.0019780 0.0143659 -0.0016661 0.0100300 -0.0014434 -0.0047195 0.0001492 -0.0006183 0.0034296 -0.0005758 -0.0046462 0.0036371 0.0009164 0.0021291 0.0008386 0.0020057 -0.0029592 0.0118695
0.0029660 -0.0232925 0.0012399 0.0026168 -0.0018986 0.0033011 -0.0048378 0.0045694 0.0001667 -0.0005031 0.0035978 -0.0000768 0.0005810 0.0041206 0.0008882 0.0021811 0.0008253 0.0021649 -0.0004821 0.0123920
0.0022409 -0.0162701 0.0143518 -0.0289660 0.0063203 -0.0156870 -0.0099832 0.0142331 0.0001648 -0.0004653 0.0038038 0.0002366 -0.0017882 0.0066544 0.0008360 0.0022419 0.0008073 0.0024392 0.0043044 0.0066277
0.0107511 -0.0125748 0.0077886 -0.0083857 0.0056153 -0.0031176 0.0058716 -0.0132791 0.0001509 -0.0005014 0.0030327 -0.0008660 0.0030277 0.0001406 0.0007810 0.0021512 0.0008059 0.0024940 0.0025578 0.0095018
0.0133786 -0.0115291 -0.0003667 0.0006463 0.0010818 -0.0024608 0.0031791 -0.0050314 0.0001131 -0.0007055 0.0014151 0.0001403 0.0065635 -0.0018853 0.0007691 0.0019200 0.0008021 0.0022672 0.0046786 0.0008907
0.0033099 -0.0049542 0.0067578 -0.0153522 0.0027612 -0.0017228 -0.0074908 0.0110039 0.0000672 -0.0009586 0.0014421 0.0009886 0.0061789 -0.0037677 0.0007738 0.0017678 0.0007791 0.0021075 0.0058637 -0.0028604
-0.0020052 -0.0092002 0.0095836 -0.0179592 -0.0005939 0.0061863 -0.0024305 0.0078413 0.0000357 -0.0010937 -0.0019786 0.0050460 0.0067758 -0.0039777 0.0007858 0.0017550 0.0007639 0.0020865 -0.0009219 0.0060065
0.0046705 -0.0089976 -0.0052336 0.0110471 -0.0045291 0.0033832 -0.0010637 0.0113689 0.0000191 -0.0011213 -0.0037075 0.0043397 0.0075117 -0.0049368 0.0008096 0.0018159 0.0007919 0.0020938 -0.0012859 0.0020160
0.0014693 0.0009772 0.0059151 0.0032853 0.0061962 -0.0085090 -0.0049770 0.0159477 0.0000214 -0.0010877 -0.0036068 0.0029184 0.0052505 -0.0005122 0.0008419 0.0019518 0.0008042 0.0021849 -0.0012620 0.0019662
-0.0009769 0.0077106 0.0101901 -0.0102237 0.0089259 -0.0132958 -0.0023789 0.0121443 0.0000162 -0.0011491 -0.0063351 0.0044590 0.0041339 0.0008061 0.0008487 0.0019175 0.0007679 0.0020893 -0.0104733 0.0105196
-0.0019379 0.0139404 -0.0083397 0.0154058 0.0042820 0.0006101 -0.0052590 0.0153037 0.0000382 -0.0012924 -0.0064246 0.0061780 0.0039929 -0.0001721 0.0008257 0.0017347 0.0007224 0.0018560 -0.0235295 0.0225477
-0.0026580 0.0181201 -0.0063037 0.0128233 -0.0021305 0.0163407 0.0010684 0.0076762 0.0000645 -0.0014024 -0.0026979 0.0045973 -0.0036671 0.0061808 0.0008180 0.0017073 0.0006963 0.0018203 -0.0176892 0.0127631
0.0074862 0.0003278 -0.0108035 0.0082906 -0.0055800 0.0123283 0.0124197 -0.0112537 0.0000378 -0.0015231 -0.0013772 0.0021403 -0.0069347 0.0049562 0.0008228 0.0017463 0.0006880 0.0018906 -0.0045806 0.0004406
0.0080003 0.0012215 -0.0003396 -0.0125389 0.0066664 -0.0124580 0.0107738 -0.0142458 0.0000088 -0.0016201 -0.0035891 0.0040848 -0.0019811 0.0038257 0.0008274 0.0017857 0.0006986 0.0020158 -0.0129558 0.0151651
0.0068520 0.0040512 0.0030958 -0.0012927 0.0105601 -0.0189619 0.0000008 0.0086184 0.0000024 -0.0016794 0.0007151 0.0005530 -0.0089239 0.0082666 0.0008281 0.0018136 0.0007384 0.0021662 -0.0004869 0.0051261
0.0080466 -0.0078497 -0.0010231 0.0034803 0.0085906 -0.0155685 -0.0048454 0.0105793 -0.0000083 -0.0018208 0.0026835 0.0001821 -0.0165644 0.0137805 0.0008429 0.0017555 0.0007538 0.0021117 0.0088489 -0.0011554
0.0055337 -0.0034477 0.0027565 -0.0034430 0.0008849 -0.0027956 0.0062309 -0.0172576 -0.0000306 -0.0020993 0.0024252 0.0020741 -0.0098340 0.0092779 0.0008654 0.0016283 0.0007620 0.0018455 0.0041863 -0.0003889
0.0020445 0.0033344 0.0031639 -0.0002237 -0.0092331 0.0085517 0.0040778 -0.0102166 -0.0000446 -0.0023754 0.0041272 -0.0006248 -0.0063365 0.0030196 0.0008550 0.0015526 0.0007618 0.0017380 0.0072513 -0.0066990
0.0038728 0.0022392 0.0049469 -0.0044992 -0.0015792 0.0147378 -0.0094596 0.0143417 -0.0000709 -0.0025368 0.0041208 -0.0021809 -0.0081421 0.0066528 0.0008263 0.0015554 0.0007419 0.0018446 0.0109616 -0.0064039
0.0068169 -0.0093305 -0.0003815 0.0001450 0.0016151 0.0119328 -0.0030106 0.0138169 -0.0001041 -0.0026123 0.0029469 -0.0022870 0.0009271 0.0013063 0.0008160 0.0015728 0.0007350 0.0019803 0.0081885 -0.0026092
0.0025069 -0.0028244 -0.0140855 0.0035153 -0.0112470 0.0197615 0.0008670 0.0043765 -0.0001244 -0.0026327 0.0014747 0.0006293 0.0040550 0.0008086 0.0008054 0.0016333 0.0007052 0.0021269 0.0079872 0.0022233
0.0091672 -0.0111287 -0.0039111 -0.0132245 -0.0138713 0.0290165 -0.0057887 0.0123282 -0.0001399 -0.0026334 0.0040404 -0.0004128 0.0003305 0.0025695 0.0007958 0.0016401 0.0006889 0.0021336 0.0104195 -0.0020253
-0.0011634 -0.0049121 -0.0024748 0.0039886 -0.0072500 0.0134614 -0.0068016 0.0137734 -0.0001503 -0.0027657 0.0028960 -0.0013059 0.0038877 -0.0027761 0.0008066 0.0015179 0.0006874 0.0019381 0.0071182 -0.0023559
-0.0075086 0.0085713 -0.0032903 0.0141184 0.0021709 -0.0139397 0.0018287 0.0024644 -0.0001580 -0.0029978 -0.0004388 0.0012726 0.0061196 -0.0027858 0.0008135 0.0014440 0.0006754 0.0018247 0.0057140 -0.0029723
0.0076019 -0.0063627 -0.0015317 0.0029532 -0.0018611 0.0018697 0.0017177 0.0024927 -0.0001666 -0.0031360 0.0013998 0.0002584 0.0051951 0.0000383 0.0008114 0.0014716 0.0006616 0.0018784 0.0059640 -0.0047761
0.0029757 0.0021282 0.0025637 -0.0062650 -0.0025552 0.0134900 -0.0100160 0.0161187 -0.0001809 -0.0031609 -0.0018773 0.0030049 0.0060705 0.0008734 0.0008115 0.0015297 0.0006605 0.0019694 -0.0052370 0.0119464
-0.0134107 0.0221667 0.0125315 -0.0226144 0.0017999 0.0090981 -0.0058574 0.0061003 -0.0001977 -0.0031395 -0.0049310 0.0036535 0.0099908 -0.0048910 0.0008086 0.0016023 0.0006553 0.0020668 -0.0040663 0.0085120
