-0.0000000 -0.0000000 -0.0000000 -0.0000000 -0.0000000 -0.0000000 -0.0000000 -0.0000000 -0.0000000 -0.0000000 -0.0000000 -0.0000000 -0.0000000 -0.0000000 -0.0000000 -0.0000000 -0.0000000 -0.0000000 -0.0000000 -0.0000000
-0.0000000 -0.0000000 -0.0000000 -0.0000000 -0.0000000 -0.0000000 -0.0000000 -0.0000000 -0.0000000 -0.0000000 -0.0000000 -0.0000000 -0.0000000 -0.0000000 -0.0000000 -0.0000000 -0.0000000 -0.0000000 -0.0000000 -0.0000000
-0.0003606 0.0003640 -0.0000062 0.0000760 -0.0000044 0.0000567 0.0000044 0.0000389 -0.0000008 0.0000720 0.0000077 0.0000456 0.0000092 0.0000575 0.0000100 0.0000954 0.0000020 0.0001234 0.0000038 0.0001535
-0.0003555 0.0006703 -0.0000124 0.0001855 -0.0000068 0.0001839 0.0000031 0.0001129 -0.0000110 0.0001844 0.0000062 0.0001041 0.0000092 0.0001066 0.0000086 0.0001388 -0.0000008 0.0001389 -0.0000043 0.0001469
0.0002776 0.0000932 -0.0000213 0.0001136 -0.0000214 0.0001413 -0.0000087 0.0000585 -0.0000202 0.0000917 -0.0000104 0.0000379 -0.0000033 0.0000248 -0.0000008 0.0000546 -0.0000088 -0.0000767 -0.0000159 -0.0001310
0.0008538 -0.0005271 -0.0000248 -0.0000584 -0.0000239 -0.0000409 -0.0000266 -0.0000727 -0.0000276 -0.0001069 -0.0000193 -0.0000514 -0.0000056 -0.0000290 0.0000094 0.0000825 -0.0000146 -0.0000478 -0.0000183 -0.0000237
0.0006562 -0.0003117 -0.0000220 0.0000711 -0.0000234 0.0001239 -0.0000455 0.0000249 -0.0000395 -0.0000047 -0.0000136 0.0000476 -0.0000017 0.0000950 0.0000227 0.0002218 -0.0000120 0.0001708 -0.0000192 0.0002480
-0.0000166 0.0005896 -0.0000085 0.0002321 -0.0000119 0.0003662 -0.0000611 0.0001404 -0.0000584 0.0001415 -0.0000146 0.0001619 -0.0000049 0.0002077 0.0000190 0.0003016 -0.0000131 0.0002473 -0.0000263 0.0002368
-0.0004758 0.0005791 0.0000097 0.0001294 0.0000031 0.0003382 -0.0000698 0.0000582 -0.0000838 -0.0000058 -0.0000317 0.0000788 -0.0000247 0.0001062 0.0000026 0.0001675 -0.0000219 -0.0000789 -0.0000304 -0.0002231
-0.0005191 0.0002526 0.0000012 -0.0001305 -0.0000017 0.0000826 -0.0000821 -0.0001209 -0.0000915 -0.0003035 -0.0000426 -0.0000725 -0.0000265 -0.0000483 0.0000039 0.0000580 -0.0000264 -0.0002751 -0.0000252 -0.0003629
-0.0001512 0.0000993 -0.0000268 -0.0000663 -0.0000058 0.0001267 -0.0000778 -0.0000786 -0.0000842 -0.0002427 -0.0000302 0.0000094 -0.0000095 0.0000361 0.0000241 0.0001705 -0.0000148 -0.0000680 -0.0000115 -0.0000861
0.0002327 0.0001305 -0.0000421 0.0001341 0.0000075 0.0003579 -0.0000738 0.0000566 -0.0000902 -0.0000700 -0.0000268 0.0001493 -0.0000090 0.0001816 0.0000228 0.0003160 -0.0000145 0.0002378 -0.0000200 0.0003077
0.0001508 0.0003363 -0.0000335 0.0002768 0.0000117 0.0005616 -0.0000919 0.0001580 -0.0001051 0.0000187 -0.0000331 0.0001992 -0.0000218 0.0001643 -0.0000135 0.0001794 -0.0000188 0.0000245 -0.0000251 -0.0000162
-0.0001689 0.0001120 -0.0000114 0.0000574 0.0000092 0.0003293 -0.0000986 -0.0000193 -0.0001061 -0.0001950 -0.0000404 0.0000817 -0.0000348 -0.0000195 -0.0000434 -0.0000910 -0.0000186 -0.0004396 -0.0000101 -0.0006032
-0.0006500 0.0002881 0.0000042 -0.0001582 0.0000155 0.0000324 -0.0000782 -0.0001571 -0.0000879 -0.0003159 -0.0000310 0.0000586 -0.0000229 -0.0000347 -0.0000247 -0.0000684 -0.0000053 -0.0003745 0.0000242 -0.0004783
-0.0005788 0.0003021 0.0000070 -0.0000342 0.0000366 0.0001462 -0.0000524 -0.0000309 -0.0000729 -0.0001549 -0.0000202 0.0001763 -0.0000035 0.0000940 0.0000019 0.0000937 0.0000101 -0.0001042 0.0000505 -0.0001488
0.0000806 -0.0001004 -0.0000098 0.0001611 0.0000352 0.0003686 -0.0000504 0.0001188 -0.0000746 0.0000752 -0.0000276 0.0003096 0.0000044 0.0002499 0.0000070 0.0002858 0.0000098 0.0002554 0.0000385 0.0003280
0.0006562 -0.0000725 -0.0000375 0.0003513 0.0000071 0.0006122 -0.0000734 0.0002330 -0.0000874 0.0001918 -0.0000460 0.0003126 -0.0000171 0.0002277 -0.0000054 0.0002133 -0.0000008 0.0000098 0.0000150 -0.0000153
0.0005405 -0.0001794 -0.0000386 0.0001185 -0.0000047 0.0003364 -0.0000988 0.0000516 -0.0000928 -0.0000656 -0.0000703 0.0001179 -0.0000426 0.0000206 -0.0000062 -0.0000001 -0.0000075 -0.0005063 0.0000160 -0.0006963
0.0000797 -0.0002342 0.0000043 -0.0001837 0.0000162 -0.0000439 -0.0000850 -0.0001233 -0.0000753 -0.0002536 -0.0000658 0.0000418 -0.0000309 -0.0000316 0.0000206 -0.0000013 0.0000050 -0.0004889 0.0000495 -0.0006263
-0.0002280 -0.0000272 0.0000537 -0.0001167 0.0000433 0.0000250 -0.0000412 -0.0000197 -0.0000534 -0.0000960 -0.0000395 0.0001598 -0.0000062 0.0000942 0.0000366 0.0001340 0.0000194 -0.0002217 0.0000738 -0.0002867
-0.0000215 -0.0000524 0.0000483 0.0000755 0.0000409 0.0002244 -0.0000223 0.0001431 -0.0000506 0.0001548 -0.0000351 0.0003102 0.0000004 0.0002589 0.0000347 0.0003175 0.0000181 0.0001490 0.0000663 0.0002253
0.0000940 0.0004755 -0.0000010 0.0003665 0.0000112 0.0005144 -0.0000447 0.0003371 -0.0000664 0.0004423 -0.0000529 0.0004449 -0.0000153 0.0003882 0.0000296 0.0004058 0.0000164 0.0001997 0.0000482 0.0001769
0.0000832 0.0002700 -0.0000358 0.0002501 -0.0000126 0.0004013 -0.0000729 0.0002230 -0.0000861 0.0002601 -0.0000990 0.0002402 -0.0000446 0.0002377 0.0000438 0.0003347 -0.0000001 -0.0002189 0.0000315 -0.0003758
-0.0000716 -0.0000945 -0.0000112 -0.0000827 -0.0000101 0.0000200 -0.0000832 -0.0000044 -0.0000816 -0.0000838 -0.0001307 -0.0000376 -0.0000466 0.0000699 0.0000938 0.0003326 -0.0000068 -0.0004388 0.0000471 -0.0005101
-0.0003606 0.0000222 0.0000280 -0.0000927 0.0000085 -0.0000199 -0.0000604 0.0000324 -0.0000652 -0.0000384 -0.0001151 -0.0000017 -0.0000236 0.0001594 0.0001403 0.0005008 0.0000054 -0.0002351 0.0000734 -0.0002301
-0.0004592 0.0003880 0.0000273 0.0000920 0.0000207 0.0001907 -0.0000459 0.0001823 -0.0000734 0.0001375 -0.0001156 0.0000864 -0.0000138 0.0003066 0.0001766 0.0007847 0.0000086 0.0000808 0.0000801 0.0002065
-0.0003003 0.0007709 -0.0000195 0.0003525 0.0000016 0.0004639 -0.0000548 0.0003478 -0.0000911 0.0003772 -0.0001367 0.0001860 -0.0000175 0.0004852 0.0002029 0.0010705 0.0000047 0.0003935 0.0000756 0.0004995
0.0001346 0.0002687 -0.0000593 0.0003609 -0.0000202 0.0005063 -0.0000647 0.0003476 -0.0001019 0.0003315 -0.0001657 0.0000961 -0.0000367 0.0004207 0.0002298 0.0010859 -0.0000106 0.0000835 0.0000563 0.0001007
0.0003526 -0.0002034 -0.0000592 0.0000848 -0.0000289 0.0002082 -0.0000827 0.0001692 -0.0001061 0.0000514 -0.0002019 -0.0001309 -0.0000405 0.0002940 0.0003159 0.0012067 -0.0000131 -0.0002920 0.0000705 -0.0002626
0.0003526 -0.0002139 -0.0000172 -0.0000385 -0.0000178 0.0000681 -0.0000760 0.0001285 -0.0001058 -0.0000066 -0.0002065 -0.0001582 -0.0000159 0.0003825 0.0004041 0.0015050 -0.0000001 -0.0001093 0.0001045 -0.0000134
0.0001000 0.0000620 0.0000230 0.0000965 0.0000047 0.0002328 -0.0000607 0.0002664 -0.0001086 0.0001593 -0.0001946 -0.0000288 0.0000029 0.0005373 0.0004393 0.0017346 0.0000070 0.0001909 0.0001135 0.0004019
-0.0002475 0.0002455 0.0000233 0.0002993 -0.0000018 0.0004835 -0.0000722 0.0004253 -0.0001252 0.0003860 -0.0001966 0.0001260 0.0000055 0.0007264 0.0004428 0.0019408 0.0000114 0.0004615 0.0001086 0.0005559
-0.0002597 0.0002088 -0.0000082 0.0002583 -0.0000199 0.0004691 -0.0000858 0.0004071 -0.0001335 0.0003226 -0.0002098 0.0000698 -0.0000194 0.0006127 0.0003966 0.0016810 -0.0000042 0.0000487 0.0000858 -0.0000382
-0.0001213 -0.0000126 -0.0000350 -0.0000428 -0.0000526 0.0000543 -0.0000648 0.0002339 -0.0001023 0.0000979 -0.0002088 -0.0000500 -0.0000306 0.0003661 0.0003552 0.0013009 -0.0000130 -0.0004257 0.0000854 -0.0004837
-0.0000264 -0.0000321 -0.0000215 -0.0001495 -0.0000667 -0.0001443 -0.0000138 0.0002636 -0.0000617 0.0001328 -0.0001823 0.0000167 -0.0000062 0.0003814 0.0003709 0.0013131 0.0000086 -0.0003073 0.0001108 -0.0003061
-0.0000159 -0.0001263 0.0000172 -0.0000260 -0.0000481 -0.0000129 0.0000203 0.0004527 -0.0000456 0.0003338 -0.0001565 0.0001567 0.0000100 0.0005025 0.0003861 0.0014348 0.0000256 -0.0000304 0.0001251 0.0000620
-0.0003062 0.0001561 0.0000373 0.0001753 -0.0000427 0.0002076 0.0000169 0.0006428 -0.0000536 0.0005816 -0.0001485 0.0003263 0.0000084 0.0006577 0.0003714 0.0015692 0.0000258 0.0002972 0.0001221 0.0003922
-0.0004313 0.0004368 0.0000049 0.0002083 -0.0000541 0.0003160 -0.0000070 0.0006768 -0.0000733 0.0005299 -0.0001656 0.0002679 -0.0000149 0.0005569 0.0003488 0.0014280 0.0000124 -0.0000787 0.0001061 -0.0001353
-0.0003091 0.0001529 -0.0000354 -0.0000894 -0.0000581 0.0000339 -0.0000236 0.0004269 -0.0000849 0.0001562 -0.0001876 0.0000226 -0.0000090 0.0003224 0.0004251 0.0014337 0.0000165 -0.0006012 0.0001447 -0.0006855
0.0001113 -0.0003667 -0.0000329 -0.0003186 0.0000230 0.0000143 -0.0000041 0.0003285 -0.0000833 -0.0000531 -0.0001445 0.0002321 0.0000997 0.0005600 0.0007364 0.0024200 0.0000722 -0.0003642 0.0002893 -0.0002202
0.0004844 -0.0005645 0.0000281 -0.0002466 0.0001395 0.0004539 0.0000459 0.0005782 -0.0000646 0.0001078 -0.0000813 0.0006971 0.0001762 0.0008558 0.0008900 0.0030092 0.0001314 0.0000688 0.0003928 0.0003786
0.0002706 -0.0000211 0.0000778 -0.0000055 0.0001604 0.0007146 0.0000962 0.0008839 -0.0000256 0.0005011 -0.0000723 0.0008760 0.0001502 0.0009147 0.0007428 0.0026729 0.0001530 0.0004131 0.0003779 0.0006241
-0.0000729 0.0002981 0.0000850 0.0000408 0.0001388 0.0006406 0.0001206 0.0010044 0.0000063 0.0006102 -0.0000963 0.0007336 0.0001112 0.0007553 0.0006254 0.0022120 0.0001463 0.0000739 0.0003441 0.0001110
-0.0002825 0.0000740 0.0000613 -0.0002399 0.0001102 0.0002685 0.0001390 0.0008301 0.0000346 0.0004308 -0.0001006 0.0005326 0.0000939 0.0004731 0.0005531 0.0017631 0.0001400 -0.0003512 0.0003359 -0.0003543
-0.0001011 -0.0005210 0.0000523 -0.0003876 0.0000987 0.0000566 0.0001718 0.0007015 0.0000664 0.0004485 -0.0000601 0.0005902 0.0001076 0.0004187 0.0005045 0.0015591 0.0001587 -0.0001889 0.0003448 -0.0001353
0.0001176 -0.0004235 0.0000611 -0.0002368 0.0001031 0.0001723 0.0001899 0.0007720 0.0000763 0.0006473 -0.0000311 0.0007386 0.0001109 0.0005085 0.0004834 0.0015826 0.0001719 0.0001396 0.0003456 0.0003520
0.0001529 0.0001076 0.0000748 0.0000245 0.0001008 0.0004385 0.0001672 0.0009280 0.0000614 0.0008833 -0.0000356 0.0008306 0.0000988 0.0005924 0.0004644 0.0016079 0.0001701 0.0001850 0.0003316 0.0002972
0.0000820 -0.0000526 0.0000960 -0.0001013 0.0001092 0.0003421 0.0001383 0.0008478 0.0000438 0.0007455 -0.0000637 0.0006742 0.0000758 0.0004573 0.0004405 0.0014601 0.0001493 -0.0001512 0.0003165 -0.0001947
-0.0002003 -0.0004957 0.0001072 -0.0003551 0.0001038 0.0000366 0.0001392 0.0006579 0.0000419 0.0005154 -0.0000699 0.0005232 0.0000714 0.0003488 0.0004334 0.0013769 0.0001430 -0.0001909 0.0003078 -0.0001702
-0.0002686 -0.0004459 0.0000947 -0.0002946 0.0001021 0.0000525 0.0001594 0.0006657 0.0000407 0.0005779 -0.0000438 0.0005963 0.0000812 0.0004155 0.0003852 0.0012814 0.0001546 0.0001000 0.0002842 0.0001017
-0.0001211 0.0000245 0.0000446 -0.0001465 0.0000876 0.0001967 0.0001559 0.0007476 0.0000271 0.0007257 -0.0000156 0.0007451 0.0000565 0.0004224 0.0002548 0.0009118 0.0001487 0.0002101 0.0002322 0.0000078
0.0001804 0.0000030 0.0000125 -0.0002814 0.0000571 0.0000463 0.0001342 0.0006756 0.0000059 0.0006014 0.0000045 0.0007267 0.0000077 0.0002022 0.0001424 0.0004078 0.0001142 -0.0001512 0.0001736 -0.0004940
0.0003927 -0.0006683 0.0000372 -0.0005590 0.0000275 -0.0003187 0.0001341 0.0005445 -0.0000083 0.0003455 0.0000324 0.0006530 -0.0000145 0.0000441 0.0001052 0.0001421 0.0000948 -0.0003456 0.0001515 -0.0006489
0.0001420 -0.0008380 0.0000743 -0.0005277 0.0000177 -0.0003718 0.0001639 0.0006297 -0.0000098 0.0004055 0.0000688 0.0007554 -0.0000007 0.0001268 0.0001072 0.0001881 0.0001027 -0.0000970 0.0001447 -0.0003609
-0.0001333 -0.0003512 0.0000641 -0.0003214 0.0000090 -0.0002132 0.0001793 0.0007790 -0.0000226 0.0005855 0.0000885 0.0008732 0.0000072 0.0002543 0.0001013 0.0002989 0.0001021 0.0001515 0.0001310 -0.0001969
-0.0001832 -0.0001331 0.0000451 -0.0003076 -0.0000045 -0.0002088 0.0001706 0.0007434 -0.0000406 0.0005214 0.0000917 0.0007692 0.0000049 0.0001672 0.0000648 0.0000975 0.0000847 -0.0001962 0.0001233 -0.0006684
-0.0000077 -0.0007286 0.0000569 -0.0005685 0.0000001 -0.0004994 0.0001549 0.0004568 -0.0000193 0.0003084 0.0001556 0.0006605 0.0000517 0.0000443 -0.0000098 -0.0003450 0.0000683 -0.0006767 0.0001264 -0.0010869
0.0003013 -0.0013413 0.0001025 -0.0006737 0.0000262 -0.0006864 0.0001610 0.0002980 0.0000243 0.0003442 0.0002702 0.0008466 0.0001166 0.0001577 -0.0001248 -0.0007239 0.0000754 -0.0006383 0.0001230 -0.0009515
0.0002459 -0.0010894 0.0001253 -0.0005941 0.0000472 -0.0006155 0.0001622 0.0003330 0.0000469 0.0005317 0.0003223 0.0009844 0.0001351 0.0002805 -0.0002234 -0.0009334 0.0000841 -0.0003770 0.0001047 -0.0005990
-0.0000576 -0.0006375 0.0000972 -0.0005270 0.0000272 -0.0004967 0.0001299 0.0003610 0.0000328 0.0005871 0.0002930 0.0009111 0.0000930 0.0001519 -0.0002771 -0.0011946 0.0000753 -0.0006427 0.0000882 -0.0009757
-0.0003276 -0.0008644 0.0000535 -0.0008113 -0.0000077 -0.0007738 0.0001344 0.0001577 0.0000193 0.0002887 0.0002546 0.0006803 0.0000584 -0.0001581 -0.0002979 -0.0015370 0.0000684 -0.0011738 0.0000918 -0.0016202
-0.0002537 -0.0016055 0.0000452 -0.0011223 -0.0000154 -0.0011191 0.0001595 -0.0000607 0.0000413 0.0000981 0.0002765 0.0005978 0.0000880 -0.0002392 -0.0002824 -0.0016069 0.0000859 -0.0011314 0.0001119 -0.0015048
-0.0000600 -0.0015552 0.0000590 -0.0010339 -0.0000097 -0.0010664 0.0001589 -0.0000585 0.0000570 0.0002099 0.0002930 0.0006561 0.0001116 -0.0001545 -0.0002647 -0.0015104 0.0001088 -0.0008448 0.0001248 -0.0011348
0.0000906 -0.0011280 0.0000729 -0.0008202 -0.0000050 -0.0008613 0.0001328 0.0000153 0.0000548 0.0004191 0.0002778 0.0007146 0.0001083 -0.0000175 -0.0002577 -0.0013678 0.0001289 -0.0006135 0.0001334 -0.0010181
0.0001318 -0.0013165 0.0000926 -0.0009150 0.0000110 -0.0008758 0.0001077 -0.0000651 0.0000490 0.0003229 0.0002530 0.0005540 0.0000838 -0.0001318 -0.0002566 -0.0014782 0.0001195 -0.0009268 0.0001272 -0.0014210
-0.0001830 -0.0018134 0.0001063 -0.0012214 0.0000323 -0.0011456 0.0001044 -0.0002880 0.0000598 0.0000657 0.0002473 0.0003287 0.0000885 -0.0003297 -0.0002396 -0.0016051 0.0001049 -0.0011908 0.0001325 -0.0015918
-0.0003673 -0.0017684 0.0001036 -0.0012398 0.0000479 -0.0011804 0.0001194 -0.0003860 0.0000762 0.0000761 0.0002584 0.0003019 0.0001153 -0.0003023 -0.0002116 -0.0014840 0.0001173 -0.0009737 0.0001456 -0.0012895
-0.0002894 -0.0011684 0.0000762 -0.0010291 0.0000416 -0.0010033 0.0001199 -0.0003476 0.0000705 0.0002192 0.0002451 0.0003147 0.0001184 -0.0001875 -0.0001822 -0.0012483 0.0001279 -0.0006239 0.0001364 -0.0007759
0.0001969 -0.0009172 0.0000681 -0.0007978 0.0000266 -0.0007463 0.0000984 -0.0002466 0.0000504 0.0003578 0.0002160 0.0002874 0.0001031 -0.0001660 -0.0001711 -0.0011949 0.0001250 -0.0007205 0.0001204 -0.0009162
0.0005490 -0.0015737 0.0000875 -0.0009747 0.0000189 -0.0008661 0.0000674 -0.0003732 0.0000362 0.0001816 0.0001934 0.0001341 0.0000850 -0.0003164 -0.0001839 -0.0013551 0.0001121 -0.0010438 0.0001118 -0.0013382
0.0002993 -0.0019327 0.0001102 -0.0011901 0.0000294 -0.0010957 0.0000550 -0.0005007 0.0000458 0.0000283 0.0002117 0.0000877 0.0000925 -0.0003485 -0.0001745 -0.0013629 0.0001145 -0.0009662 0.0001197 -0.0011947
-0.0002001 -0.0012919 0.0001112 -0.0010684 0.0000300 -0.0010028 0.0000547 -0.0004309 0.0000496 0.0001389 0.0002298 0.0001630 0.0001040 -0.0002444 -0.0001643 -0.0012437 0.0001199 -0.0006885 0.0001192 -0.0008396
-0.0004819 -0.0007322 0.0000872 -0.0008545 0.0000051 -0.0007980 0.0000430 -0.0003329 0.0000294 0.0002924 0.0002002 0.0001487 0.0000973 -0.0002111 -0.0001538 -0.0011730 0.0001102 -0.0007068 0.0001059 -0.0009582
-0.0001484 -0.0012919 0.0000662 -0.0009992 -0.0000223 -0.0009445 0.0000395 -0.0004489 0.0000024 0.0000611 0.0001430 -0.0001281 0.0000707 -0.0003955 -0.0001174 -0.0012175 0.0000875 -0.0010924 0.0000960 -0.0014353
0.0004280 -0.0021475 0.0000948 -0.0013106 -0.0000300 -0.0012832 0.0000415 -0.0006261 -0.0000004 -0.0002415 0.0001112 -0.0003457 0.0000699 -0.0005138 -0.0000542 -0.0011243 0.0000879 -0.0011720 0.0001136 -0.0014013
0.0004883 -0.0017969 0.0001217 -0.0012600 -0.0000242 -0.0012493 0.0000312 -0.0005792 0.0000090 -0.0001966 0.0001005 -0.0003447 0.0000896 -0.0004181 0.0000135 -0.0008488 0.0001082 -0.0008907 0.0001348 -0.0010347
0.0002625 -0.0012881 0.0001233 -0.0010786 -0.0000195 -0.0010537 0.0000213 -0.0004704 -0.0000101 -0.0000536 0.0000779 -0.0003314 0.0000890 -0.0002732 0.0000638 -0.0005676 0.0001244 -0.0006488 0.0001458 -0.0008843
-0.0000687 -0.0011554 0.0001043 -0.0011528 -0.0000197 -0.0010532 0.0000295 -0.0005116 -0.0000290 -0.0001500 0.0000665 -0.0004242 0.0000797 -0.0003719 0.0000733 -0.0006390 0.0001199 -0.0009711 0.0001634 -0.0012774
-0.0001684 -0.0015903 0.0000820 -0.0014818 -0.0000149 -0.0013132 0.0000428 -0.0007161 -0.0000218 -0.0004429 0.0000825 -0.0005493 0.0000881 -0.0005924 0.0000439 -0.0009533 0.0001067 -0.0012906 0.0001670 -0.0014973
-0.0000094 -0.0016143 0.0000736 -0.0015366 -0.0000042 -0.0014013 0.0000530 -0.0007844 -0.0000105 -0.0004664 0.0001269 -0.0004332 0.0001135 -0.0005803 -0.0000114 -0.0011671 0.0001154 -0.0011118 0.0001633 -0.0012416
0.0002576 -0.0013166 0.0000752 -0.0013866 0.0000033 -0.0012763 0.0000495 -0.0006777 -0.0000081 -0.0003037 0.0001876 -0.0001737 0.0001269 -0.0004377 -0.0000833 -0.0013099 0.0001230 -0.0007880 0.0001460 -0.0008523
0.0004779 -0.0014938 0.0000797 -0.0013524 0.0000158 -0.0011568 0.0000626 -0.0005790 -0.0000057 -0.0002462 0.0002359 -0.0000296 0.0001194 -0.0004420 -0.0001668 -0.0016382 0.0001166 -0.0010029 0.0001169 -0.0011577
0.0000828 -0.0018275 0.0000647 -0.0016000 0.0000222 -0.0013548 0.0000735 -0.0007284 0.0000114 -0.0004268 0.0002524 -0.0001265 0.0001080 -0.0006378 -0.0002231 -0.0020179 0.0001057 -0.0014205 0.0001107 -0.0016521
-0.0003338 -0.0017851 0.0000620 -0.0017398 0.0000201 -0.0015405 0.0000849 -0.0009137 0.0000282 -0.0005147 0.0002576 -0.0002158 0.0001142 -0.0006823 -0.0002166 -0.0020411 0.0001095 -0.0013101 0.0001192 -0.0014442
-0.0003121 -0.0012938 0.0000608 -0.0015602 0.0000236 -0.0014207 0.0000900 -0.0008764 0.0000262 -0.0004001 0.0002554 -0.0002011 0.0001315 -0.0005733 -0.0001807 -0.0018249 0.0001146 -0.0009958 0.0001194 -0.0009899
0.0002311 -0.0011851 0.0000573 -0.0013077 0.0000306 -0.0011909 0.0000748 -0.0007441 0.0000164 -0.0001833 0.0002471 -0.0001347 0.0001386 -0.0004574 -0.0001484 -0.0016663 0.0001155 -0.0009087 0.0001155 -0.0009634
0.0006519 -0.0017723 0.0000602 -0.0013870 0.0000395 -0.0012414 0.0000538 -0.0008393 0.0000008 -0.0003389 0.0002290 -0.0002697 0.0001160 -0.0005705 -0.0001351 -0.0017430 0.0001000 -0.0012084 0.0001092 -0.0013383
0.0004711 -0.0019870 0.0000686 -0.0016035 0.0000522 -0.0014735 0.0000312 -0.0010439 -0.0000145 -0.0006461 0.0002092 -0.0004682 0.0000996 -0.0007032 -0.0001093 -0.0017497 0.0000855 -0.0012667 0.0001129 -0.0012964
0.0000122 -0.0013184 0.0000724 -0.0015190 0.0000570 -0.0014498 0.0000283 -0.0010439 -0.0000244 -0.0006031 0.0001977 -0.0004778 0.0001046 -0.0006217 -0.0000690 -0.0015458 0.0000869 -0.0009695 0.0001185 -0.0009217
-0.0002325 -0.0009330 0.0000648 -0.0012964 0.0000411 -0.0012689 0.0000315 -0.0009431 -0.0000312 -0.0003953 0.0001936 -0.0003673 0.0001111 -0.0004552 -0.0000554 -0.0013197 0.0000785 -0.0005771 0.0001054 -0.0004658
0.0000379 -0.0011018 0.0000454 -0.0011782 0.0000321 -0.0011396 0.0000336 -0.0009105 -0.0000342 -0.0003261 0.0001993 -0.0002962 0.0001031 -0.0004723 -0.0000927 -0.0014533 0.0000616 -0.0007584 0.0000739 -0.0006773
0.0005169 -0.0017273 0.0000312 -0.0013571 0.0000325 -0.0013443 0.0000114 -0.0010730 -0.0000200 -0.0004943 0.0001962 -0.0003731 0.0000888 -0.0006248 -0.0001162 -0.0016591 0.0000476 -0.0010760 0.0000482 -0.0010011
0.0006023 -0.0017750 0.0000385 -0.0014129 0.0000229 -0.0014628 -0.0000167 -0.0011725 -0.0000014 -0.0005073 0.0001634 -0.0004936 0.0000820 -0.0005939 -0.0000573 -0.0014265 0.0000446 -0.0008749 0.0000400 -0.0007159
0.0003812 -0.0014314 0.0000583 -0.0011997 0.0000148 -0.0013151 -0.0000345 -0.0010906 0.0000010 -0.0003076 0.0001377 -0.0004867 0.0000841 -0.0004462 -0.0000172 -0.0011233 0.0000435 -0.0005162 0.0000336 -0.0002145
0.0000044 -0.0010121 0.0000555 -0.0009332 0.0000066 -0.0010871 -0.0000434 -0.0009865 -0.0000071 -0.0001251 0.0001359 -0.0003928 0.0000761 -0.0003902 -0.0000391 -0.0011086 0.0000364 -0.0005621 0.0000132 -0.0002823
-0.0003626 -0.0008784 0.0000318 -0.0009923 0.0000010 -0.0011557 -0.0000542 -0.0011086 -0.0000131 -0.0002490 0.0001121 -0.0004919 0.0000631 -0.0004912 -0.0000342 -0.0011339 0.0000221 -0.0008267 -0.0000092 -0.0006169
-0.0003351 -0.0009535 0.0000176 -0.0010974 -0.0000106 -0.0013006 -0.0000749 -0.0012446 -0.0000165 -0.0003998 0.0000811 -0.0005824 0.0000666 -0.0005037 -0.0000025 -0.0009739 0.0000210 -0.0006956 -0.0000192 -0.0003895
0.0000657 -0.0008912 0.0000200 -0.0009150 -0.0000190 -0.0011375 -0.0001045 -0.0011423 -0.0000264 -0.0002715 0.0000734 -0.0004987 0.0000674 -0.0003666 0.0000107 -0.0007827 0.0000252 -0.0003965 -0.0000279 0.0000270
0.0003663 -0.0010729 0.0000345 -0.0007380 -0.0000189 -0.0009279 -0.0001321 -0.0010243 -0.0000367 -0.0001397 0.0000744 -0.0004121 0.0000584 -0.0003162 -0.0000068 -0.0007953 0.0000158 -0.0004546 -0.0000342 -0.0000795
0.0000053 -0.0013053 0.0000383 -0.0008119 -0.0000216 -0.0009939 -0.0001434 -0.0010954 -0.0000397 -0.0002478 0.0000652 -0.0004648 0.0000465 -0.0004018 -0.0000212 -0.0008967 0.0000041 -0.0006931 -0.0000365 -0.0004011
-0.0004573 -0.0009927 0.0000287 -0.0009061 -0.0000234 -0.0011548 -0.0001421 -0.0011946 -0.0000362 -0.0003335 0.0000581 -0.0004947 0.0000475 -0.0004071 -0.0000244 -0.0008742 0.0000008 -0.0005912 -0.0000357 -0.0002438
-0.0003721 -0.0005299 0.0000123 -0.0007522 -0.0000406 -0.0010605 -0.0001378 -0.0010945 -0.0000364 -0.0001909 0.0000675 -0.0003563 0.0000593 -0.0002908 -0.0000400 -0.0007996 -0.0000017 -0.0003101 -0.0000531 0.0000678
0.0002843 -0.0006229 0.0000048 -0.0006492 -0.0000554 -0.0009486 -0.0001466 -0.0009838 -0.0000473 -0.0001624 0.0000756 -0.0002856 0.0000503 -0.0003111 -0.0000617 -0.0009080 -0.0000068 -0.0004521 -0.0000786 -0.0001540
0.0007255 -0.0012921 0.0000224 -0.0008024 -0.0000569 -0.0010992 -0.0001630 -0.0010616 -0.0000587 -0.0003565 0.0000668 -0.0003741 0.0000276 -0.0004628 -0.0000689 -0.0010498 -0.0000076 -0.0007548 -0.0000778 -0.0005392
0.0004306 -0.0014486 0.0000464 -0.0009035 -0.0000492 -0.0012379 -0.0001754 -0.0011317 -0.0000701 -0.0004821 0.0000586 -0.0004146 0.0000280 -0.0004720 -0.0000542 -0.0009721 0.0000004 -0.0006313 -0.0000606 -0.0003699
-0.0001673 -0.0006221 0.0000483 -0.0007585 -0.0000412 -0.0010799 -0.0001712 -0.0010166 -0.0000721 -0.0003734 0.0000677 -0.0003137 0.0000481 -0.0003409 -0.0000482 -0.0008456 0.0000150 -0.0003772 -0.0000489 -0.0001100
-0.0004374 -0.0002490 0.0000219 -0.0007402 -0.0000238 -0.0009299 -0.0001515 -0.0009586 -0.0000864 -0.0004320 0.0000255 -0.0004615 0.0000640 -0.0003384 0.0000838 -0.0004395 0.0000169 -0.0005424 -0.0000190 -0.0002825
-0.0001841 -0.0006652 0.0000027 -0.0009397 0.0000134 -0.0009533 -0.0001265 -0.0010463 -0.0001132 -0.0007209 -0.0000467 -0.0007775 0.0000793 -0.0004236 0.0002533 -0.0000192 0.0000152 -0.0008531 0.0000261 -0.0005739
0.0003007 -0.0011871 0.0000251 -0.0010114 0.0000381 -0.0009987 -0.0001052 -0.0010343 -0.0001085 -0.0007818 -0.0000586 -0.0007985 0.0000989 -0.0003561 0.0003021 0.0001533 0.0000278 -0.0006993 0.0000423 -0.0003708
0.0004101 -0.0008385 0.0000527 -0.0007863 0.0000385 -0.0008585 -0.0000822 -0.0008125 -0.0000919 -0.0005682 -0.0000394 -0.0006362 0.0001170 -0.0001648 0.0003341 0.0003904 0.0000469 -0.0003731 0.0000456 -0.0000418
0.0002252 -0.0005130 0.0000688 -0.0006792 0.0000507 -0.0007587 -0.0000537 -0.0006723 -0.0000830 -0.0005417 -0.0000338 -0.0006216 0.0001204 -0.0001593 0.0003608 0.0004319 0.0000476 -0.0005225 0.0000444 -0.0002629
-0.0000702 -0.0005601 0.0000652 -0.0008140 0.0000687 -0.0008857 -0.0000203 -0.0007120 -0.0000792 -0.0007422 -0.0000389 -0.0007544 0.0001268 -0.0002901 0.0003905 0.0003819 0.0000452 -0.0008349 0.0000545 -0.0005822
-0.0001537 -0.0006427 0.0000608 -0.0008527 0.0000752 -0.0009435 0.0000138 -0.0007039 -0.0000721 -0.0007804 -0.0000390 -0.0007593 0.0001516 -0.0002334 0.0004377 0.0005775 0.0000525 -0.0006468 0.0000780 -0.0003364
0.0000486 -0.0003232 0.0000598 -0.0006348 0.0000942 -0.0007364 0.0000293 -0.0005385 -0.0000718 -0.0006218 -0.0000351 -0.0006267 0.0001707 -0.0000383 0.0004858 0.0008884 0.0000601 -0.0002825 0.0000767 0.0001179
0.0003427 0.0000956 0.0000580 -0.0004244 0.0001259 -0.0004628 0.0000271 -0.0003765 -0.0000888 -0.0005786 -0.0000327 -0.0005815 0.0001710 0.0000098 0.0005236 0.0010127 0.0000535 -0.0004049 0.0000571 -0.0000442
0.0005422 -0.0003255 0.0000658 -0.0006038 0.0001533 -0.0005006 0.0000261 -0.0004454 -0.0001049 -0.0008303 -0.0000443 -0.0007039 0.0001671 -0.0001048 0.0005591 0.0010149 0.0000383 -0.0007709 0.0000662 -0.0004811
0.0001921 -0.0006122 0.0000781 -0.0007755 0.0001725 -0.0006209 0.0000367 -0.0005241 -0.0001083 -0.0009724 -0.0000443 -0.0007381 0.0001760 -0.0001037 0.0005608 0.0010612 0.0000373 -0.0006634 0.0000824 -0.0003220
-0.0001502 -0.0001042 0.0000762 -0.0005840 0.0001694 -0.0004829 0.0000647 -0.0003911 -0.0000930 -0.0007643 -0.0000135 -0.0005807 0.0001751 -0.0000072 0.0004952 0.0009809 0.0000413 -0.0003615 0.0000795 0.0000436
-0.0001413 0.0004871 0.0000485 -0.0003119 0.0001461 -0.0003001 0.0000872 -0.0001797 -0.0000688 -0.0003954 0.0000449 -0.0002965 0.0001588 0.0000800 0.0003533 0.0006344 0.0000404 -0.0001929 0.0000512 0.0000776
0.0002711 0.0002169 0.0000234 -0.0004140 0.0001152 -0.0004623 0.0000963 -0.0001749 -0.0000312 -0.0003443 0.0001324 -0.0001502 0.0001220 -0.0001366 0.0000843 -0.0003410 0.0000096 -0.0005530 -0.0000159 -0.0004756
0.0005772 -0.0006458 0.0000283 -0.0007391 0.0000723 -0.0008987 0.0000997 -0.0003624 0.0000335 -0.0004333 0.0001996 -0.0001387 0.0001038 -0.0003606 -0.0001296 -0.0011245 -0.0000208 -0.0008437 -0.0000634 -0.0007513
0.0002741 -0.0006905 0.0000437 -0.0007397 0.0000461 -0.0010225 0.0000861 -0.0004262 0.0000790 -0.0002771 0.0002194 -0.0000672 0.0001120 -0.0002638 -0.0001628 -0.0011236 -0.0000205 -0.0006778 -0.0000745 -0.0004903
-0.0002512 -0.0000124 0.0000285 -0.0005519 0.0000196 -0.0008853 0.0000437 -0.0003537 0.0000803 -0.0000612 0.0002224 0.0000574 0.0001127 -0.0000848 -0.0001707 -0.0009553 -0.0000183 -0.0003545 -0.0000812 -0.0000872
-0.0004492 0.0003679 -0.0000064 -0.0004137 -0.0000031 -0.0007071 0.0000208 -0.0002989 0.0000647 0.0000094 0.0002170 0.0001203 0.0001068 -0.0000689 -0.0002021 -0.0010006 -0.0000240 -0.0004900 -0.0000996 -0.0002752
-0.0001822 -0.0002193 -0.0000359 -0.0005891 -0.0000172 -0.0008092 0.0000136 -0.0004507 0.0000543 -0.0001507 0.0002032 0.0000275 0.0000984 -0.0001841 -0.0002246 -0.0011269 -0.0000348 -0.0008001 -0.0001137 -0.0006419
0.0003416 -0.0009786 -0.0000281 -0.0007508 -0.0000303 -0.0009152 -0.0000343 -0.0005488 0.0000513 -0.0002017 0.0001904 -0.0000144 0.0000990 -0.0001653 -0.0002159 -0.0010423 -0.0000325 -0.0006768 -0.0001087 -0.0004942
0.0004757 -0.0006922 -0.0000142 -0.0006174 -0.0000490 -0.0007637 -0.0000719 -0.0004374 0.0000471 -0.0000367 0.0001742 0.0000335 0.0000915 -0.0000384 -0.0001930 -0.0008313 -0.0000257 -0.0003986 -0.0001091 -0.0001425
0.0002588 -0.0001843 -0.0000088 -0.0003989 -0.0000607 -0.0005317 -0.0000853 -0.0002471 0.0000344 0.0001313 0.0001376 0.0000102 0.0000718 -0.0000224 -0.0001598 -0.0006418 -0.0000313 -0.0004971 -0.0001032 -0.0003194
-0.0000582 -0.0001528 -0.0000174 -0.0005233 -0.0000445 -0.0005229 -0.0001147 -0.0003475 -0.0000275 -0.0001598 -0.0000142 -0.0005637 0.0000854 -0.0000793 0.0002081 0.0005028 -0.0000486 -0.0007817 -0.0000253 -0.0005494
-0.0001348 -0.0002182 -0.0000228 -0.0007464 0.0000189 -0.0003536 -0.0001294 -0.0004860 -0.0001354 -0.0006634 -0.0001272 -0.0009037 0.0001433 0.0001130 0.0006249 0.0019003 -0.0000346 -0.0006045 0.0000896 -0.0001165
0.0000366 0.0002762 -0.0000068 -0.0005622 0.0000941 0.0002013 -0.0001097 -0.0002386 -0.0001970 -0.0007556 -0.0001101 -0.0005264 0.0001842 0.0004059 0.0007757 0.0025491 0.0000080 -0.0001684 0.0001609 0.0004638
0.0003064 0.0007785 0.0000258 -0.0002037 0.0001473 0.0006893 -0.0000813 0.0001444 -0.0001969 -0.0004987 -0.0000972 -0.0001938 0.0001840 0.0006048 0.0007696 0.0026735 0.0000421 0.0001557 0.0001741 0.0006665
0.0005255 0.0004123 0.0000659 -0.0001990 0.0001714 0.0007759 -0.0000511 0.0003213 -0.0001810 -0.0004759 -0.0000944 -0.0001953 0.0001508 0.0004583 0.0006780 0.0022971 0.0000465 -0.0001522 0.0001528 0.0001377
0.0001738 -0.0000771 0.0001055 -0.0004259 0.0001523 0.0004633 -0.0000019 0.0002929 -0.0001691 -0.0007147 -0.0001330 -0.0004722 0.0001085 0.0001328 0.0006630 0.0020531 0.0000275 -0.0004596 0.0001024 -0.0003010
-0.0000658 0.0003484 0.0001358 -0.0003722 0.0001196 0.0002807 0.0000854 0.0004361 -0.0001438 -0.0006155 -0.0001341 -0.0005068 0.0000912 0.0000379 0.0006013 0.0018262 0.0000345 -0.0003093 0.0000787 -0.0001413
-0.0000057 0.0010113 0.0001191 -0.0002180 0.0000885 0.0002971 0.0001338 0.0006275 -0.0000915 -0.0002017 -0.0000690 -0.0002384 0.0000988 0.0001432 0.0004871 0.0015934 0.0000529 -0.0000460 0.0001039 0.0003094
0.0004830 0.0009348 0.0000922 -0.0001685 0.0000739 0.0003770 0.0001272 0.0007153 -0.0000473 0.0000825 -0.0000175 -0.0000609 0.0000902 0.0001349 0.0003966 0.0013318 0.0000555 -0.0002394 0.0001135 0.0001244
0.0009174 0.0000435 0.0001117 -0.0003766 0.0000655 0.0001750 0.0001135 0.0006170 -0.0000226 0.0000077 -0.0000189 -0.0001455 0.0000626 -0.0000394 0.0003511 0.0010939 0.0000637 -0.0005796 0.0001226 -0.0001986
0.0006660 -0.0002550 0.0001514 -0.0004680 0.0000719 0.0000357 0.0001052 0.0005284 -0.0000270 -0.0000487 -0.0000079 -0.0001412 0.0000593 -0.0000342 0.0003446 0.0010831 0.0000759 -0.0004235 0.0001316 0.0000504
0.0001023 0.0005568 0.0001562 -0.0002846 0.0000934 0.0002783 0.0000796 0.0005905 -0.0000586 0.0000699 0.0000195 0.0000101 0.0000690 0.0001307 0.0003417 0.0012001 0.0000833 -0.0000579 0.0001342 0.0004831
-0.0002019 0.0010687 0.0001301 -0.0000462 0.0000970 0.0005678 0.0000513 0.0007106 -0.0000652 0.0003745 0.0000306 0.0001790 0.0000639 0.0002462 0.0002379 0.0009859 0.0000885 0.0000736 0.0001122 0.0005134
0.0000006 0.0005951 0.0001054 -0.0001414 0.0000726 0.0004352 0.0000707 0.0006848 -0.0000480 0.0004224 0.0000820 0.0002897 0.0000444 0.0001260 0.0000166 0.0002193 0.0000687 -0.0002860 0.0000592 0.0000398
0.0004779 -0.0003317 0.0001040 -0.0004426 0.0000384 0.0000603 0.0000618 0.0005159 -0.0000339 0.0002518 0.0001358 0.0003349 0.0000319 0.0000152 -0.0001323 -0.0003057 0.0000521 -0.0004697 0.0000214 -0.0000810
0.0005906 -0.0003443 0.0000975 -0.0004411 0.0000047 -0.0000095 0.0000242 0.0004720 -0.0000236 0.0003483 0.0001557 0.0004288 0.0000318 0.0001111 -0.0001720 -0.0003359 0.0000584 -0.0002754 0.0000020 0.0001917
0.0003774 -0.0000745 0.0000976 -0.0002803 -0.0000253 0.0001163 -0.0000094 0.0005229 -0.0000262 0.0005736 0.0001516 0.0005334 0.0000255 0.0002938 -0.0001592 -0.0001125 0.0000672 0.0000487 0.0000028 0.0005382
-0.0000007 0.0000678 0.0000893 -0.0002006 -0.0000378 0.0002079 -0.0000402 0.0005093 -0.0000455 0.0006034 0.0001190 0.0004591 0.0000066 0.0002810 -0.0001416 -0.0000418 0.0000675 -0.0001091 0.0000037 0.0003254
-0.0003437 0.0000457 0.0000623 -0.0003743 -0.0000615 0.0000479 -0.0000644 0.0003322 -0.0000636 0.0003879 0.0000831 0.0002732 -0.0000093 0.0001429 -0.0001434 -0.0001280 0.0000619 -0.0003940 -0.0000063 0.0000511
-0.0002385 -0.0000307 0.0000466 -0.0004319 -0.0000944 -0.0000630 -0.0000951 0.0002393 -0.0000607 0.0003797 0.0000614 0.0002428 -0.0000132 0.0001697 -0.0001543 -0.0001031 0.0000640 -0.0002252 -0.0000145 0.0002698
0.0002571 -0.0000283 0.0000434 -0.0002603 -0.0001251 0.0000327 -0.0001309 0.0003187 -0.0000540 0.0005758 0.0000480 0.0003269 -0.0000168 0.0002850 -0.0001775 -0.0000306 0.0000641 0.0000809 -0.0000393 0.0006123
0.0006372 -0.0002547 0.0000490 -0.0001284 -0.0001506 0.0001888 -0.0001692 0.0004077 -0.0000656 0.0006867 0.0000405 0.0003619 -0.0000398 0.0003121 -0.0002131 -0.0001028 0.0000549 0.0000142 -0.0000616 0.0005008
0.0003161 -0.0004962 0.0000389 -0.0002645 -0.0001666 0.0000817 -0.0001970 0.0003283 -0.0000764 0.0005807 0.0000383 0.0003193 -0.0000622 0.0002432 -0.0002607 -0.0003059 0.0000395 -0.0002201 -0.0000671 0.0002385
-0.0001622 -0.0002006 0.0000258 -0.0003846 -0.0001826 -0.0000723 -0.0002151 0.0002338 -0.0000748 0.0005586 0.0000383 0.0003382 -0.0000629 0.0002836 -0.0002973 -0.0003466 0.0000302 -0.0000882 -0.0000761 0.0004412
-0.0001775 0.0001613 0.0000117 -0.0002489 -0.0002017 0.0000438 -0.0002383 0.0003011 -0.0000769 0.0007508 0.0000474 0.0004804 -0.0000571 0.0004291 -0.0003359 -0.0003124 0.0000223 0.0001766 -0.0001101 0.0007379
0.0003501 0.0000556 -0.0000053 -0.0001579 -0.0002286 0.0001530 -0.0002735 0.0003461 -0.0000869 0.0008005 0.0000551 0.0005457 -0.0000632 0.0004246 -0.0003966 -0.0004917 0.0000097 0.0000233 -0.0001418 0.0005013
0.0006916 -0.0005031 -0.0000071 -0.0003517 -0.0002348 -0.0000530 -0.0003117 0.0001820 -0.0000876 0.0006117 0.0000579 0.0004656 -0.0000716 0.0002957 -0.0004416 -0.0007577 -0.0000010 -0.0003177 -0.0001438 0.0001203
0.0004175 -0.0005937 0.0000012 -0.0005031 -0.0002247 -0.0002830 -0.0003502 0.0000156 -0.0000793 0.0005218 0.0000648 0.0004529 -0.0000632 0.0003082 -0.0004583 -0.0008142 -0.0000019 -0.0002270 -0.0001362 0.0002883
-0.0001910 0.0001835 0.0000100 -0.0003710 -0.0002242 -0.0002056 -0.0003784 0.0000404 -0.0000751 0.0006684 0.0000808 0.0005750 -0.0000480 0.0004689 -0.0004765 -0.0007425 0.0000021 0.0000673 -0.0001358 0.0006088
-0.0005284 0.0005001 0.0000032 -0.0002613 -0.0002141 -0.0000977 -0.0003953 0.0000298 -0.0000757 0.0007168 0.0000857 0.0005949 -0.0000455 0.0004718 -0.0005047 -0.0008436 -0.0000036 -0.0000646 -0.0001506 0.0004018
-0.0003675 -0.0000394 -0.0000176 -0.0004396 -0.0002211 -0.0002730 -0.0004160 -0.0001813 -0.0000782 0.0005104 0.0000796 0.0004644 -0.0000493 0.0003043 -0.0005135 -0.0010517 -0.0000075 -0.0004076 -0.0001625 0.0000421
0.0001390 -0.0006294 -0.0000235 -0.0006021 -0.0002175 -0.0004447 -0.0004313 -0.0003319 -0.0000952 0.0003331 0.0000605 0.0003571 -0.0000428 0.0002966 -0.0004057 -0.0007559 0.0000025 -0.0002764 -0.0001356 0.0003109
0.0004687 -0.0004545 -0.0000248 -0.0004494 -0.0001939 -0.0002502 -0.0004310 -0.0001853 -0.0001266 0.0003558 0.0000193 0.0003005 -0.0000355 0.0004447 -0.0002608 -0.0002083 0.0000130 0.0000657 -0.0001010 0.0007139
0.0004998 -0.0004014 -0.0000197 -0.0003889 -0.0001751 -0.0001151 -0.0004236 -0.0000789 -0.0001407 0.0003078 -0.0000144 0.0001780 -0.0000478 0.0004085 -0.0002136 -0.0001402 0.0000114 -0.0000462 -0.0001066 0.0005212
0.0001926 -0.0005834 -0.0000117 -0.0005619 -0.0001565 -0.0002951 -0.0004045 -0.0002246 -0.0001300 0.0001192 -0.0000243 -0.0000035 -0.0000523 0.0002322 -0.0001856 -0.0002615 0.0000103 -0.0003322 -0.0001005 0.0002156
-0.0001470 -0.0005499 -0.0000110 -0.0006458 -0.0001400 -0.0004296 -0.0003743 -0.0003229 -0.0001165 0.0000660 -0.0000074 -0.0000191 -0.0000243 0.0002418 -0.0001506 -0.0002174 0.0000129 -0.0001718 -0.0000818 0.0004628
-0.0000850 -0.0002740 -0.0000319 -0.0005265 -0.0001423 -0.0003266 -0.0003485 -0.0002541 -0.0000883 0.0002469 0.0000187 0.0000923 -0.0000021 0.0003764 -0.0002122 -0.0003417 0.0000035 0.0000954 -0.0001028 0.0006897
0.0003309 -0.0004281 -0.0000584 -0.0005030 -0.0001624 -0.0003597 -0.0003647 -0.0003752 -0.0000441 0.0002951 0.0000371 0.0000783 -0.0000093 0.0002960 -0.0003510 -0.0008560 -0.0000246 -0.0001178 -0.0001499 0.0003743
0.0005830 -0.0011964 -0.0000619 -0.0007146 -0.0001652 -0.0006515 -0.0003920 -0.0007109 -0.0000058 0.0001671 0.0000630 0.0000292 -0.0000165 0.0001246 -0.0004281 -0.0013026 -0.0000484 -0.0004518 -0.0001756 0.0000658
0.0000551 -0.0013432 -0.0000574 -0.0008153 -0.0001605 -0.0007986 -0.0003808 -0.0008414 0.0000219 0.0002113 0.0001010 0.0001170 -0.0000040 0.0001608 -0.0004364 -0.0013593 -0.0000553 -0.0003069 -0.0001862 0.0003188
-0.0005582 -0.0005119 -0.0000632 -0.0006357 -0.0001636 -0.0006619 -0.0003530 -0.0007576 0.0000250 0.0003918 0.0001220 0.0002584 0.0000004 0.0002892 -0.0004461 -0.0012795 -0.0000623 0.0000052 -0.0002000 0.0006560
-0.0006583 -0.0000733 -0.0000936 -0.0005654 -0.0001787 -0.0006028 -0.0003458 -0.0007798 0.0000108 0.0003794 0.0001126 0.0002489 -0.0000140 0.0002333 -0.0004681 -0.0013703 -0.0000786 -0.0000891 -0.0002354 0.0005077
-0.0000197 -0.0006679 -0.0001313 -0.0007416 -0.0002111 -0.0007890 -0.0003490 -0.0009783 -0.0000027 0.0001843 0.0001010 0.0001385 -0.0000189 0.0000729 -0.0004750 -0.0015373 -0.0000944 -0.0003307 -0.0002679 0.0002676
0.0004921 -0.0013733 -0.0001446 -0.0008141 -0.0002261 -0.0008959 -0.0003525 -0.0010842 0.0000081 0.0001810 0.0001091 0.0001542 -0.0000089 0.0001003 -0.0004667 -0.0014979 -0.0001077 -0.0001850 -0.0002805 0.0004752
0.0002962 -0.0011206 -0.0001468 -0.0006493 -0.0002365 -0.0007773 -0.0003679 -0.0010381 0.0000235 0.0003339 0.0001105 0.0002335 -0.0000152 0.0002218 -0.0004754 -0.0013912 -0.0001251 0.0000707 -0.0003085 0.0007497
-0.0003501 -0.0003546 -0.0001627 -0.0005989 -0.0002558 -0.0007335 -0.0003866 -0.0010935 0.0000146 0.0002957 0.0000934 0.0001775 -0.0000385 0.0001711 -0.0004981 -0.0014822 -0.0001487 -0.0000556 -0.0003415 0.0005389
-0.0006957 -0.0005733 -0.0001831 -0.0007878 -0.0002700 -0.0009088 -0.0003916 -0.0012869 0.0000083 0.0001140 0.0000780 0.0000503 -0.0000418 0.0000364 -0.0005069 -0.0016182 -0.0001763 -0.0002967 -0.0003689 0.0002485
-0.0005071 -0.0010472 -0.0001961 -0.0008434 -0.0002881 -0.0010151 -0.0003776 -0.0013692 0.0000139 0.0000774 0.0000744 0.0000304 -0.0000202 0.0000673 -0.0004791 -0.0014652 -0.0001969 -0.0001201 -0.0003974 0.0005052
0.0000765 -0.0011283 -0.0001848 -0.0005859 -0.0002926 -0.0007966 -0.0004008 -0.0012350 -0.0000347 0.0000843 0.0000345 -0.0000226 -0.0000270 0.0001494 -0.0003775 -0.0009643 -0.0002073 0.0002431 -0.0004187 0.0009671
0.0003832 -0.0007547 -0.0001649 -0.0003268 -0.0003008 -0.0004853 -0.0004319 -0.0010844 -0.0001249 -0.0001010 -0.0000364 -0.0001941 -0.0000717 0.0000528 -0.0002765 -0.0006153 -0.0002009 0.0002310 -0.0004286 0.0009116
0.0003464 -0.0009482 -0.0001348 -0.0003647 -0.0002992 -0.0005023 -0.0004178 -0.0010810 -0.0001561 -0.0003767 -0.0000548 -0.0003067 -0.0000809 -0.0000943 -0.0002426 -0.0006469 -0.0002007 0.0000129 -0.0004257 0.0006225
-0.0001513 -0.0010253 -0.0000971 -0.0003899 -0.0002741 -0.0005958 -0.0003655 -0.0010349 -0.0001282 -0.0003989 -0.0000150 -0.0002131 -0.0000422 -0.0000371 -0.0002286 -0.0006423 -0.0002142 0.0001618 -0.0004189 0.0008097
-0.0007880 -0.0002922 -0.0000872 -0.0001356 -0.0002586 -0.0004315 -0.0003182 -0.0008320 -0.0001108 -0.0002013 0.0000236 -0.0000050 -0.0000125 0.0001300 -0.0002342 -0.0005495 -0.0002194 0.0004723 -0.0004228 0.0011186
-0.0007305 -0.0000240 -0.0001020 0.0000088 -0.0002562 -0.0003052 -0.0003023 -0.0006944 -0.0001164 -0.0001730 0.0000375 0.0000657 -0.0000071 0.0001216 -0.0002597 -0.0006711 -0.0002225 0.0003895 -0.0004405 0.0009572
-0.0002263 -0.0003998 -0.0001240 -0.0000963 -0.0002590 -0.0004192 -0.0002869 -0.0007404 -0.0001003 -0.0003176 0.0000497 0.0000286 0.0000058 0.0000026 -0.0002685 -0.0008620 -0.0002236 0.0001489 -0.0004488 0.0007102
0.0002537 -0.0009848 -0.0001294 -0.0001481 -0.0002543 -0.0005152 -0.0002518 -0.0007539 -0.0000629 -0.0002911 0.0000743 0.0000983 0.0000280 0.0000581 -0.0002467 -0.0008031 -0.0002243 0.0002975 -0.0004318 0.0009426
-0.0001097 -0.0006457 -0.0001389 0.0000015 -0.0002553 -0.0003758 -0.0002359 -0.0006116 -0.0000556 -0.0001090 0.0000848 0.0002398 0.0000259 0.0001953 -0.0002345 -0.0006791 -0.0002149 0.0005862 -0.0004145 0.0011779
-0.0006766 0.0001093 -0.0001544 0.0000751 -0.0002845 -0.0003647 -0.0002434 -0.0006010 -0.0000710 -0.0001369 0.0000606 0.0002052 0.0000044 0.0001304 -0.0002487 -0.0007646 -0.0002079 0.0004910 -0.0004210 0.0010007
-0.0007181 0.0000317 -0.0001570 0.0000093 -0.0003018 -0.0005418 -0.0002341 -0.0007478 -0.0000518 -0.0002616 0.0000454 0.0000976 0.0000095 0.0000121 -0.0002495 -0.0008731 -0.0002084 0.0002853 -0.0004190 0.0008412
0.0000549 -0.0005932 -0.0001620 0.0000169 -0.0002990 -0.0005799 -0.0002088 -0.0007473 -0.0000132 -0.0001879 0.0000508 0.0001214 0.0000347 0.0000957 -0.0002331 -0.0007613 -0.0002114 0.0004829 -0.0004090 0.0011250
0.0005951 -0.0006462 -0.0001738 0.0002088 -0.0002996 -0.0003880 -0.0001997 -0.0005608 0.0000039 0.0000600 0.0000516 0.0002087 0.0000442 0.0002520 -0.0002236 -0.0006138 -0.0002128 0.0007190 -0.0004238 0.0013154
0.0003986 -0.0002884 -0.0001911 0.0002524 -0.0003008 -0.0003300 -0.0002145 -0.0005258 0.0000100 0.0001009 0.0000364 0.0001530 0.0000322 0.0002353 -0.0002197 -0.0006069 -0.0002269 0.0006351 -0.0004413 0.0012204
-0.0002212 0.0002493 -0.0001926 0.0001391 -0.0003100 -0.0004284 -0.0002252 -0.0006342 0.0000220 -0.0000015 0.0000197 0.0000385 0.0000253 0.0001625 -0.0002164 -0.0006326 -0.0002449 0.0005181 -0.0004450 0.0012064
-0.0006466 0.0003313 -0.0001915 0.0001602 -0.0003151 -0.0004007 -0.0002119 -0.0006315 0.0000315 0.0000947 0.0000174 0.0000795 0.0000440 0.0002655 -0.0002059 -0.0004849 -0.0002544 0.0007631 -0.0004529 0.0015327
-0.0007704 0.0006057 -0.0002230 0.0003437 -0.0003190 -0.0002003 -0.0002067 -0.0004966 0.0000225 0.0002455 0.0000130 0.0001292 0.0000477 0.0003241 -0.0002048 -0.0004201 -0.0002587 0.0007670 -0.0004748 0.0015199
-0.0004638 0.0005073 -0.0002681 0.0002962 -0.0003420 -0.0002351 -0.0002287 -0.0005505 0.0000074 0.0001188 -0.0000090 0.0000339 0.0000315 0.0002423 -0.0002114 -0.0004908 -0.0002638 0.0005831 -0.0004807 0.0013105
-0.0000389 0.0001160 -0.0002987 0.0001402 -0.0003676 -0.0003722 -0.0002415 -0.0006496 0.0000036 -0.0000320 -0.0000168 -0.0000319 0.0000265 0.0002158 -0.0002079 -0.0004919 -0.0002694 0.0006259 -0.0004720 0.0014194
0.0000148 0.0000851 -0.0003013 0.0002101 -0.0003820 -0.0002720 -0.0002356 -0.0005437 0.0000123 0.0001187 -0.0000059 0.0000806 0.0000385 0.0003557 -0.0002025 -0.0003655 -0.0002729 0.0009017 -0.0004767 0.0016993
-0.0003438 0.0002915 -0.0002916 0.0002552 -0.0003782 -0.0001425 -0.0002305 -0.0004818 0.0000081 0.0001275 -0.0000047 0.0001062 0.0000319 0.0003388 -0.0002278 -0.0004746 -0.0002728 0.0007789 -0.0004831 0.0014862
-0.0009279 0.0007497 -0.0002967 0.0001140 -0.0003901 -0.0002742 -0.0002341 -0.0006054 0.0000018 -0.0000418 -0.0000102 0.0000097 0.0000312 0.0002019 -0.0002568 -0.0006646 -0.0002643 0.0004902 -0.0004644 0.0011362
-0.0007783 0.0005107 -0.0002976 -0.0000131 -0.0003991 -0.0004198 -0.0002159 -0.0006818 0.0000172 -0.0000642 -0.0000080 -0.0000038 0.0000565 0.0002127 -0.0002495 -0.0006206 -0.0002524 0.0005983 -0.0004475 0.0013078
-0.0000676 0.0000583 -0.0002941 0.0001159 -0.0003950 -0.0002924 -0.0002080 -0.0005596 0.0000381 0.0001338 0.0000053 0.0001227 0.0000778 0.0003564 -0.0002445 -0.0005083 -0.0002303 0.0008394 -0.0004284 0.0014802
0.0004311 -0.0003405 -0.0002853 0.0000990 -0.0003890 -0.0002696 -0.0002135 -0.0005978 0.0000435 0.0000964 0.0000057 0.0001065 0.0000613 0.0002991 -0.0002674 -0.0006505 -0.0002151 0.0006522 -0.0004145 0.0011847
0.0000791 -0.0004589 -0.0002612 -0.0000682 -0.0003858 -0.0004521 -0.0002266 -0.0007912 0.0000451 -0.0001027 0.0000105 0.0000066 0.0000517 0.0001542 -0.0002813 -0.0008727 -0.0001950 0.0003613 -0.0003955 0.0009198
-0.0005119 0.0000073 -0.0001965 -0.0000512 -0.0003666 -0.0004894 -0.0002256 -0.0008242 0.0000572 -0.0000942 0.0000396 0.0000705 0.0000842 0.0002009 -0.0002748 -0.0008646 -0.0001664 0.0005111 -0.0003576 0.0011463
-0.0006355 0.0002780 -0.0001390 0.0001368 -0.0003327 -0.0002849 -0.0001918 -0.0006917 0.0000650 0.0000677 0.0000651 0.0002226 0.0001099 0.0003210 -0.0002702 -0.0007541 -0.0001498 0.0007954 -0.0003390 0.0014750
-0.0001019 0.0001027 -0.0001464 0.0002086 -0.0003156 -0.0001541 -0.0001738 -0.0006454 0.0000561 0.0000622 0.0000625 0.0002204 0.0001023 0.0002571 -0.0002783 -0.0008410 -0.0001412 0.0006186 -0.0003324 0.0011998
0.0001853 -0.0002284 -0.0001621 0.0000219 -0.0003255 -0.0003613 -0.0001727 -0.0008386 0.0000523 -0.0001927 0.0000484 0.0000605 0.0000917 0.0000575 -0.0002782 -0.0010489 -0.0001246 0.0002425 -0.0003112 0.0007668
0.0000449 -0.0003843 -0.0001423 -0.0000612 -0.0003157 -0.0005487 -0.0001654 -0.0009449 0.0000714 -0.0002701 0.0000620 0.0000358 0.0001121 0.0000467 -0.0002505 -0.0010382 -0.0000995 0.0003361 -0.0002764 0.0009357
-0.0003481 0.0001101 -0.0000886 0.0000883 -0.0002677 -0.0004444 -0.0001457 -0.0008330 0.0000886 -0.0001070 0.0000908 0.0001436 0.0001331 0.0001769 -0.0002211 -0.0009019 -0.0000816 0.0006200 -0.0002503 0.0012730
-0.0006893 0.0003827 -0.0000570 0.0002967 -0.0002452 -0.0002613 -0.0001267 -0.0006961 0.0000861 0.0001383 0.0000998 0.0002658 0.0001372 0.0003058 -0.0002120 -0.0007952 -0.0000690 0.0007490 -0.0002415 0.0012941
-0.0007161 0.0003727 -0.0000789 0.0002456 -0.0002525 -0.0003315 -0.0001287 -0.0007693 0.0000711 -0.0000057 0.0000739 0.0001138 0.0001203 0.0001532 -0.0002044 -0.0008824 -0.0000708 0.0004647 -0.0002484 0.0008936
-0.0003377 0.0000838 -0.0001043 0.0000530 -0.0002645 -0.0006026 -0.0001336 -0.0009729 0.0000718 -0.0003244 0.0000386 -0.0001753 0.0001230 -0.0000407 -0.0000927 -0.0006927 -0.0000685 0.0003025 -0.0002220 0.0008212
0.0003457 -0.0004217 -0.0000763 0.0001236 -0.0002370 -0.0005963 -0.0001137 -0.0010006 0.0000695 -0.0004081 -0.0000122 -0.0004623 0.0001661 0.0000606 0.0001399 0.0000047 -0.0000507 0.0004587 -0.0001648 0.0011355
0.0006099 -0.0005316 -0.0000331 0.0002837 -0.0001928 -0.0004119 -0.0000969 -0.0009015 0.0000640 -0.0003644 -0.0000621 -0.0006859 0.0002081 0.0002727 0.0003215 0.0006539 -0.0000445 0.0007519 -0.0001314 0.0015301
0.0002227 -0.0000650 -0.0000018 0.0004725 -0.0001679 -0.0001839 -0.0000968 -0.0007600 0.0000663 -0.0002348 -0.0000619 -0.0006571 0.0002147 0.0003277 0.0003405 0.0007032 -0.0000338 0.0007069 -0.0001275 0.0013437
-0.0004564 0.0004818 0.0000030 0.0003482 -0.0001583 -0.0003174 -0.0000913 -0.0009100 0.0000602 -0.0004334 -0.0000452 -0.0007039 0.0002044 0.0001205 0.0002599 0.0002367 -0.0000293 0.0003496 -0.0001388 0.0008001
-0.0005534 0.0001900 0.0000029 0.0000673 -0.0001505 -0.0006211 -0.0000531 -0.0011207 0.0000764 -0.0006542 0.0000361 -0.0005534 0.0002099 -0.0000588 0.0000987 -0.0004189 -0.0000288 0.0002907 -0.0001341 0.0007200
-0.0000056 -0.0004096 -0.0000145 0.0000616 -0.0001442 -0.0006188 -0.0000135 -0.0010714 0.0001154 -0.0005357 0.0001358 -0.0001968 0.0002178 -0.0000427 -0.0000470 -0.0008599 -0.0000296 0.0005046 -0.0001332 0.0009769
0.0003631 -0.0003232 -0.0000372 0.0002695 -0.0001526 -0.0004851 0.0000050 -0.0008823 0.0001330 -0.0002995 0.0001531 -0.0000056 0.0002100 0.0000469 -0.0000917 -0.0009100 -0.0000301 0.0008018 -0.0001522 0.0011627
0.0000308 0.0002197 -0.0000272 0.0003897 -0.0001576 -0.0004747 0.0000138 -0.0007943 0.0001114 -0.0004089 0.0001280 -0.0000717 0.0001699 -0.0001060 -0.0001411 -0.0011581 -0.0000453 0.0006078 -0.0002136 0.0007447
-0.0004211 0.0004944 -0.0000078 0.0002359 -0.0001892 -0.0007434 0.0000109 -0.0009520 0.0000649 -0.0007871 0.0001164 -0.0002253 0.0001375 -0.0003410 -0.0001664 -0.0014259 -0.0000725 0.0002861 -0.0002710 0.0003240
-0.0004811 0.0002446 0.0000160 0.0001851 -0.0002078 -0.0008581 0.0000153 -0.0009781 0.0000482 -0.0008409 0.0001300 -0.0002075 0.0001567 -0.0003241 -0.0001437 -0.0013339 -0.0000768 0.0004242 -0.0002714 0.0005161
0.0000048 0.0000265 0.0000031 0.0003619 -0.0001925 -0.0006557 0.0000416 -0.0007872 0.0000599 -0.0006185 0.0001374 -0.0001342 0.0001731 -0.0001686 -0.0001099 -0.0010774 -0.0000842 0.0007363 -0.0002742 0.0009289
0.0003131 0.0003582 -0.0000381 0.0005798 -0.0001977 -0.0004040 0.0000487 -0.0006506 0.0000549 -0.0004827 0.0001199 -0.0001541 0.0001595 -0.0001302 -0.0000899 -0.0009944 -0.0000924 0.0006465 -0.0002834 0.0007682
0.0003715 0.0002507 -0.0000651 0.0003950 -0.0002012 -0.0005455 0.0000199 -0.0008551 0.0000518 -0.0006559 0.0001106 -0.0002849 0.0001591 -0.0002318 -0.0000884 -0.0011161 -0.0000947 0.0003029 -0.0002730 0.0004106
0.0002466 -0.0000759 -0.0000366 0.0001169 -0.0001758 -0.0007675 0.0000038 -0.0010788 0.0000573 -0.0007773 0.0001209 -0.0003463 0.0001792 -0.0002282 -0.0000622 -0.0010696 -0.0000996 0.0003314 -0.0002471 0.0005511
-0.0000754 0.0000086 -0.0000031 0.0001874 -0.0001405 -0.0006175 0.0000074 -0.0010159 0.0000493 -0.0006848 0.0001209 -0.0003135 0.0001891 -0.0001176 -0.0000258 -0.0008392 -0.0001098 0.0006439 -0.0002416 0.0009265
-0.0002855 0.0005974 -0.0000150 0.0004481 -0.0001317 -0.0003111 0.0000049 -0.0008420 0.0000272 -0.0005255 0.0001024 -0.0002407 0.0001759 0.0000036 -0.0000498 -0.0007650 -0.0001111 0.0008086 -0.0002496 0.0010018
-0.0001464 0.0007557 -0.0000544 0.0004442 -0.0001372 -0.0003041 0.0000024 -0.0009209 0.0000173 -0.0006425 0.0000852 -0.0003208 0.0001579 -0.0000987 -0.0001099 -0.0010237 -0.0001192 0.0004432 -0.0002423 0.0005239
0.0002559 -0.0000896 -0.0000735 0.0001310 -0.0001422 -0.0006154 -0.0000036 -0.0011780 0.0000368 -0.0008741 0.0000978 -0.0004277 0.0001694 -0.0002473 -0.0001188 -0.0011975 -0.0001365 0.0001744 -0.0002421 0.0002535
0.0003750 -0.0005396 -0.0000589 0.0000770 -0.0001458 -0.0006747 -0.0000135 -0.0012056 0.0000601 -0.0007959 0.0001265 -0.0003527 0.0001952 -0.0001937 -0.0001083 -0.0011524 -0.0001396 0.0003543 -0.0002499 0.0004781
-0.0000025 -0.0000138 -0.0000287 0.0002716 -0.0001458 -0.0004993 -0.0000227 -0.0010929 0.0000680 -0.0005541 0.0001450 -0.0001976 0.0001950 -0.0000497 -0.0001322 -0.0010653 -0.0001483 0.0006920 -0.0002620 0.0009021
-0.0005421 0.0007527 -0.0000177 0.0004461 -0.0001454 -0.0003229 -0.0000360 -0.0010096 0.0000658 -0.0004342 0.0001487 -0.0001246 0.0001754 -0.0000668 -0.0001822 -0.0011789 -0.0001471 0.0005706 -0.0002694 0.0007006
-0.0005857 0.0004081 -0.0000236 0.0003024 -0.0001509 -0.0004882 -0.0000417 -0.0011619 0.0000720 -0.0006163 0.0001456 -0.0002193 0.0001650 -0.0002424 -0.0002124 -0.0013829 -0.0001375 0.0002416 -0.0002528 0.0003022
-0.0000680 -0.0004103 -0.0000337 0.0001743 -0.0001610 -0.0006312 -0.0000290 -0.0012689 0.0000815 -0.0006977 0.0001174 -0.0003195 0.0001698 -0.0002400 -0.0001186 -0.0010749 -0.0001278 0.0003568 -0.0002117 0.0005289
0.0003352 -0.0002899 -0.0000591 0.0003543 -0.0001651 -0.0004200 -0.0000235 -0.0011409 0.0000726 -0.0005493 0.0000733 -0.0003601 0.0001756 -0.0000677 0.0000129 -0.0005277 -0.0001238 0.0006761 -0.0001933 0.0009865
0.0003180 0.0002759 -0.0000658 0.0006192 -0.0001699 -0.0001396 -0.0000422 -0.0009547 0.0000567 -0.0002903 0.0000508 -0.0002840 0.0001694 0.0001442 0.0000479 -0.0002306 -0.0001240 0.0009414 -0.0001932 0.0011955
0.0001936 0.0004615 -0.0000455 0.0006108 -0.0001700 -0.0001038 -0.0000618 -0.0009555 0.0000355 -0.0003579 0.0000337 -0.0003517 0.0001422 0.0000706 0.0000287 -0.0003196 -0.0001349 0.0006875 -0.0002020 0.0008289
0.0000770 -0.0000057 -0.0000261 0.0003498 -0.0001685 -0.0003529 -0.0000721 -0.0011463 0.0000377 -0.0006272 0.0000304 -0.0004901 0.0001341 -0.0001062 0.0000082 -0.0004992 -0.0001459 0.0004144 -0.0002118 0.0006004
0.0000949 -0.0001738 -0.0000405 0.0003170 -0.0001775 -0.0004027 -0.0000688 -0.0011643 0.0000584 -0.0005816 0.0000441 -0.0004292 0.0001416 -0.0000565 -0.0000061 -0.0004756 -0.0001470 0.0005709 -0.0002087 0.0008519
0.0000624 0.0004132 -0.0000767 0.0005214 -0.0001977 -0.0002252 -0.0000712 -0.0010274 0.0000584 -0.0003719 0.0000437 -0.0002954 0.0001353 0.0000787 -0.0000288 -0.0003636 -0.0001623 0.0008761 -0.0002261 0.0012777
0.0001817 0.0005723 -0.0001019 0.0007633 -0.0002285 -0.0000023 -0.0000889 -0.0008611 0.0000421 -0.0001420 0.0000341 -0.0001695 0.0001169 0.0001484 -0.0000598 -0.0003727 -0.0001727 0.0008794 -0.0002558 0.0012197
0.0002081 0.0002806 -0.0000924 0.0006533 -0.0002519 -0.0001068 -0.0001080 -0.0009561 0.0000324 -0.0002922 0.0000176 -0.0002354 0.0000850 0.0000214 -0.0000911 -0.0005521 -0.0001807 0.0005796 -0.0002779 0.0008240
-0.0000790 0.0000943 -0.0000882 0.0004327 -0.0002657 -0.0003916 -0.0001109 -0.0011000 0.0000348 -0.0004858 0.0000133 -0.0002926 0.0000726 -0.0000434 -0.0000979 -0.0006194 -0.0001893 0.0005661 -0.0002797 0.0008738
-0.0004258 0.0005430 -0.0001153 0.0004763 -0.0002841 -0.0003888 -0.0000941 -0.0009952 0.0000313 -0.0003758 0.0000234 -0.0001713 0.0000742 0.0000822 -0.0000942 -0.0005116 -0.0001990 0.0008096 -0.0002761 0.0012123
-0.0005169 0.0010000 -0.0001710 0.0006353 -0.0003245 -0.0001942 -0.0000795 -0.0008115 0.0000239 -0.0001597 0.0000228 -0.0000112 0.0000638 0.0002413 -0.0001177 -0.0004222 -0.0002045 0.0010006 -0.0002771 0.0013564
-0.0001677 0.0005640 -0.0002171 0.0005973 -0.0003544 -0.0001787 -0.0000812 -0.0008088 0.0000177 -0.0002019 0.0000080 -0.0000202 0.0000334 0.0001583 -0.0001701 -0.0006291 -0.0002083 0.0007828 -0.0002974 0.0010759
0.0000884 0.0001305 -0.0002330 0.0004220 -0.0003692 -0.0003836 -0.0001020 -0.0009874 0.0000238 -0.0003989 -0.0000022 -0.0000842 0.0000162 0.0000041 -0.0002134 -0.0008477 -0.0002106 0.0005996 -0.0003116 0.0009646
0.0000991 0.0002247 -0.0002109 0.0004718 -0.0003710 -0.0003907 -0.0001293 -0.0009890 0.0000354 -0.0003161 0.0000020 -0.0000119 0.0000220 0.0000579 -0.0002262 -0.0008020 -0.0002067 0.0007849 -0.0003143 0.0012438
-0.0000215 0.0004429 -0.0001726 0.0006522 -0.0003611 -0.0002176 -0.0001382 -0.0008474 0.0000357 -0.0001066 0.0000064 0.0001131 0.0000194 0.0001986 -0.0002409 -0.0006930 -0.0002054 0.0010302 -0.0003177 0.0014719
-0.0001375 0.0003259 -0.0001634 0.0006804 -0.0003646 -0.0001531 -0.0001378 -0.0008264 0.0000271 -0.0001354 -0.0000013 0.0001036 -0.0000011 0.0001473 -0.0002641 -0.0008018 -0.0002043 0.0008350 -0.0003226 0.0011967
-0.0001617 0.0000622 -0.0001787 0.0005259 -0.0003763 -0.0003184 -0.0001356 -0.0009775 0.0000305 -0.0003557 -0.0000139 -0.0000182 -0.0000091 -0.0000063 -0.0002669 -0.0009460 -0.0001965 0.0005434 -0.0003153 0.0009438
-0.0002145 0.0003531 -0.0001968 0.0005386 -0.0003799 -0.0003632 -0.0001178 -0.0010138 0.0000506 -0.0003410 -0.0000105 0.0000011 0.0000128 0.0000346 -0.0002560 -0.0008798 -0.0001817 0.0006808 -0.0003008 0.0011796
0.0000192 0.0007337 -0.0001905 0.0007115 -0.0003661 -0.0001977 -0.0001118 -0.0008892 0.0000663 -0.0001489 -0.0000056 0.0001120 0.0000302 0.0001625 -0.0002536 -0.0007504 -0.0001780 0.0009561 -0.0003110 0.0015304
0.0003194 0.0005380 -0.0001612 0.0008048 -0.0003460 -0.0000504 -0.0001443 -0.0008097 0.0000575 -0.0001143 -0.0000132 0.0001100 0.0000168 0.0001218 -0.0002700 -0.0008311 -0.0001682 0.0007803 -0.0003185 0.0012517
0.0000689 0.0003682 -0.0001514 0.0006291 -0.0003445 -0.0002133 -0.0001636 -0.0009908 0.0000501 -0.0003760 -0.0000253 -0.0000447 0.0000031 -0.0000768 -0.0002731 -0.0010526 -0.0001490 0.0003735 -0.0002984 0.0007439
-0.0004534 0.0006082 -0.0001598 0.0004854 -0.0003382 -0.0004271 -0.0001435 -0.0011525 0.0000690 -0.0005125 -0.0000217 -0.0001165 0.0000239 -0.0001147 -0.0002391 -0.0010360 -0.0001235 0.0004093 -0.0002568 0.0008334
-0.0007073 0.0010080 -0.0001615 0.0006107 -0.0003094 -0.0003541 -0.0001152 -0.0010652 0.0000881 -0.0003825 -0.0000111 -0.0000444 0.0000510 -0.0000061 -0.0002055 -0.0009050 -0.0001064 0.0006716 -0.0002362 0.0011720
-0.0003813 0.0008547 -0.0001656 0.0008199 -0.0003025 -0.0001772 -0.0000911 -0.0009202 0.0000925 -0.0001888 -0.0000082 0.0000505 0.0000579 0.0000602 -0.0002057 -0.0009040 -0.0000983 0.0006920 -0.0002428 0.0011164
0.0002693 0.0002041 -0.0001662 0.0007320 -0.0003029 -0.0002613 -0.0000925 -0.0010189 0.0000883 -0.0003283 -0.0000126 -0.0000408 0.0000518 -0.0000844 -0.0002208 -0.0010746 -0.0000985 0.0004067 -0.0002495 0.0007077
0.0004766 0.0001035 -0.0001581 0.0005586 -0.0002936 -0.0005027 -0.0000911 -0.0011811 0.0001017 -0.0005568 -0.0000212 -0.0001986 0.0000580 -0.0001963 -0.0001763 -0.0010578 -0.0000933 0.0003824 -0.0002349 0.0006968
0.0003998 0.0001636 -0.0001228 0.0006657 -0.0002669 -0.0004806 -0.0000768 -0.0011009 0.0001175 -0.0004945 -0.0000211 -0.0002145 0.0000803 -0.0001200 -0.0001160 -0.0008631 -0.0000832 0.0006336 -0.0002267 0.0009998
0.0000559 0.0004887 -0.0000982 0.0008438 -0.0002458 -0.0003322 -0.0000596 -0.0009606 0.0001273 -0.0003021 -0.0000292 -0.0002235 0.0000778 -0.0000429 -0.0001295 -0.0008345 -0.0000904 0.0008139 -0.0002531 0.0010729
-0.0002942 0.0007945 -0.0001127 0.0008134 -0.0002429 -0.0003654 -0.0000539 -0.0010144 0.0001258 -0.0003750 -0.0000234 -0.0002924 0.0000751 -0.0001284 -0.0001536 -0.0010071 -0.0000959 0.0005621 -0.0002822 0.0007018
-0.0003441 0.0006469 -0.0001279 0.0006332 -0.0002444 -0.0005879 -0.0000554 -0.0012161 0.0001222 -0.0006247 0.0000146 -0.0002956 0.0001081 -0.0002190 -0.0001331 -0.0011277 -0.0000884 0.0003439 -0.0002751 0.0005375
0.0000442 0.0003979 -0.0001199 0.0006388 -0.0002260 -0.0006102 -0.0000389 -0.0012141 0.0001388 -0.0006123 0.0000569 -0.0002040 0.0001408 -0.0001484 -0.0001045 -0.0010750 -0.0000820 0.0004854 -0.0002427 0.0007854
0.0005180 0.0000944 -0.0000911 0.0007789 -0.0002039 -0.0004235 -0.0000233 -0.0011028 0.0001481 -0.0004416 0.0000929 -0.0000609 0.0001552 -0.0000024 -0.0000905 -0.0009271 -0.0000965 0.0007534 -0.0002292 0.0011389
0.0001406 0.0004347 -0.0000701 0.0009388 -0.0001936 -0.0002622 -0.0000295 -0.0010239 0.0001206 -0.0004795 0.0000827 -0.0001015 0.0001324 -0.0000647 -0.0000779 -0.0009359 -0.0001005 0.0006713 -0.0002693 0.0008787
-0.0004591 0.0011894 -0.0000537 0.0008467 -0.0002016 -0.0004098 -0.0000417 -0.0011501 0.0000924 -0.0007977 0.0000498 -0.0003295 0.0001099 -0.0002878 -0.0000733 -0.0010942 -0.0000929 0.0003537 -0.0003029 0.0004336
-0.0005547 0.0011827 -0.0000353 0.0006498 -0.0002118 -0.0006143 -0.0000429 -0.0013631 0.0000934 -0.0009439 0.0000388 -0.0004409 0.0001159 -0.0003424 -0.0000627 -0.0010646 -0.0000904 0.0003647 -0.0002812 0.0005888
0.0000984 0.0007285 -0.0000350 0.0006672 -0.0001976 -0.0005109 -0.0000422 -0.0013684 0.0000955 -0.0008497 0.0000491 -0.0003801 0.0001377 -0.0002292 -0.0000325 -0.0008674 -0.0000890 0.0006052 -0.0002621 0.0009961
0.0006055 0.0006791 -0.0000414 0.0008748 -0.0001773 -0.0002237 -0.0000379 -0.0012012 0.0001010 -0.0005901 0.0000717 -0.0002292 0.0001518 -0.0000844 -0.0000251 -0.0007640 -0.0000753 0.0006392 -0.0002480 0.0009872
0.0006151 0.0005378 -0.0000359 0.0007874 -0.0001554 -0.0002432 -0.0000452 -0.0012735 0.0001089 -0.0006658 0.0000728 -0.0003043 0.0001427 -0.0001845 -0.0000285 -0.0008754 -0.0000573 0.0003101 -0.0002254 0.0005448
0.0002704 0.0004334 0.0000081 0.0004480 -0.0001422 -0.0004984 -0.0000405 -0.0014776 0.0001313 -0.0008973 0.0000716 -0.0004435 0.0001446 -0.0003189 -0.0000109 -0.0009405 -0.0000392 0.0002147 -0.0001881 0.0005056
-0.0000239 0.0002616 0.0000734 0.0003996 -0.0001254 -0.0005067 -0.0000187 -0.0014314 0.0001501 -0.0008120 0.0001123 -0.0003095 0.0001702 -0.0002074 0.0000005 -0.0008808 -0.0000093 0.0004341 -0.0001445 0.0008224
-0.0001309 0.0005996 0.0000979 0.0005476 -0.0001056 -0.0003430 -0.0000008 -0.0012568 0.0001630 -0.0005905 0.0001309 -0.0001580 0.0001820 -0.0000243 0.0000040 -0.0007017 0.0000085 0.0007624 -0.0001236 0.0011937
0.0000664 0.0008894 0.0000642 0.0006011 -0.0001137 -0.0002007 -0.0000051 -0.0012126 0.0001568 -0.0005962 0.0000886 -0.0002787 0.0001658 -0.0000982 0.0000302 -0.0006249 0.0000133 0.0005929 -0.0001221 0.0009481
0.0004316 0.0002125 0.0000486 0.0003510 -0.0001203 -0.0003662 -0.0000120 -0.0013962 0.0001384 -0.0008820 0.0000703 -0.0004464 0.0001679 -0.0002657 0.0000588 -0.0007325 0.0000295 0.0002296 -0.0001001 0.0005427
0.0004163 -0.0000701 0.0000624 0.0001559 -0.0001059 -0.0005201 0.0000159 -0.0014359 0.0001584 -0.0009412 0.0000826 -0.0004310 0.0001767 -0.0002627 0.0000450 -0.0008341 0.0000513 0.0003166 -0.0000687 0.0006732
0.0002343 0.0003228 0.0000847 0.0002249 -0.0000963 -0.0004495 0.0000194 -0.0013029 0.0001803 -0.0007610 0.0001007 -0.0002978 0.0001751 -0.0001625 -0.0000081 -0.0009105 0.0000525 0.0005627 -0.0000723 0.0010053
-0.0000255 0.0007001 0.0000969 0.0003794 -0.0001096 -0.0003024 0.0000097 -0.0011588 0.0001838 -0.0004960 0.0001248 -0.0001221 0.0001626 -0.0000520 -0.0000713 -0.0010256 0.0000513 0.0005581 -0.0000880 0.0009353
-0.0002365 0.0004457 0.0000726 0.0002206 -0.0001167 -0.0004163 0.0000081 -0.0012613 0.0001849 -0.0005769 0.0001294 -0.0001582 0.0001481 -0.0001401 -0.0001202 -0.0012539 0.0000501 0.0002399 -0.0000929 0.0004924
-0.0002375 0.0000673 0.0000392 -0.0000478 -0.0001194 -0.0006778 0.0000186 -0.0014401 0.0002015 -0.0007638 0.0001316 -0.0002229 0.0001563 -0.0002068 -0.0001338 -0.0013430 0.0000536 0.0001749 -0.0000898 0.0004828
-0.0000455 0.0003161 0.0000091 0.0000088 -0.0001245 -0.0006467 0.0000378 -0.0013826 0.0002157 -0.0006460 0.0001385 -0.0001276 0.0001684 -0.0000955 -0.0001322 -0.0012453 0.0000616 0.0004102 -0.0000944 0.0008282
0.0003640 0.0004722 -0.0000013 0.0001720 -0.0001304 -0.0004750 0.0000280 -0.0012556 0.0002056 -0.0004544 0.0001344 -0.0000156 0.0001687 0.0000523 -0.0001225 -0.0010186 0.0000508 0.0007496 -0.0000983 0.0012007
0.0007080 0.0002258 0.0000031 0.0002423 -0.0001095 -0.0002035 -0.0000088 -0.0011389 0.0001420 -0.0005530 0.0000547 -0.0002624 0.0001398 0.0000404 0.0000578 -0.0003820 0.0000544 0.0006218 -0.0000776 0.0010609
0.0005400 0.0002989 0.0000021 0.0001921 -0.0000232 0.0002846 0.0000556 -0.0007144 0.0001397 -0.0006584 -0.0000741 -0.0007032 0.0001357 0.0000564 0.0003617 0.0005616 0.0000802 0.0004083 -0.0000324 0.0008857
0.0001032 0.0007981 0.0000102 0.0002241 0.0000269 0.0006321 0.0001645 -0.0002232 0.0002118 -0.0004221 -0.0001131 -0.0007237 0.0001889 0.0003133 0.0005767 0.0013560 0.0001123 0.0006499 0.0000173 0.0011953
-0.0001455 0.0011508 0.0000190 0.0003816 0.0000136 0.0006865 0.0001916 -0.0000214 0.0002411 -0.0001764 -0.0000917 -0.0004608 0.0002390 0.0005939 0.0006825 0.0018912 0.0001340 0.0010162 0.0000378 0.0016360
0.0000594 0.0010534 0.0000088 0.0006135 -0.0000191 0.0008310 0.0001939 0.0001476 0.0002393 0.0000025 -0.0000772 -0.0002428 0.0002533 0.0007371 0.0007110 0.0020819 0.0001481 0.0010285 0.0000407 0.0015346
0.0003846 0.0006490 0.0000034 0.0005564 -0.0000518 0.0006965 0.0001820 0.0000702 0.0002325 -0.0000852 -0.0000743 -0.0001778 0.0002665 0.0007517 0.0007966 0.0023345 0.0001654 0.0008077 0.0000563 0.0012484
0.0004254 0.0006586 0.0000120 0.0004523 -0.0000544 0.0005183 0.0001748 0.0000070 0.0002433 -0.0001860 -0.0000544 0.0000568 0.0003079 0.0009102 0.0009734 0.0029563 0.0001957 0.0009718 0.0000998 0.0015099
0.0004163 0.0008168 0.0000430 0.0006293 -0.0000262 0.0007228 0.0001967 0.0002727 0.0002466 -0.0000752 -0.0000236 0.0004294 0.0003470 0.0011658 0.0011674 0.0037401 0.0002304 0.0013973 0.0002037 0.0021837
0.0001039 0.0014260 0.0000746 0.0009410 0.0001225 0.0015201 0.0003361 0.0011520 0.0003415 0.0004347 0.0003082 0.0026117 0.0005438 0.0018250 0.0014301 0.0048016 0.0003470 0.0020822 0.0004960 0.0032475
-0.0002856 0.0025232 0.0000912 0.0011154 0.0004404 0.0027181 0.0005576 0.0022832 0.0005488 0.0010858 0.0006653 0.0047909 0.0006790 0.0021711 0.0015598 0.0052491 0.0004351 0.0023973 0.0007479 0.0037597
-0.0001988 0.0029211 0.0001167 0.0010939 0.0006736 0.0033390 0.0007056 0.0028813 0.0006745 0.0013146 0.0006958 0.0050828 0.0006440 0.0020181 0.0015187 0.0050408 0.0004277 0.0023625 0.0007993 0.0037457
0.0002987 0.0024109 0.0001020 0.0011202 0.0006904 0.0034002 0.0007820 0.0031476 0.0007032 0.0013580 0.0006217 0.0046728 0.0006288 0.0020582 0.0014425 0.0047651 0.0004275 0.0024851 0.0007621 0.0037645
0.0006007 0.0018572 0.0000642 0.0012462 0.0006161 0.0033520 0.0007987 0.0032624 0.0007017 0.0014488 0.0005103 0.0040556 0.0005816 0.0020965 0.0013767 0.0045534 0.0004236 0.0024499 0.0007156 0.0035565
0.0001537 0.0018007 0.0000514 0.0012211 0.0005687 0.0031644 0.0007628 0.0030994 0.0006825 0.0013024 0.0004454 0.0036946 0.0005444 0.0019972 0.0013848 0.0045219 0.0004091 0.0021371 0.0007135 0.0031392
-0.0003868 0.0018702 0.0000512 0.0009888 0.0005627 0.0029227 0.0007500 0.0029003 0.0006934 0.0011120 0.0004324 0.0035622 0.0005464 0.0019039 0.0014096 0.0045243 0.0004029 0.0019995 0.0007214 0.0030086
-0.0005750 0.0017165 0.0000942 0.0010151 0.0005507 0.0028505 0.0007675 0.0029082 0.0006725 0.0010548 0.0004238 0.0035390 0.0005526 0.0019422 0.0013667 0.0043877 0.0004136 0.0022603 0.0007070 0.0031933
-0.0002824 0.0015603 0.0001204 0.0012807 0.0005013 0.0028691 0.0007678 0.0029846 0.0006166 0.0010315 0.0003883 0.0033938 0.0004974 0.0018259 0.0012089 0.0037926 0.0004208 0.0022860 0.0006378 0.0029531
-0.0001772 0.0015670 0.0000733 0.0012309 0.0003924 0.0025424 0.0007665 0.0028258 0.0005790 0.0007832 0.0003506 0.0031500 0.0004551 0.0016236 0.0011480 0.0034346 0.0004361 0.0019513 0.0006423 0.0025414
-0.0001913 0.0010883 0.0000714 0.0010085 0.0003266 0.0020809 0.0007492 0.0024883 0.0005801 0.0005220 0.0003345 0.0029338 0.0004737 0.0014974 0.0012114 0.0035668 0.0004639 0.0018360 0.0007169 0.0026061
-0.0001082 0.0007134 0.0001469 0.0010175 0.0003221 0.0019136 0.0007533 0.0024523 0.0006231 0.0006532 0.0003348 0.0029507 0.0004881 0.0015623 0.0012620 0.0037613 0.0004829 0.0020179 0.0007918 0.0030261
-0.0003567 0.0008292 0.0001555 0.0011807 0.0002348 0.0018689 0.0007816 0.0026739 0.0006152 0.0007997 0.0003406 0.0031075 0.0004969 0.0017011 0.0012880 0.0038996 0.0004960 0.0020569 0.0008372 0.0031347
-0.0007031 0.0009698 0.0001347 0.0011399 0.0001437 0.0016295 0.0006681 0.0023805 0.0005333 0.0005959 0.0003315 0.0029859 0.0004960 0.0015734 0.0012913 0.0038562 0.0005203 0.0018413 0.0008500 0.0028285
-0.0009378 0.0009749 0.0001323 0.0009214 0.0001238 0.0013402 0.0005693 0.0019079 0.0004967 0.0003227 0.0003163 0.0027664 0.0004906 0.0013800 0.0012827 0.0037146 0.0005292 0.0017664 0.0008656 0.0027923
-0.0007562 0.0007020 0.0001353 0.0009184 0.0001419 0.0013950 0.0005960 0.0019153 0.0005096 0.0003759 0.0003138 0.0026690 0.0004764 0.0012948 0.0012172 0.0034885 0.0005158 0.0019907 0.0008366 0.0030739
-0.0005785 0.0010946 0.0001362 0.0011100 0.0001772 0.0016549 0.0006034 0.0020735 0.0005025 0.0005526 0.0003227 0.0026018 0.0004263 0.0011567 0.0010908 0.0030496 0.0005071 0.0020496 0.0007813 0.0029739
-0.0003295 0.0012176 0.0001341 0.0010583 0.0002013 0.0016368 0.0005757 0.0020393 0.0004795 0.0004345 0.0003202 0.0024124 0.0003713 0.0008855 0.0009684 0.0024795 0.0005003 0.0018011 0.0007363 0.0025267
0.0000085 0.0003845 0.0001582 0.0008009 0.0002085 0.0014152 0.0005584 0.0018391 0.0004519 0.0001988 0.0003169 0.0021959 0.0003504 0.0007027 0.0009183 0.0021862 0.0004880 0.0017477 0.0007180 0.0024865
-0.0003429 0.0002898 0.0001752 0.0008232 0.0002148 0.0014630 0.0005586 0.0018112 0.0004332 0.0002489 0.0003291 0.0021996 0.0003601 0.0007884 0.0009311 0.0022836 0.0004802 0.0020087 0.0007106 0.0028399
-0.0009479 0.0012239 0.0001731 0.0010333 0.0002229 0.0016942 0.0005438 0.0019329 0.0004101 0.0004021 0.0003277 0.0022760 0.0003652 0.0009094 0.0009621 0.0024496 0.0004786 0.0020602 0.0006957 0.0028505
-0.0010631 0.0015057 0.0001569 0.0009822 0.0002210 0.0017318 0.0005382 0.0019062 0.0003737 0.0002531 0.0003074 0.0022216 0.0003672 0.0009029 0.0010193 0.0025903 0.0004788 0.0018516 0.0006797 0.0025410
-0.0003434 0.0008077 0.0001519 0.0007828 0.0002413 0.0016727 0.0005455 0.0018282 0.0003627 0.0000541 0.0002853 0.0021074 0.0003860 0.0008352 0.0010972 0.0028128 0.0004851 0.0018574 0.0006800 0.0025779
0.0002951 0.0004491 0.0001824 0.0009010 0.0002496 0.0017871 0.0005668 0.0020246 0.0003711 0.0001427 0.0002856 0.0024054 0.0004401 0.0010245 0.0012294 0.0033257 0.0004955 0.0021016 0.0006895 0.0029652
0.0002473 0.0009609 0.0002182 0.0011842 0.0003056 0.0022030 0.0006287 0.0025225 0.0003581 0.0002416 0.0003205 0.0030012 0.0005336 0.0014088 0.0014052 0.0039963 0.0005027 0.0020827 0.0007381 0.0030395
-0.0002885 0.0016859 0.0002144 0.0009995 0.0004207 0.0024830 0.0006656 0.0026876 0.0003676 0.0001987 0.0003444 0.0031069 0.0005780 0.0014736 0.0015090 0.0042778 0.0004976 0.0018252 0.0008005 0.0028479
-0.0006609 0.0015955 0.0002170 0.0006688 0.0005147 0.0025391 0.0006848 0.0025984 0.0004029 0.0001708 0.0003428 0.0028804 0.0005687 0.0013588 0.0015315 0.0042693 0.0004963 0.0018559 0.0008152 0.0029527
-0.0006721 0.0018307 0.0002394 0.0008052 0.0005765 0.0027777 0.0007272 0.0027734 0.0004312 0.0003616 0.0003369 0.0027032 0.0005509 0.0013733 0.0015334 0.0043615 0.0005126 0.0021684 0.0008308 0.0033323
-0.0003128 0.0021904 0.0002307 0.0010950 0.0006007 0.0030752 0.0007383 0.0029384 0.0004470 0.0005692 0.0003159 0.0025624 0.0005144 0.0013342 0.0015193 0.0043443 0.0005120 0.0021577 0.0008369 0.0032661
0.0002587 0.0015882 0.0002252 0.0010143 0.0005983 0.0030073 0.0007056 0.0027344 0.0004462 0.0004515 0.0002722 0.0022732 0.0004689 0.0010616 0.0014769 0.0040201 0.0004799 0.0017727 0.0008075 0.0026308
0.0004065 0.0011311 0.0002563 0.0007372 0.0006442 0.0028238 0.0006465 0.0023768 0.0004518 0.0002952 0.0002423 0.0020037 0.0003840 0.0006360 0.0014703 0.0038766 0.0004444 0.0017758 0.0008429 0.0027787
0.0002317 0.0015915 0.0003345 0.0008559 0.0007694 0.0031894 0.0006378 0.0024396 0.0004613 0.0004522 0.0002470 0.0021180 0.0003042 0.0004540 0.0014124 0.0037931 0.0004329 0.0021305 0.0008960 0.0034655
-0.0001632 0.0023489 0.0004108 0.0012071 0.0008035 0.0035038 0.0006645 0.0026583 0.0004624 0.0006957 0.0002466 0.0022125 0.0002805 0.0004729 0.0013111 0.0035084 0.0004379 0.0021208 0.0008811 0.0033831
-0.0003783 0.0019992 0.0004391 0.0011850 0.0007290 0.0031508 0.0006489 0.0025369 0.0004654 0.0006767 0.0002370 0.0021129 0.0002806 0.0003850 0.0012901 0.0033427 0.0004396 0.0018601 0.0008790 0.0030309
-0.0002761 0.0013679 0.0004218 0.0009752 0.0006550 0.0026851 0.0006355 0.0023218 0.0004695 0.0005412 0.0002421 0.0020640 0.0002846 0.0003188 0.0012747 0.0032622 0.0004396 0.0018974 0.0008875 0.0031446
-0.0001323 0.0016817 0.0003841 0.0010831 0.0006051 0.0026398 0.0006508 0.0023455 0.0004692 0.0006827 0.0002596 0.0021767 0.0002855 0.0003956 0.0012404 0.0032605 0.0004484 0.0022296 0.0008710 0.0035264
0.0002147 0.0019961 0.0003751 0.0012691 0.0005902 0.0027981 0.0006500 0.0024385 0.0004680 0.0009463 0.0002677 0.0022887 0.0002757 0.0004766 0.0011962 0.0032151 0.0004588 0.0022917 0.0008338 0.0034496
0.0005831 0.0013987 0.0003807 0.0011308 0.0005744 0.0026388 0.0005981 0.0022795 0.0004581 0.0008610 0.0002410 0.0021283 0.0002389 0.0003290 0.0011224 0.0029162 0.0004617 0.0019529 0.0007873 0.0028819
0.0003754 0.0009115 0.0003720 0.0008220 0.0005236 0.0022094 0.0005470 0.0019788 0.0004481 0.0006053 0.0002190 0.0018473 0.0002091 0.0001541 0.0010259 0.0025166 0.0004520 0.0018080 0.0007389 0.0026580
-0.0003385 0.0014705 0.0003392 0.0007631 0.0004651 0.0020420 0.0005268 0.0018767 0.0004422 0.0006671 0.0002284 0.0017423 0.0001959 0.0001647 0.0009249 0.0022412 0.0004326 0.0019861 0.0006790 0.0027999
-0.0007409 0.0017051 0.0002978 0.0008573 0.0004136 0.0020593 0.0004930 0.0018237 0.0004272 0.0008729 0.0002274 0.0017646 0.0001829 0.0002684 0.0008505 0.0021832 0.0004053 0.0022300 0.0006304 0.0029226
-0.0005610 0.0013203 0.0002522 0.0008047 0.0003532 0.0019798 0.0004457 0.0016809 0.0003918 0.0007852 0.0002098 0.0018024 0.0001901 0.0003339 0.0009121 0.0024235 0.0003830 0.0019723 0.0006255 0.0026531
0.0000373 0.0005527 0.0002113 0.0005868 0.0003230 0.0018936 0.0004117 0.0016132 0.0003714 0.0005196 0.0002258 0.0021411 0.0002788 0.0005719 0.0011484 0.0032183 0.0003869 0.0017039 0.0006842 0.0026558
0.0003578 0.0003478 0.0001944 0.0006124 0.0003387 0.0020947 0.0004202 0.0018098 0.0003774 0.0005514 0.0002655 0.0026262 0.0003686 0.0009183 0.0013093 0.0038721 0.0004084 0.0019569 0.0007461 0.0030951
0.0003230 0.0004072 0.0002057 0.0008098 0.0003442 0.0023590 0.0004400 0.0020680 0.0003762 0.0007606 0.0002780 0.0028442 0.0003851 0.0011115 0.0013071 0.0040055 0.0004151 0.0022958 0.0007534 0.0034120
-0.0000904 0.0005852 0.0002284 0.0008531 0.0003444 0.0024134 0.0004493 0.0021504 0.0003626 0.0007977 0.0002671 0.0028387 0.0003702 0.0011193 0.0012643 0.0038928 0.0004076 0.0021626 0.0007357 0.0031773
-0.0007684 0.0010841 0.0002237 0.0007168 0.0003260 0.0022183 0.0004417 0.0020442 0.0003481 0.0006392 0.0002453 0.0027198 0.0003543 0.0010062 0.0012240 0.0036944 0.0004018 0.0018794 0.0007253 0.0028548
-0.0008174 0.0008702 0.0002170 0.0006918 0.0003004 0.0021253 0.0004321 0.0020284 0.0003509 0.0006472 0.0002349 0.0027192 0.0003674 0.0010342 0.0012096 0.0037043 0.0004011 0.0020413 0.0007299 0.0030524
-0.0003372 0.0005919 0.0002025 0.0008932 0.0002920 0.0022696 0.0004242 0.0021840 0.0003566 0.0008282 0.0002325 0.0028023 0.0003717 0.0011540 0.0011934 0.0037905 0.0003963 0.0023480 0.0007215 0.0033427
0.0000045 0.0006933 0.0001737 0.0010054 0.0002783 0.0023407 0.0004138 0.0022411 0.0003445 0.0008409 0.0002187 0.0027689 0.0003494 0.0011242 0.0011620 0.0036747 0.0003907 0.0021801 0.0006938 0.0030563
-0.0000431 0.0006398 0.0001654 0.0008355 0.0002627 0.0021341 0.0004110 0.0020826 0.0003338 0.0006429 0.0002027 0.0026261 0.0003319 0.0009815 0.0011431 0.0034799 0.0003910 0.0018287 0.0006817 0.0026377
-0.0001202 0.0004496 0.0001997 0.0007288 0.0002598 0.0019714 0.0004104 0.0020242 0.0003404 0.0006139 0.0002022 0.0026059 0.0003402 0.0009879 0.0011353 0.0034926 0.0003981 0.0019553 0.0006965 0.0028074
-0.0002331 0.0005103 0.0002383 0.0008725 0.0002685 0.0020836 0.0004147 0.0021747 0.0003468 0.0007956 0.0002055 0.0026942 0.0003414 0.0011002 0.0011169 0.0035923 0.0004002 0.0022769 0.0006987 0.0031632
-0.0003199 0.0008401 0.0002253 0.0010505 0.0002671 0.0022392 0.0004142 0.0022683 0.0003359 0.0008536 0.0001995 0.0026874 0.0003245 0.0010795 0.0010931 0.0035254 0.0003968 0.0021514 0.0006818 0.0029188
-0.0003842 0.0008832 0.0002027 0.0009519 0.0002513 0.0020793 0.0004146 0.0021342 0.0003290 0.0006629 0.0001839 0.0025380 0.0003119 0.0009027 0.0010782 0.0033314 0.0003997 0.0017807 0.0006850 0.0024291
-0.0001624 0.0002219 0.0002164 0.0008098 0.0002468 0.0018546 0.0004339 0.0020309 0.0003463 0.0005976 0.0001775 0.0024878 0.0003218 0.0008696 0.0010932 0.0033427 0.0004118 0.0018655 0.0007112 0.0025639
0.0002930 -0.0001549 0.0002670 0.0009605 0.0002754 0.0019759 0.0004376 0.0021334 0.0003632 0.0007884 0.0001809 0.0025669 0.0003424 0.0009615 0.0011155 0.0035300 0.0004209 0.0021950 0.0007241 0.0029973
0.0003224 0.0004429 0.0002973 0.0012609 0.0002862 0.0022214 0.0004214 0.0023093 0.0003608 0.0010051 0.0001732 0.0026177 0.0003280 0.0010089 0.0010929 0.0035577 0.0004190 0.0022031 0.0007036 0.0029140
0.0001812 0.0004658 0.0003083 0.0011682 0.0002920 0.0021556 0.0004112 0.0022120 0.0003433 0.0008474 0.0001603 0.0024821 0.0002988 0.0008780 0.0010681 0.0033791 0.0004124 0.0018548 0.0006913 0.0024043
-0.0002149 0.0002307 0.0003258 0.0008679 0.0003238 0.0019613 0.0004069 0.0019709 0.0003439 0.0006297 0.0001588 0.0023360 0.0003105 0.0007523 0.0011434 0.0035739 0.0004009 0.0018601 0.0007626 0.0026460
-0.0006066 0.0010156 0.0003185 0.0009708 0.0006134 0.0029914 0.0004923 0.0023936 0.0004710 0.0011451 0.0002510 0.0028041 0.0003474 0.0009021 0.0012621 0.0041118 0.0003799 0.0022988 0.0008645 0.0034731
-0.0005310 0.0018912 0.0003242 0.0013798 0.0009315 0.0043273 0.0006301 0.0030972 0.0006004 0.0017778 0.0003121 0.0031994 0.0003422 0.0010652 0.0012319 0.0042131 0.0003729 0.0027790 0.0008800 0.0039771
0.0000726 0.0017149 0.0003370 0.0015606 0.0009182 0.0044073 0.0006673 0.0032846 0.0006048 0.0018110 0.0002722 0.0030178 0.0003016 0.0009209 0.0011312 0.0038386 0.0003678 0.0025394 0.0008389 0.0035856
0.0006471 0.0007522 0.0003374 0.0012943 0.0008005 0.0038284 0.0006417 0.0031224 0.0005987 0.0016052 0.0002601 0.0028948 0.0002881 0.0007381 0.0011109 0.0036271 0.0003735 0.0022028 0.0008316 0.0032695
0.0002744 0.0007854 0.0003618 0.0012671 0.0007552 0.0035768 0.0006716 0.0031228 0.0006150 0.0016268 0.0002664 0.0028885 0.0002944 0.0007441 0.0010941 0.0035942 0.0004026 0.0024303 0.0008427 0.0035505
-0.0003233 0.0017127 0.0004059 0.0014720 0.0007403 0.0036587 0.0006931 0.0032817 0.0006156 0.0018145 0.0002630 0.0028936 0.0002848 0.0008022 0.0010611 0.0035876 0.0004074 0.0027616 0.0008284 0.0039552
-0.0004733 0.0019468 0.0004202 0.0015984 0.0007155 0.0037558 0.0006627 0.0033603 0.0005825 0.0019405 0.0002403 0.0028361 0.0002365 0.0007808 0.0010106 0.0034767 0.0003883 0.0026952 0.0007916 0.0037639
-0.0000309 0.0014414 0.0003824 0.0014072 0.0007026 0.0035721 0.0006289 0.0031935 0.0005361 0.0016693 0.0001976 0.0025599 0.0001781 0.0005331 0.0009611 0.0031810 0.0003749 0.0023026 0.0007564 0.0031549
0.0001795 0.0013795 0.0003460 0.0011755 0.0006850 0.0032843 0.0006282 0.0030148 0.0005089 0.0013636 0.0001708 0.0023175 0.0001605 0.0003393 0.0009466 0.0030217 0.0003875 0.0023070 0.0007418 0.0031177
0.0002441 0.0012658 0.0003528 0.0012332 0.0006843 0.0032977 0.0006594 0.0030874 0.0005074 0.0014356 0.0001484 0.0021057 0.0001255 0.0001802 0.0008401 0.0026330 0.0003865 0.0025829 0.0006785 0.0033031
0.0004596 0.0011002 0.0003843 0.0013152 0.0006882 0.0033919 0.0006529 0.0031679 0.0004903 0.0015952 0.0001343 0.0019216 0.0000340 -0.0000466 0.0005212 0.0016020 0.0003690 0.0028743 0.0005336 0.0032512
0.0002758 0.0012818 0.0003709 0.0012052 0.0006144 0.0031084 0.0005682 0.0028315 0.0003859 0.0013210 0.0001812 0.0016262 0.0000054 -0.0001716 0.0001305 0.0002461 0.0003314 0.0023125 0.0003338 0.0021663
-0.0000877 0.0005866 0.0003505 0.0008340 0.0004312 0.0021633 0.0004190 0.0019546 0.0003288 0.0009266 0.0002027 0.0009613 0.0000548 -0.0002707 -0.0001123 -0.0006889 0.0002697 0.0013627 0.0001690 0.0009595
-0.0005491 -0.0003772 0.0003499 0.0006206 0.0001834 0.0010959 0.0002419 0.0010124 0.0003386 0.0009174 0.0001755 0.0004313 0.0000985 -0.0002359 -0.0001912 -0.0009056 0.0002363 0.0011287 0.0000943 0.0008172
-0.0007866 -0.0006179 0.0003201 0.0006012 -0.0000240 0.0004905 0.0001032 0.0004769 0.0003003 0.0009828 0.0001708 0.0003086 0.0001214 -0.0000465 -0.0002285 -0.0008834 0.0002240 0.0012373 0.0000467 0.0011115
-0.0006729 -0.0004796 0.0002611 0.0006619 -0.0001521 0.0003384 -0.0000103 0.0002763 0.0002624 0.0011042 0.0001714 0.0003766 0.0001157 0.0001129 -0.0002901 -0.0009833 0.0002154 0.0011095 0.0000174 0.0009922
-0.0002312 -0.0009525 0.0002099 0.0003975 -0.0002150 0.0000712 -0.0001432 -0.0001001 0.0002218 0.0008690 0.0001501 0.0002086 0.0000955 -0.0000056 -0.0003498 -0.0012748 0.0002098 0.0006430 0.0000022 0.0004679
0.0001577 -0.0019435 0.0002021 -0.0000558 -0.0002353 -0.0002976 -0.0002344 -0.0005284 0.0002045 0.0005383 0.0001383 -0.0000064 0.0000898 -0.0001537 -0.0003711 -0.0014589 0.0002148 0.0005020 0.0000159 0.0004119
-0.0001498 -0.0020404 0.0002079 -0.0001167 -0.0002420 -0.0003332 -0.0002725 -0.0006726 0.0001963 0.0005227 0.0001314 -0.0000436 0.0000883 -0.0001115 -0.0003785 -0.0014461 0.0002243 0.0007229 0.0000392 0.0007425
-0.0007318 -0.0011804 0.0002058 0.0000350 -0.0002417 -0.0001854 -0.0003169 -0.0006884 0.0001623 0.0005738 -0.0000241 -0.0005429 0.0000973 0.0000637 0.0000520 0.0000996 0.0001984 0.0012008 0.0001896 0.0017804
-0.0007848 -0.0004886 0.0001741 0.0001326 -0.0001491 0.0004176 -0.0004033 -0.0006819 0.0000581 0.0002910 -0.0001116 -0.0005519 0.0001515 0.0003585 0.0006262 0.0020636 0.0001743 0.0013463 0.0004396 0.0024895
-0.0002742 -0.0006265 0.0001306 -0.0000861 0.0000378 0.0011970 -0.0003843 -0.0004470 0.0000209 -0.0001068 -0.0000285 0.0001609 0.0001881 0.0004104 0.0007772 0.0025001 0.0002010 0.0011894 0.0005547 0.0023860
-0.0000664 -0.0008271 0.0001362 -0.0001786 0.0001127 0.0014383 -0.0002713 -0.0001343 0.0000994 -0.0000671 -0.0000091 0.0003623 0.0001795 0.0002727 0.0007313 0.0022596 0.0002519 0.0013403 0.0005665 0.0024372
-0.0000854 -0.0009274 0.0001815 0.0000590 0.0000556 0.0012912 -0.0002321 -0.0000122 0.0001458 0.0001742 -0.0000194 0.0003641 0.0001712 0.0002729 0.0006770 0.0021431 0.0002792 0.0016919 0.0005529 0.0027337
-0.0001490 -0.0009109 0.0002352 0.0003084 -0.0000039 0.0012364 -0.0002298 0.0001109 0.0001579 0.0004610 -0.0000364 0.0004306 0.0001364 0.0003614 0.0005996 0.0020770 0.0002829 0.0020840 0.0005065 0.0029845
-0.0004848 -0.0007253 0.0002329 0.0003418 -0.0000559 0.0011071 -0.0002394 0.0001143 0.0001642 0.0005213 -0.0000639 0.0002852 0.0000478 0.0001059 0.0003692 0.0012862 0.0002886 0.0018035 0.0003938 0.0022710
-0.0007998 -0.0009794 0.0001964 0.0000618 -0.0001479 0.0005040 -0.0002602 -0.0002147 0.0001858 0.0003628 -0.0000403 0.0000405 -0.0000309 -0.0003788 0.0000031 -0.0001118 0.0002877 0.0012936 0.0002620 0.0013773
-0.0009322 -0.0013140 0.0001725 -0.0000710 -0.0002405 0.0000005 -0.0002663 -0.0005504 0.0001905 0.0002868 0.0000349 -0.0000729 -0.0000300 -0.0005035 -0.0002690 -0.0010072 0.0002737 0.0012822 0.0001914 0.0013427
-0.0007768 -0.0016006 0.0001493 0.0000563 -0.0002826 -0.0000260 -0.0002832 -0.0006864 0.0001648 0.0003308 0.0000802 -0.0000616 0.0000011 -0.0003601 -0.0003845 -0.0012257 0.0002489 0.0015049 0.0001538 0.0016890
-0.0007099 -0.0013076 0.0001248 0.0002943 -0.0003180 0.0001498 -0.0003177 -0.0006846 0.0001347 0.0005164 0.0000922 0.0000641 0.0000052 -0.0001905 -0.0004548 -0.0012672 0.0002220 0.0016532 0.0001152 0.0017759
-0.0005228 -0.0011691 0.0000935 0.0002399 -0.0003404 0.0001165 -0.0003738 -0.0008034 0.0000949 0.0003686 0.0000410 -0.0001672 -0.0000222 -0.0003235 -0.0003785 -0.0010811 0.0001903 0.0013293 0.0001006 0.0014363
-0.0002294 -0.0018437 0.0000803 -0.0000680 -0.0003273 -0.0000469 -0.0004094 -0.0010676 0.0000429 -0.0000615 -0.0000630 -0.0006534 -0.0000245 -0.0004644 -0.0001925 -0.0006086 0.0001716 0.0011359 0.0001267 0.0014103
-0.0005031 -0.0018009 0.0000819 -0.0000748 -0.0003163 0.0000488 -0.0003855 -0.0010375 0.0000206 -0.0001708 -0.0001158 -0.0008292 0.0000078 -0.0003289 -0.0000672 -0.0001471 0.0001694 0.0013906 0.0001438 0.0017830
-0.0009740 -0.0009291 0.0000804 0.0001495 -0.0003256 0.0002628 -0.0003616 -0.0008292 0.0000137 -0.0000340 -0.0001375 -0.0007956 0.0000207 -0.0001515 0.0000074 0.0002743 0.0001576 0.0017605 0.0001380 0.0022966
-0.0010934 -0.0003969 0.0000641 0.0004045 -0.0003429 0.0005118 -0.0003592 -0.0006644 -0.0000098 0.0000650 -0.0001737 -0.0007978 0.0000181 -0.0000748 0.0000600 0.0005103 0.0001444 0.0016759 0.0001160 0.0021718
-0.0006715 -0.0009080 0.0000287 0.0002533 -0.0003625 0.0003753 -0.0003750 -0.0007705 -0.0000295 -0.0001742 -0.0002080 -0.0009532 0.0000074 -0.0002235 0.0000793 0.0004806 0.0001269 0.0013149 0.0000880 0.0017527
-0.0004158 -0.0012334 -0.0000041 0.0000581 -0.0003824 0.0001484 -0.0003666 -0.0009103 -0.0000288 -0.0003877 -0.0002226 -0.0010449 0.0000042 -0.0003035 0.0000883 0.0004845 0.0001167 0.0013630 0.0000878 0.0018788
-0.0004121 -0.0010439 -0.0000071 0.0002256 -0.0003839 0.0002824 -0.0003574 -0.0008065 -0.0000202 -0.0002780 -0.0002219 -0.0009642 0.0000030 -0.0002422 0.0000946 0.0006150 0.0001081 0.0016730 0.0000871 0.0022810
-0.0006187 -0.0005895 0.0000226 0.0005024 -0.0003566 0.0005594 -0.0003720 -0.0006067 -0.0000271 -0.0000535 -0.0002575 -0.0008912 -0.0000143 -0.0001626 0.0001072 0.0008674 0.0001041 0.0020319 0.0000785 0.0025936
-0.0009645 -0.0003093 0.0000269 0.0005445 -0.0003456 0.0006437 -0.0003638 -0.0004641 -0.0000629 -0.0001479 -0.0002552 -0.0008354 -0.0000642 -0.0003283 0.0000327 0.0005809 0.0000780 0.0017366 0.0000284 0.0021853
-0.0011463 -0.0005678 0.0000023 0.0003536 -0.0003455 0.0004783 -0.0003028 -0.0004164 -0.0000627 -0.0004005 -0.0002065 -0.0007822 -0.0000840 -0.0005749 -0.0000552 0.0001308 0.0000558 0.0013693 -0.0000117 0.0018220
-0.0012688 -0.0006815 -0.0000276 0.0003458 -0.0003318 0.0004590 -0.0002211 -0.0003179 -0.0000188 -0.0003306 -0.0001716 -0.0006807 -0.0000419 -0.0005535 -0.0000155 0.0002737 0.0000664 0.0015661 -0.0000014 0.0020819
-0.0011026 -0.0008247 -0.0000495 0.0004923 -0.0003232 0.0005711 -0.0001774 -0.0001476 0.0000005 -0.0001437 -0.0001619 -0.0005525 -0.0000065 -0.0004012 0.0000419 0.0005580 0.0000681 0.0018744 -0.0000120 0.0024736
-0.0010286 -0.0004005 -0.0000676 0.0007398 -0.0003258 0.0007586 -0.0001644 0.0000958 0.0000061 0.0000126 -0.0001735 -0.0004748 -0.0000094 -0.0003397 0.0000263 0.0005310 0.0000584 0.0017553 -0.0000406 0.0022439
-0.0008568 -0.0003950 -0.0000964 0.0005731 -0.0003304 0.0005819 -0.0001759 0.0000086 0.0000130 -0.0001900 -0.0001578 -0.0005280 -0.0000167 -0.0005438 -0.0000590 0.0000694 0.0000479 0.0012762 -0.0000717 0.0016473
-0.0006299 -0.0011535 -0.0000964 0.0002378 -0.0003256 0.0002278 -0.0001518 -0.0001854 0.0000408 -0.0004175 -0.0001075 -0.0005068 -0.0000173 -0.0007763 -0.0001620 -0.0004409 0.0000430 0.0011890 -0.0000944 0.0015035
-0.0008003 -0.0010404 -0.0000752 0.0003178 -0.0003297 0.0001338 -0.0000936 -0.0000624 0.0000216 -0.0004499 -0.0000968 -0.0005170 -0.0000504 -0.0009224 -0.0002526 -0.0007702 -0.0000061 0.0013435 -0.0001452 0.0015624
-0.0012423 -0.0001785 -0.0000755 0.0005225 -0.0003419 0.0001727 -0.0000869 0.0000146 -0.0000129 -0.0003101 -0.0000636 -0.0003568 -0.0000442 -0.0007842 -0.0002770 -0.0007289 -0.0000511 0.0015966 -0.0001815 0.0019339
-0.0014324 0.0002183 -0.0000958 0.0006515 -0.0003321 0.0003382 -0.0001014 -0.0000496 0.0000023 -0.0001369 0.0000019 -0.0001106 -0.0000169 -0.0006711 -0.0002984 -0.0007854 -0.0000519 0.0013301 -0.0001857 0.0017138
-0.0011097 -0.0003326 -0.0001217 0.0004429 -0.0003278 0.0001740 -0.0001132 -0.0002966 0.0000283 -0.0003657 0.0000117 -0.0002212 -0.0000182 -0.0008876 -0.0003176 -0.0010374 -0.0000488 0.0008360 -0.0001800 0.0012036
-0.0008818 -0.0006795 -0.0001422 0.0002347 -0.0003187 -0.0000566 -0.0001108 -0.0005093 0.0000527 -0.0005432 0.0000282 -0.0002768 0.0000055 -0.0009546 -0.0002699 -0.0009951 -0.0000344 0.0008852 -0.0001511 0.0013817
-0.0008701 -0.0005492 -0.0001453 0.0003369 -0.0002922 0.0000198 -0.0001023 -0.0004945 0.0000628 -0.0004247 0.0000533 -0.0001748 0.0000306 -0.0008362 -0.0002252 -0.0008031 -0.0000237 0.0011918 -0.0001447 0.0018003
-0.0008923 -0.0003022 -0.0001340 0.0005329 -0.0002740 0.0002080 -0.0001200 -0.0003937 0.0000551 -0.0002284 0.0000542 -0.0000629 0.0000284 -0.0006665 -0.0002091 -0.0005702 -0.0000299 0.0015761 -0.0001614 0.0022321
-0.0009828 0.0000046 -0.0001386 0.0005979 -0.0002548 0.0003433 -0.0001436 -0.0003427 0.0000215 -0.0003036 0.0000238 -0.0001488 0.0000014 -0.0007321 -0.0002179 -0.0006324 -0.0000465 0.0013109 -0.0001826 0.0019150
-0.0010688 -0.0001288 -0.0001566 0.0003658 -0.0002655 0.0001639 -0.0001651 -0.0004868 0.0000043 -0.0006204 0.0000012 -0.0003417 -0.0000101 -0.0009361 -0.0002241 -0.0008348 -0.0000520 0.0008775 -0.0001827 0.0014786
-0.0012320 -0.0002307 -0.0001580 0.0002412 -0.0002627 0.0000193 -0.0001354 -0.0005581 0.0000212 -0.0006807 0.0000209 -0.0003447 0.0000147 -0.0009230 -0.0002008 -0.0007746 -0.0000431 0.0010041 -0.0001642 0.0016942
-0.0012867 -0.0000618 -0.0001560 0.0003738 -0.0002438 0.0001553 -0.0000915 -0.0004351 0.0000284 -0.0004879 0.0000380 -0.0002185 0.0000383 -0.0007752 -0.0001726 -0.0005728 -0.0000416 0.0013285 -0.0001646 0.0021226
-0.0012683 0.0003247 -0.0001642 0.0005975 -0.0002531 0.0004158 -0.0001030 -0.0002504 0.0000183 -0.0002290 0.0000298 -0.0000696 0.0000387 -0.0005871 -0.0001803 -0.0003828 -0.0000515 0.0016794 -0.0001813 0.0024351
-0.0010231 0.0003734 -0.0001880 0.0006075 -0.0002561 0.0004738 -0.0001367 -0.0002323 0.0000061 -0.0002595 0.0000174 -0.0000914 0.0000046 -0.0006802 -0.0002523 -0.0006314 -0.0000813 0.0013536 -0.0002138 0.0020489
-0.0007448 -0.0002518 -0.0002004 0.0003316 -0.0002700 0.0001766 -0.0001627 -0.0004450 0.0000160 -0.0004792 0.0000299 -0.0001693 -0.0000170 -0.0008914 -0.0003425 -0.0010827 -0.0001092 0.0009212 -0.0002349 0.0016561
-0.0009996 -0.0003485 -0.0001885 0.0002537 -0.0002865 0.0000254 -0.0001592 -0.0004780 0.0000625 -0.0003810 0.0000812 -0.0000175 -0.0000045 -0.0008702 -0.0004187 -0.0013116 -0.0001092 0.0010111 -0.0002457 0.0017784
-0.0013717 0.0000234 -0.0001787 0.0003206 -0.0002733 0.0001161 -0.0001378 -0.0003389 0.0001019 -0.0000800 0.0001267 0.0002013 0.0000080 -0.0007688 -0.0004727 -0.0013728 -0.0001088 0.0012275 -0.0002647 0.0020216
-0.0014325 0.0000057 -0.0001796 0.0004084 -0.0002725 0.0002594 -0.0001422 -0.0002247 0.0000984 0.0001959 0.0001308 0.0003334 0.0000026 -0.0006520 -0.0005039 -0.0013153 -0.0001084 0.0013661 -0.0002681 0.0019990
-0.0011236 -0.0002882 -0.0001909 0.0003425 -0.0002992 0.0002224 -0.0001704 -0.0002526 0.0000550 -0.0000013 0.0000643 0.0001109 -0.0000570 -0.0008817 -0.0004302 -0.0011669 -0.0001113 0.0009693 -0.0002534 0.0015632
-0.0009784 -0.0002577 -0.0002065 0.0000801 -0.0002892 0.0000559 -0.0001319 -0.0002694 0.0000347 -0.0003613 -0.0000228 -0.0002853 -0.0000832 -0.0011041 -0.0002105 -0.0006665 -0.0000934 0.0007552 -0.0001975 0.0015303
-0.0008180 -0.0004319 -0.0002140 -0.0000503 -0.0002640 0.0000436 -0.0000768 -0.0001747 0.0000406 -0.0003686 -0.0000245 -0.0003121 -0.0000446 -0.0009933 -0.0000998 -0.0003213 -0.0000654 0.0010492 -0.0001663 0.0018638
-0.0004086 -0.0007992 -0.0001682 0.0001630 -0.0002700 0.0001773 -0.0001020 -0.0001237 0.0000246 -0.0001805 0.0000150 -0.0001036 -0.0000217 -0.0008259 -0.0001918 -0.0004562 -0.0000486 0.0014326 -0.0002079 0.0022259
-0.0003458 -0.0002431 -0.0000948 0.0006806 -0.0002769 0.0004981 -0.0001447 0.0000548 0.0000149 0.0000957 0.0000424 0.0000575 -0.0000271 -0.0007182 -0.0003627 -0.0008737 -0.0000316 0.0013825 -0.0002787 0.0019836
-0.0003359 -0.0001191 -0.0000471 0.0007107 -0.0002748 0.0004091 -0.0001923 -0.0000270 0.0000185 0.0000387 0.0000683 0.0000329 -0.0000368 -0.0008059 -0.0004786 -0.0012892 -0.0000366 0.0009258 -0.0003307 0.0013826
-0.0006755 -0.0003104 -0.0000051 0.0004732 -0.0002688 0.0000921 -0.0001986 -0.0001958 0.0000332 -0.0000912 0.0000854 -0.0000388 -0.0000185 -0.0008345 -0.0004710 -0.0012979 -0.0000307 0.0008220 -0.0003216 0.0013548
-0.0011460 0.0001510 0.0000238 0.0005704 -0.0002484 0.0001368 -0.0001607 -0.0000344 0.0000504 0.0000575 0.0001058 0.0000477 0.0000118 -0.0006909 -0.0004464 -0.0011128 -0.0000103 0.0010561 -0.0003070 0.0016814
-0.0011218 0.0004567 0.0000299 0.0007739 -0.0002235 0.0003909 -0.0001530 0.0001556 0.0000460 0.0002711 0.0001188 0.0001547 0.0000197 -0.0005924 -0.0004536 -0.0010646 -0.0000042 0.0009946 -0.0003084 0.0015850
-0.0004861 -0.0001674 0.0000184 0.0006691 -0.0002251 0.0003458 -0.0001636 0.0000863 0.0000410 0.0001936 0.0000985 0.0000622 0.0000015 -0.0006967 -0.0004633 -0.0011758 -0.0000045 0.0006462 -0.0003072 0.0012089
-0.0000506 -0.0007060 0.0000167 0.0004746 -0.0002367 0.0001141 -0.0001843 -0.0000348 0.0000447 0.0000447 0.0000788 -0.0000429 -0.0000067 -0.0007474 -0.0004589 -0.0011962 0.0000005 0.0006479 -0.0003016 0.0013185
-0.0002287 -0.0003083 0.0000422 0.0006245 -0.0002409 0.0001940 -0.0002010 0.0000683 0.0000359 0.0001785 0.0001015 0.0000807 0.0000025 -0.0005902 -0.0004569 -0.0010846 0.0000146 0.0009235 -0.0002950 0.0016288
-0.0003954 0.0000806 0.0000756 0.0007969 -0.0002365 0.0003761 -0.0002051 0.0002562 0.0000359 0.0003988 0.0001103 0.0001624 0.0000023 -0.0004570 -0.0004272 -0.0009326 0.0000325 0.0008810 -0.0002988 0.0014633
-0.0005313 0.0000112 0.0000752 0.0005762 -0.0002635 0.0001952 -0.0002469 0.0001222 0.0000130 0.0002377 0.0000627 -0.0000695 -0.0000244 -0.0005395 -0.0003980 -0.0009403 0.0000338 0.0005125 -0.0003181 0.0009712
-0.0007818 -0.0000090 0.0000273 0.0002169 -0.0003235 -0.0002091 -0.0003076 -0.0001760 -0.0000207 -0.0000510 0.0000425 -0.0002293 -0.0000375 -0.0006079 -0.0004102 -0.0010478 0.0000246 0.0003647 -0.0003251 0.0008573
-0.0009972 0.0002190 -0.0000130 0.0001284 -0.0003856 -0.0003620 -0.0003314 -0.0003187 -0.0000128 0.0000179 0.0000335 -0.0001850 -0.0000371 -0.0005412 -0.0004177 -0.0009992 0.0000142 0.0004448 -0.0003248 0.0010859
-0.0007398 -0.0001335 -0.0000239 0.0001896 -0.0004393 -0.0003374 -0.0003657 -0.0004224 -0.0000116 0.0001190 0.0000227 -0.0001571 -0.0000505 -0.0005155 -0.0004337 -0.0010433 0.0000097 0.0002412 -0.0003242 0.0008733
-0.0001997 -0.0008623 -0.0000374 -0.0000177 -0.0004470 -0.0005086 -0.0004050 -0.0006047 -0.0000113 -0.0000093 0.0000473 -0.0001883 -0.0000513 -0.0006166 -0.0004833 -0.0013541 0.0000201 -0.0002240 -0.0003074 0.0003046
0.0000059 -0.0012216 -0.0000282 -0.0003286 -0.0004496 -0.0008265 -0.0004054 -0.0008093 0.0000315 -0.0001043 0.0000795 -0.0002113 -0.0000477 -0.0007209 -0.0005423 -0.0016850 0.0000284 -0.0003665 -0.0002987 0.0001896
0.0000075 -0.0013557 0.0000102 -0.0003073 -0.0004856 -0.0009695 -0.0003849 -0.0008241 0.0000703 0.0000281 0.0000993 -0.0001295 -0.0000543 -0.0007063 -0.0005817 -0.0018366 0.0000269 -0.0002190 -0.0003022 0.0003744
-0.0002224 -0.0010283 0.0000532 -0.0001478 -0.0005240 -0.0009877 -0.0003652 -0.0007199 0.0000749 0.0001830 0.0000960 -0.0000607 -0.0000635 -0.0007135 -0.0006115 -0.0019381 0.0000181 -0.0003458 -0.0003296 0.0001476
-0.0006267 -0.0006274 0.0000685 -0.0002529 -0.0005496 -0.0011717 -0.0003674 -0.0007830 0.0000709 0.0000830 0.0000849 -0.0001833 -0.0000814 -0.0008794 -0.0006282 -0.0021511 0.0000069 -0.0007964 -0.0003437 -0.0004479
-0.0006620 -0.0010395 0.0000816 -0.0005359 -0.0005644 -0.0014809 -0.0003504 -0.0009994 0.0000657 -0.0001363 0.0000894 -0.0003294 -0.0000769 -0.0009930 -0.0006136 -0.0022603 0.0000095 -0.0009711 -0.0003163 -0.0005731
-0.0005450 -0.0012582 0.0000904 -0.0005747 -0.0005456 -0.0014851 -0.0003092 -0.0010344 0.0000527 -0.0001512 0.0001131 -0.0002779 -0.0000497 -0.0008718 -0.0006052 -0.0021736 0.0000225 -0.0008198 -0.0002935 -0.0002560
-0.0004982 -0.0008550 0.0000707 -0.0004121 -0.0005292 -0.0012745 -0.0003360 -0.0010129 0.0000268 -0.0000669 0.0001126 -0.0001958 -0.0000407 -0.0006939 -0.0006308 -0.0020301 0.0000224 -0.0005818 -0.0002811 0.0002619
-0.0001579 -0.0007025 0.0000584 -0.0001939 -0.0005143 -0.0009331 -0.0004228 -0.0010423 -0.0000343 -0.0000789 0.0000348 -0.0003527 -0.0000549 -0.0006134 -0.0005005 -0.0014652 0.0000340 -0.0006960 -0.0002121 0.0003039
0.0002474 -0.0013724 0.0000402 -0.0003667 -0.0004509 -0.0008416 -0.0004677 -0.0011715 -0.0000988 -0.0004700 -0.0001086 -0.0006897 -0.0000443 -0.0004627 0.0001298 0.0005407 0.0001126 -0.0007053 0.0000342 0.0004849
0.0001988 -0.0017727 0.0000391 -0.0006592 -0.0003699 -0.0008614 -0.0004357 -0.0011884 -0.0000969 -0.0007490 -0.0001457 -0.0007511 -0.0000114 -0.0003515 0.0004250 0.0014099 0.0001796 -0.0004414 0.0002055 0.0008571
-0.0002747 -0.0012486 0.0000983 -0.0006261 -0.0002885 -0.0006970 -0.0003891 -0.0010293 -0.0000575 -0.0006067 -0.0000694 -0.0006151 -0.0000037 -0.0004449 0.0001672 0.0005622 0.0001844 -0.0003146 0.0001809 0.0008816
-0.0004417 -0.0013441 0.0001568 -0.0004809 -0.0002394 -0.0005233 -0.0003615 -0.0008366 -0.0000544 -0.0004391 -0.0000539 -0.0005393 -0.0000130 -0.0004249 0.0001086 0.0005434 0.0001815 -0.0000202 0.0001745 0.0012161
-0.0004428 -0.0008864 0.0001456 -0.0002504 -0.0002161 -0.0001338 -0.0003768 -0.0005834 -0.0001156 -0.0004109 -0.0000854 -0.0004996 -0.0000394 -0.0003895 0.0001092 0.0006403 0.0001757 -0.0000486 0.0001582 0.0010399
-0.0005796 -0.0004855 0.0000724 -0.0004364 -0.0002131 -0.0001212 -0.0003889 -0.0005661 -0.0001569 -0.0005996 -0.0000721 -0.0005370 -0.0000459 -0.0005444 0.0000478 0.0002943 0.0001707 -0.0003667 0.0001417 0.0004267
-0.0003882 -0.0013912 0.0000497 -0.0007912 -0.0002150 -0.0004531 -0.0003354 -0.0005909 -0.0001372 -0.0006811 -0.0000030 -0.0004744 -0.0000100 -0.0006195 0.0000096 0.0000784 0.0001807 -0.0003710 0.0001512 0.0002844
-0.0003503 -0.0014121 0.0000785 -0.0007199 -0.0002009 -0.0005001 -0.0002930 -0.0004264 -0.0001045 -0.0005042 0.0000443 -0.0003272 0.0000123 -0.0005271 0.0000028 0.0001363 0.0001986 -0.0000934 0.0001367 0.0005269
-0.0000664 -0.0011072 0.0000961 -0.0005262 -0.0002068 -0.0004283 -0.0002957 -0.0002601 -0.0000701 -0.0002453 0.0000325 -0.0002884 0.0000345 -0.0003309 0.0000946 0.0006088 0.0001739 0.0001945 0.0001150 0.0008984
0.0002982 -0.0011593 0.0001356 -0.0003113 -0.0001868 -0.0002596 -0.0002886 -0.0001292 -0.0000560 -0.0001500 -0.0000223 -0.0004019 0.0000367 -0.0002266 0.0001718 0.0009042 0.0001473 0.0000150 0.0001098 0.0006787
-0.0000484 -0.0012775 0.0001667 -0.0003122 -0.0001818 -0.0003476 -0.0003024 -0.0002396 -0.0000720 -0.0003856 -0.0000779 -0.0006057 0.0000126 -0.0003349 0.0001611 0.0007661 0.0001579 -0.0002777 0.0001195 0.0003211
-0.0006109 -0.0008761 0.0002056 -0.0003636 -0.0001916 -0.0005335 -0.0003089 -0.0003692 -0.0000653 -0.0004572 -0.0000552 -0.0005587 0.0000427 -0.0003181 0.0001186 0.0006524 0.0001604 -0.0002738 0.0001374 0.0004000
-0.0006822 -0.0008662 0.0002464 -0.0002358 -0.0001440 -0.0004206 -0.0002706 -0.0003078 0.0000213 -0.0001544 -0.0000184 -0.0003580 0.0000643 -0.0002229 0.0000071 0.0004534 0.0001522 -0.0001057 0.0001403 0.0006675
-0.0004624 -0.0012952 0.0002342 -0.0000314 -0.0001373 -0.0002579 -0.0002786 -0.0002531 0.0000829 0.0001445 0.0000033 -0.0001246 0.0000335 -0.0002081 -0.0001876 -0.0000212 0.0001480 -0.0000864 0.0001308 0.0006470
-0.0004919 -0.0012776 0.0002016 -0.0000880 -0.0001634 -0.0003613 -0.0003103 -0.0003937 0.0000773 0.0000769 0.0000582 0.0000294 0.0000153 -0.0003200 -0.0003746 -0.0006447 0.0001408 -0.0003356 0.0001314 0.0003314
-0.0004543 -0.0018090 0.0002027 -0.0002727 -0.0001606 -0.0005587 -0.0003142 -0.0005772 0.0000831 -0.0000360 0.0001275 0.0001076 0.0000409 -0.0003696 -0.0004748 -0.0009883 0.0001278 -0.0004043 0.0001237 0.0003065
-0.0002633 -0.0025272 0.0002303 -0.0001645 -0.0001342 -0.0005546 -0.0003229 -0.0006423 0.0001188 0.0001115 0.0001591 0.0002070 0.0000658 -0.0002573 -0.0005275 -0.0010300 0.0001133 -0.0002173 0.0001125 0.0005761
-0.0004689 -0.0024292 0.0002192 0.0000125 -0.0001422 -0.0004723 -0.0003551 -0.0006835 0.0001370 0.0002732 0.0001522 0.0002863 0.0000570 -0.0001451 -0.0005664 -0.0010257 0.0001012 -0.0000794 0.0000962 0.0006792
-0.0006387 -0.0024758 0.0001779 -0.0001037 -0.0001713 -0.0005665 -0.0003946 -0.0008719 0.0001228 0.0001465 0.0001346 0.0002034 0.0000256 -0.0002487 -0.0006058 -0.0011906 0.0000817 -0.0003160 0.0000690 0.0003118
-0.0009254 -0.0028048 0.0001712 -0.0004235 -0.0001650 -0.0008149 -0.0003956 -0.0011091 0.0001134 -0.0001040 0.0001265 0.0000540 0.0000176 -0.0004078 -0.0006136 -0.0013139 0.0000687 -0.0004637 0.0000715 0.0001882
-0.0013885 -0.0023929 0.0001759 -0.0005036 -0.0001525 -0.0008636 -0.0003751 -0.0010953 0.0000976 -0.0001653 0.0001427 0.0000751 0.0000363 -0.0003560 -0.0005992 -0.0012390 0.0000677 -0.0002180 0.0000864 0.0005048
-0.0014006 -0.0023604 0.0001828 -0.0003369 -0.0001457 -0.0007114 -0.0003702 -0.0009468 0.0000818 -0.0000504 0.0001510 0.0001711 0.0000445 -0.0002172 -0.0006009 -0.0010872 0.0000541 0.0001635 0.0000623 0.0009309
-0.0012456 -0.0022732 0.0001794 -0.0001441 -0.0001509 -0.0005221 -0.0003729 -0.0008652 0.0000651 -0.0000224 0.0001335 0.0001416 0.0000320 -0.0002403 -0.0006214 -0.0011214 0.0000382 0.0000700 0.0000220 0.0006990
-0.0011783 -0.0021303 0.0001616 -0.0002327 -0.0001626 -0.0006681 -0.0003726 -0.0010069 0.0000572 -0.0002573 0.0000964 -0.0000685 0.0000116 -0.0004496 -0.0006378 -0.0013071 0.0000257 -0.0002811 0.0000062 0.0002135
-0.0005686 -0.0025760 0.0001760 -0.0003706 -0.0001576 -0.0008758 -0.0003480 -0.0010856 0.0000694 -0.0003744 0.0000742 -0.0001796 0.0000199 -0.0005045 -0.0006090 -0.0012319 0.0000218 -0.0001728 0.0000188 0.0003663
0.0000697 -0.0029331 0.0002035 -0.0001999 -0.0001212 -0.0007273 -0.0003293 -0.0008614 0.0000872 -0.0002324 0.0000629 -0.0001546 0.0000386 -0.0003789 -0.0005645 -0.0009471 0.0000197 0.0002182 0.0000230 0.0008417
0.0000551 -0.0023983 0.0002197 0.0001923 -0.0001001 -0.0004148 -0.0003314 -0.0005089 0.0000716 -0.0000044 -0.0000239 -0.0002850 0.0000157 -0.0002149 -0.0003744 -0.0001276 0.0000266 0.0007802 0.0000057 0.0013419
-0.0002974 -0.0011800 0.0002527 0.0003570 -0.0000807 -0.0002124 -0.0003101 -0.0002931 0.0000215 -0.0001154 -0.0001431 -0.0006408 -0.0000283 -0.0002753 -0.0001762 0.0004749 0.0000118 0.0006742 -0.0000208 0.0011117
-0.0004548 -0.0011065 0.0002562 0.0000465 -0.0000619 -0.0003854 -0.0002772 -0.0003493 -0.0000163 -0.0004829 -0.0001822 -0.0009053 -0.0000355 -0.0004431 -0.0000909 0.0005643 -0.0000137 0.0003224 -0.0000356 0.0007393
-0.0004196 -0.0009668 0.0002331 -0.0000888 -0.0000410 -0.0004510 -0.0002015 -0.0002003 -0.0000338 -0.0005788 -0.0001691 -0.0009088 -0.0000093 -0.0003684 -0.0000101 0.0007980 -0.0000153 0.0005291 -0.0000245 0.0010232
-0.0005603 -0.0003272 0.0001914 0.0000134 -0.0000084 -0.0002363 -0.0001419 0.0000687 -0.0000250 -0.0003396 -0.0001258 -0.0006899 0.0000272 -0.0001048 0.0000342 0.0010990 -0.0000276 0.0008039 -0.0000139 0.0015087
-0.0005758 -0.0005025 0.0001441 0.0001662 -0.0000044 -0.0000065 -0.0001687 0.0001864 -0.0000227 -0.0000275 -0.0001086 -0.0004737 0.0000382 0.0001254 0.0000399 0.0012977 -0.0000344 0.0008709 -0.0000185 0.0015371
-0.0005968 -0.0005383 0.0001268 0.0001633 -0.0000091 -0.0000264 -0.0001972 0.0001521 -0.0000344 -0.0001358 -0.0001121 -0.0005196 0.0000149 0.0000159 -0.0000332 0.0010212 -0.0000422 0.0005533 -0.0000398 0.0010382
-0.0001201 -0.0009346 0.0001126 -0.0000661 -0.0000185 -0.0002672 -0.0002053 -0.0000284 -0.0000223 -0.0003851 -0.0000861 -0.0005947 0.0000093 -0.0001661 -0.0000990 0.0007118 -0.0000509 0.0003365 -0.0000377 0.0008391
0.0003429 -0.0015712 0.0001063 -0.0001178 -0.0000220 -0.0003090 -0.0002128 -0.0000688 -0.0000041 -0.0003213 -0.0000578 -0.0005021 0.0000194 -0.0001050 -0.0001119 0.0007210 -0.0000491 0.0004678 -0.0000287 0.0010967
0.0000674 -0.0011991 0.0000976 0.0000524 -0.0000197 -0.0001568 -0.0002270 0.0000322 -0.0000036 -0.0001159 -0.0000525 -0.0003790 0.0000140 0.0000389 -0.0001190 0.0008553 -0.0000545 0.0007688 -0.0000588 0.0015339
-0.0001504 -0.0006405 0.0001217 0.0003716 -0.0000234 0.0000813 -0.0002606 0.0002039 -0.0000187 0.0001767 -0.0000508 -0.0001641 -0.0000083 0.0001897 -0.0001938 0.0008221 -0.0000710 0.0010445 -0.0000972 0.0017006
-0.0002841 -0.0005742 0.0001442 0.0004395 -0.0000343 0.0001170 -0.0002955 0.0002256 -0.0000438 0.0001176 -0.0000334 -0.0000800 -0.0000543 0.0000415 -0.0003331 0.0003709 -0.0001066 0.0007175 -0.0001303 0.0012089
-0.0007046 -0.0004232 0.0001201 0.0002179 -0.0000621 -0.0000947 -0.0003276 -0.0000116 -0.0000828 -0.0002851 -0.0000362 -0.0002055 -0.0000815 -0.0002139 -0.0004014 0.0000329 -0.0001230 0.0003542 -0.0001400 0.0008655
-0.0009286 -0.0002406 0.0001194 0.0002143 -0.0000562 -0.0000669 -0.0003161 -0.0000233 -0.0000907 -0.0003590 -0.0000507 -0.0001842 -0.0000902 -0.0002470 -0.0004209 0.0000235 -0.0001039 0.0005873 -0.0001514 0.0011232
-0.0007716 0.0000981 0.0001533 0.0005751 -0.0000512 0.0002384 -0.0002368 0.0004445 -0.0000606 -0.0000388 -0.0000982 -0.0000962 -0.0001102 -0.0002239 -0.0004083 0.0002628 -0.0001084 0.0010080 -0.0001874 0.0015576
-0.0002415 0.0004018 0.0001615 0.0010438 -0.0000845 0.0005732 -0.0002090 0.0009572 -0.0000665 0.0003192 -0.0001528 0.0000300 -0.0001177 -0.0000660 -0.0003777 0.0006639 -0.0001367 0.0013321 -0.0001607 0.0020098
0.0001545 -0.0001261 0.0000961 0.0009855 -0.0001019 0.0006862 -0.0002566 0.0010186 -0.0001104 0.0003575 -0.0001423 0.0001328 -0.0001179 0.0000291 -0.0003757 0.0007255 -0.0001549 0.0009568 -0.0001152 0.0016833
0.0000472 -0.0009358 0.0000172 0.0004749 -0.0001173 0.0004320 -0.0002951 0.0007441 -0.0001241 0.0001523 -0.0001386 0.0000259 -0.0001108 0.0000182 -0.0002830 0.0009143 -0.0001478 0.0005162 -0.0000742 0.0012706
-0.0001233 -0.0010214 0.0000363 0.0002942 -0.0001057 0.0003396 -0.0003156 0.0006793 -0.0001230 0.0001093 -0.0001514 -0.0000063 -0.0000858 0.0001472 -0.0001513 0.0013568 -0.0001253 0.0007001 -0.0000211 0.0015968
-0.0002072 -0.0009458 0.0000891 0.0004447 -0.0000805 0.0005577 -0.0003218 0.0008567 -0.0001315 0.0003231 -0.0001474 0.0001720 -0.0000746 0.0003672 -0.0001165 0.0016215 -0.0001178 0.0010880 -0.0000067 0.0020809
-0.0005056 -0.0008673 0.0000921 0.0007124 -0.0000890 0.0008305 -0.0003367 0.0010862 -0.0001445 0.0006629 -0.0001489 0.0004191 -0.0000951 0.0006109 -0.0001530 0.0018030 -0.0001275 0.0015368 -0.0000241 0.0025112
-0.0011049 -0.0000107 0.0000706 0.0007780 -0.0001076 0.0009535 -0.0003668 0.0011638 -0.0001776 0.0007024 -0.0001710 0.0004398 -0.0001393 0.0005788 -0.0001981 0.0017188 -0.0001456 0.0013163 -0.0000542 0.0021077
-0.0012092 -0.0000659 0.0000562 0.0004672 -0.0001427 0.0007127 -0.0003917 0.0009307 -0.0002079 0.0004053 -0.0002083 0.0002503 -0.0001680 0.0003830 -0.0002172 0.0015610 -0.0001560 0.0008598 -0.0000614 0.0015644
-0.0004791 -0.0009315 0.0000461 0.0002912 -0.0001660 0.0005692 -0.0004121 0.0008259 -0.0002196 0.0003149 -0.0002212 0.0002601 -0.0001704 0.0004169 -0.0002221 0.0015982 -0.0001531 0.0009310 -0.0000555 0.0017192
-0.0001679 -0.0007012 0.0000203 0.0004393 -0.0001700 0.0007429 -0.0004203 0.0009895 -0.0002263 0.0004965 -0.0002297 0.0004269 -0.0001714 0.0006329 -0.0001323 0.0020472 -0.0001464 0.0012451 -0.0000380 0.0021597
-0.0001587 -0.0004643 0.0000022 0.0006340 -0.0001803 0.0010545 -0.0004133 0.0012554 -0.0002717 0.0006558 -0.0003042 0.0004983 -0.0001388 0.0010946 0.0001211 0.0030932 -0.0001341 0.0016669 -0.0000278 0.0024575
0.0002613 -0.0006599 0.0000071 0.0005318 -0.0001868 0.0010745 -0.0004177 0.0013861 -0.0003328 0.0004778 -0.0003430 0.0004196 -0.0001326 0.0012024 0.0000708 0.0028589 -0.0001324 0.0014370 -0.0001103 0.0017701
0.0002835 -0.0007049 0.0000115 0.0002429 -0.0002379 0.0005573 -0.0004837 0.0010557 -0.0003056 0.0003001 -0.0002130 0.0005008 -0.0001815 0.0008770 -0.0003959 0.0011875 -0.0001472 0.0009240 -0.0002190 0.0009527
0.0003693 -0.0014092 0.0000486 0.0002169 -0.0003384 0.0000538 -0.0006051 0.0005368 -0.0002461 0.0004633 -0.0000826 0.0007725 -0.0002123 0.0008228 -0.0007286 0.0002002 -0.0001596 0.0008411 -0.0002777 0.0008949
-0.0001740 -0.0014202 0.0000847 0.0003404 -0.0004299 -0.0001511 -0.0006974 0.0002984 -0.0002273 0.0007336 -0.0000422 0.0010354 -0.0002263 0.0009998 -0.0008416 -0.0000148 -0.0001679 0.0009575 -0.0003186 0.0011678
-0.0011158 -0.0004032 0.0000521 0.0004892 -0.0004915 -0.0001136 -0.0007502 0.0003036 -0.0002300 0.0010292 -0.0000314 0.0012703 -0.0002493 0.0011903 -0.0009174 -0.0000768 -0.0001653 0.0010442 -0.0003335 0.0012178
-0.0011484 -0.0006399 0.0000160 0.0003559 -0.0005170 -0.0002275 -0.0007990 0.0001046 -0.0002564 0.0009206 -0.0000541 0.0012105 -0.0002929 0.0010754 -0.0009853 -0.0003431 -0.0001619 0.0006821 -0.0003327 0.0007194
-0.0008755 -0.0013711 -0.0000080 0.0000239 -0.0005381 -0.0005334 -0.0008238 -0.0002582 -0.0002653 0.0005720 -0.0000827 0.0010306 -0.0003172 0.0008663 -0.0010191 -0.0006094 -0.0001581 0.0003889 -0.0003115 0.0004427
-0.0007566 -0.0012600 -0.0000290 -0.0000092 -0.0005443 -0.0005718 -0.0008334 -0.0003914 -0.0002633 0.0005190 -0.0000895 0.0010435 -0.0003094 0.0008746 -0.0010180 -0.0006300 -0.0001507 0.0005353 -0.0002917 0.0006992
-0.0003841 -0.0010868 -0.0000248 0.0001388 -0.0005168 -0.0003906 -0.0008374 -0.0003306 -0.0002883 0.0006154 -0.0000986 0.0011307 -0.0003146 0.0009793 -0.0010096 -0.0005148 -0.0001601 0.0008504 -0.0002902 0.0011897
0.0001429 -0.0012362 -0.0000284 0.0003695 -0.0005001 -0.0001139 -0.0008570 -0.0001765 -0.0003151 0.0007908 -0.0001160 0.0012218 -0.0003373 0.0010579 -0.0010230 -0.0004872 -0.0001703 0.0008955 -0.0002897 0.0011533
0.0001185 -0.0013283 -0.0000494 0.0002535 -0.0004986 -0.0002090 -0.0008688 -0.0002626 -0.0003210 0.0006443 -0.0001324 0.0011042 -0.0003703 0.0008976 -0.0010418 -0.0007010 -0.0001790 0.0005823 -0.0002966 0.0006488
-0.0002574 -0.0013774 -0.0000298 -0.0000416 -0.0004962 -0.0005777 -0.0008343 -0.0004937 -0.0003021 0.0004008 -0.0001497 0.0009184 -0.0003797 0.0007390 -0.0010109 -0.0007730 -0.0001762 0.0005324 -0.0002902 0.0006049
-0.0004617 -0.0014854 0.0000109 -0.0000125 -0.0004925 -0.0006785 -0.0007983 -0.0004908 -0.0002867 0.0004712 -0.0001554 0.0008994 -0.0003699 0.0007884 -0.0009777 -0.0006514 -0.0001723 0.0007787 -0.0002899 0.0009506
-0.0005095 -0.0011953 0.0000117 0.0001845 -0.0005042 -0.0005642 -0.0008063 -0.0004003 -0.0002872 0.0006583 -0.0001583 0.0009661 -0.0003701 0.0009102 -0.0009888 -0.0005375 -0.0001920 0.0011101 -0.0003148 0.0014082
-0.0006945 -0.0007188 -0.0000233 0.0003392 -0.0005229 -0.0003977 -0.0008232 -0.0003808 -0.0002970 0.0007307 -0.0001732 0.0009610 -0.0003956 0.0008876 -0.0010331 -0.0006355 -0.0002164 0.0009749 -0.0003426 0.0012008
-0.0007965 -0.0010191 -0.0000564 0.0001150 -0.0005400 -0.0005973 -0.0008418 -0.0006170 -0.0003080 0.0004992 -0.0001899 0.0008071 -0.0004191 0.0006849 -0.0010748 -0.0008718 -0.0002375 0.0006146 -0.0003604 0.0007514
-0.0008522 -0.0013143 -0.0000616 -0.0001044 -0.0005453 -0.0008481 -0.0008521 -0.0008096 -0.0002982 0.0003666 -0.0001871 0.0007421 -0.0004092 0.0006070 -0.0010892 -0.0009516 -0.0002454 0.0006420 -0.0003710 0.0008498
-0.0004193 -0.0015795 -0.0000721 -0.0000258 -0.0005408 -0.0007927 -0.0008453 -0.0007833 -0.0002817 0.0004657 -0.0001755 0.0008052 -0.0004018 0.0006869 -0.0011014 -0.0009072 -0.0002544 0.0008537 -0.0003838 0.0011421
-0.0000318 -0.0016280 -0.0000971 0.0001471 -0.0005533 -0.0006331 -0.0008456 -0.0007091 -0.0002818 0.0006355 -0.0001776 0.0008749 -0.0004121 0.0007403 -0.0011195 -0.0009015 -0.0002669 0.0008579 -0.0004201 0.0010639
-0.0001637 -0.0013620 -0.0001124 0.0000347 -0.0005643 -0.0007446 -0.0008496 -0.0008154 -0.0002910 0.0004964 -0.0001989 0.0007320 -0.0004274 0.0005812 -0.0011329 -0.0010537 -0.0002809 0.0005333 -0.0004455 0.0005923
-0.0001638 -0.0017387 -0.0000896 -0.0002447 -0.0005612 -0.0010307 -0.0008520 -0.0010084 -0.0002827 0.0002459 -0.0002092 0.0005430 -0.0004161 0.0004388 -0.0011213 -0.0011242 -0.0002869 0.0004143 -0.0004419 0.0005021
-0.0002308 -0.0018078 -0.0000596 -0.0002259 -0.0005441 -0.0010418 -0.0008401 -0.0009806 -0.0002635 0.0002744 -0.0002053 0.0005378 -0.0003941 0.0004919 -0.0011018 -0.0010315 -0.0002817 0.0005939 -0.0004419 0.0007884
-0.0007219 -0.0010187 -0.0000581 -0.0000445 -0.0005288 -0.0008960 -0.0008287 -0.0008825 -0.0002643 0.0004003 -0.0002083 0.0005966 -0.0003885 0.0006024 -0.0011066 -0.0009094 -0.0002850 0.0008384 -0.0004444 0.0009875
-0.0009660 -0.0008965 -0.0000644 -0.0000523 -0.0005162 -0.0008830 -0.0008197 -0.0009439 -0.0002889 0.0003116 -0.0002177 0.0005023 -0.0003966 0.0004748 -0.0011330 -0.0010445 -0.0002905 0.0005728 -0.0004618 0.0005753
-0.0009528 -0.0012971 -0.0000773 -0.0003109 -0.0005151 -0.0011603 -0.0008198 -0.0011854 -0.0002962 0.0000103 -0.0002253 0.0002907 -0.0004005 0.0002150 -0.0011434 -0.0012849 -0.0002836 0.0001667 -0.0004562 0.0001668
-0.0006668 -0.0014757 -0.0000949 -0.0003991 -0.0005224 -0.0013132 -0.0007949 -0.0013096 -0.0002808 -0.0000824 -0.0002155 0.0002399 -0.0003850 0.0001694 -0.0011244 -0.0013167 -0.0002608 0.0002216 -0.0004213 0.0003122
-0.0002252 -0.0018130 -0.0000928 -0.0003012 -0.0004985 -0.0012247 -0.0007599 -0.0012517 -0.0002702 0.0000251 -0.0002022 0.0003146 -0.0003630 0.0002297 -0.0011110 -0.0012565 -0.0002467 0.0004408 -0.0004191 0.0006553
-0.0002774 -0.0015122 -0.0001024 -0.0001027 -0.0004886 -0.0010436 -0.0007656 -0.0011320 -0.0002730 0.0001609 -0.0002026 0.0003827 -0.0003669 0.0002433 -0.0011255 -0.0012989 -0.0002392 0.0003680 -0.0004308 0.0004921
-0.0002384 -0.0014266 -0.0001122 -0.0002404 -0.0004931 -0.0011719 -0.0008014 -0.0012654 -0.0002881 -0.0000392 -0.0002210 0.0002337 -0.0003909 0.0000362 -0.0011471 -0.0015457 -0.0002320 -0.0000300 -0.0004180 -0.0000649
-0.0000067 -0.0022420 -0.0000931 -0.0005784 -0.0004796 -0.0015086 -0.0008011 -0.0015463 -0.0002834 -0.0003164 -0.0002236 0.0000702 -0.0003941 -0.0001375 -0.0011371 -0.0016975 -0.0002137 -0.0001535 -0.0003839 -0.0001430
-0.0002345 -0.0023735 -0.0000861 -0.0005735 -0.0004589 -0.0015364 -0.0007749 -0.0015675 -0.0002671 -0.0003016 -0.0002082 0.0000916 -0.0003820 -0.0001004 -0.0011108 -0.0016595 -0.0001899 0.0000311 -0.0003505 0.0001560
-0.0007658 -0.0015271 -0.0000755 -0.0003976 -0.0004346 -0.0013910 -0.0007636 -0.0014607 -0.0002677 -0.0001620 -0.0002004 0.0001741 -0.0003784 0.0000027 -0.0011033 -0.0015527 -0.0001842 0.0003191 -0.0003437 0.0005718
-0.0008516 -0.0011906 -0.0000683 -0.0001746 -0.0004328 -0.0011979 -0.0007625 -0.0013369 -0.0002806 0.0000389 -0.0001987 0.0002877 -0.0003842 0.0001085 -0.0011190 -0.0015013 -0.0001807 0.0003799 -0.0003605 0.0005380
-0.0006796 -0.0015113 -0.0000985 -0.0002634 -0.0004506 -0.0012822 -0.0007905 -0.0014179 -0.0003035 -0.0001302 -0.0002138 0.0001633 -0.0004044 -0.0000465 -0.0011395 -0.0016891 -0.0001811 0.0000070 -0.0003770 -0.0000051
-0.0007482 -0.0016363 -0.0001258 -0.0005458 -0.0004623 -0.0015989 -0.0007827 -0.0016817 -0.0003088 -0.0004683 -0.0002197 -0.0000418 -0.0003996 -0.0002646 -0.0011282 -0.0018716 -0.0001705 -0.0002487 -0.0003546 -0.0002591
-0.0006787 -0.0019282 -0.0001154 -0.0005914 -0.0004434 -0.0016896 -0.0007369 -0.0017605 -0.0002905 -0.0005066 -0.0002009 -0.0000359 -0.0003673 -0.0002476 -0.0010965 -0.0018325 -0.0001497 -0.0001197 -0.0003266 -0.0000238
-0.0001827 -0.0022181 -0.0001038 -0.0004298 -0.0004145 -0.0015550 -0.0007293 -0.0016506 -0.0002827 -0.0003783 -0.0001811 0.0000637 -0.0003482 -0.0001332 -0.0010799 -0.0017049 -0.0001417 0.0001385 -0.0003269 0.0003714
0.0000250 -0.0019170 -0.0001112 -0.0001685 -0.0004208 -0.0013452 -0.0007524 -0.0015231 -0.0002961 -0.0001813 -0.0001739 0.0002035 -0.0003530 0.0000428 -0.0010743 -0.0015424 -0.0001467 0.0004593 -0.0003462 0.0007808
-0.0000255 -0.0015993 -0.0001302 -0.0000050 -0.0004339 -0.0011480 -0.0007699 -0.0014436 -0.0003190 -0.0001445 -0.0001749 0.0002301 -0.0003759 0.0000527 -0.0010811 -0.0015934 -0.0001525 0.0002630 -0.0003657 0.0004569
-0.0002565 -0.0016797 -0.0001269 -0.0002213 -0.0004302 -0.0013433 -0.0007833 -0.0016225 -0.0003308 -0.0003829 -0.0001760 0.0000820 -0.0003813 -0.0001385 -0.0010833 -0.0018031 -0.0001447 -0.0001984 -0.0003637 -0.0001429
-0.0005754 -0.0018392 -0.0001066 -0.0004582 -0.0004158 -0.0016521 -0.0007699 -0.0018267 -0.0003234 -0.0005595 -0.0001598 0.0000015 -0.0003654 -0.0001989 -0.0010609 -0.0018447 -0.0001281 -0.0002025 -0.0003422 -0.0000943
-0.0007155 -0.0019594 -0.0001005 -0.0003972 -0.0003976 -0.0016243 -0.0007465 -0.0017731 -0.0003171 -0.0004908 -0.0001348 0.0000887 -0.0003429 -0.0000834 -0.0010393 -0.0017179 -0.0001248 0.0000619 -0.0003264 0.0002429
-0.0010566 -0.0013432 -0.0001249 -0.0002584 -0.0004060 -0.0014502 -0.0007355 -0.0016279 -0.0003230 -0.0002938 -0.0001246 0.0002284 -0.0003365 0.0000864 -0.0010299 -0.0015389 -0.0001360 0.0003997 -0.0003410 0.0006847
-0.0011669 -0.0007655 -0.0001710 -0.0000486 -0.0004362 -0.0012396 -0.0007413 -0.0014647 -0.0003414 -0.0000685 -0.0001300 0.0003387 -0.0003469 0.0001911 -0.0010468 -0.0014909 -0.0001432 0.0003894 -0.0003598 0.0005848
-0.0005496 -0.0014013 -0.0002091 -0.0001902 -0.0004645 -0.0013761 -0.0007670 -0.0015751 -0.0003696 -0.0002595 -0.0001567 0.0002111 -0.0003726 0.0000609 -0.0010698 -0.0016588 -0.0001552 0.0000082 -0.0003744 0.0000555
-0.0002527 -0.0018142 -0.0002435 -0.0004729 -0.0004832 -0.0016831 -0.0007656 -0.0018061 -0.0003793 -0.0005686 -0.0001729 0.0000486 -0.0003812 -0.0000587 -0.0010463 -0.0017394 -0.0001545 -0.0001339 -0.0003540 -0.0000497
-0.0003228 -0.0018781 -0.0002507 -0.0004642 -0.0004887 -0.0017113 -0.0007549 -0.0018344 -0.0003820 -0.0005716 -0.0001741 0.0000527 -0.0003634 0.0000108 -0.0010041 -0.0016092 -0.0001497 0.0000601 -0.0003254 0.0002903
-0.0001576 -0.0018793 -0.0002295 -0.0003382 -0.0004891 -0.0015535 -0.0007807 -0.0017362 -0.0004077 -0.0004822 -0.0001860 0.0000938 -0.0003608 0.0001520 -0.0009827 -0.0014010 -0.0001660 0.0003699 -0.0003234 0.0007574
-0.0002353 -0.0012833 -0.0002374 -0.0000941 -0.0005046 -0.0013050 -0.0008141 -0.0015716 -0.0004424 -0.0003120 -0.0002013 0.0001677 -0.0003802 0.0002874 -0.0009765 -0.0012688 -0.0001799 0.0004020 -0.0003329 0.0007237
-0.0002542 -0.0013783 -0.0002576 -0.0002108 -0.0005143 -0.0013690 -0.0008366 -0.0016705 -0.0004737 -0.0004970 -0.0002534 -0.0000554 -0.0004095 0.0001756 -0.0008375 -0.0009115 -0.0001968 0.0000869 -0.0003144 0.0003719
-0.0005217 -0.0015566 -0.0002552 -0.0004926 -0.0004752 -0.0014069 -0.0008427 -0.0017968 -0.0005394 -0.0009495 -0.0003663 -0.0005126 -0.0003800 0.0001840 -0.0005336 -0.0000215 -0.0001949 0.0000345 -0.0002495 0.0004453
-0.0009581 -0.0008953 -0.0002392 -0.0004133 -0.0004276 -0.0011373 -0.0008164 -0.0016356 -0.0005830 -0.0010455 -0.0004282 -0.0006527 -0.0003262 0.0004305 -0.0003644 0.0005897 -0.0001809 0.0003043 -0.0002164 0.0008186
-0.0009157 -0.0007132 -0.0002111 -0.0001936 -0.0004188 -0.0009250 -0.0007869 -0.0014262 -0.0005688 -0.0008188 -0.0004102 -0.0004841 -0.0003072 0.0006086 -0.0003739 0.0007182 -0.0001867 0.0006488 -0.0002256 0.0012647
-0.0006334 -0.0007434 -0.0002250 0.0000603 -0.0004440 -0.0006656 -0.0007686 -0.0012126 -0.0005634 -0.0006173 -0.0004013 -0.0003532 -0.0003149 0.0006666 -0.0004021 0.0006732 -0.0001940 0.0005468 -0.0002448 0.0010504
-0.0005877 -0.0006485 -0.0002629 -0.0000704 -0.0004625 -0.0007789 -0.0007729 -0.0012626 -0.0005627 -0.0007525 -0.0004101 -0.0004360 -0.0003340 0.0005236 -0.0004157 0.0004873 -0.0001972 0.0001417 -0.0002638 0.0005264
-0.0003998 -0.0009082 -0.0002566 -0.0003548 -0.0004583 -0.0010551 -0.0007702 -0.0014045 -0.0005433 -0.0008755 -0.0004049 -0.0004873 -0.0003214 0.0004491 -0.0004057 0.0004241 -0.0001883 0.0001139 -0.0002520 0.0005431
0.0000025 -0.0013418 -0.0002266 -0.0003166 -0.0004410 -0.0009899 -0.0007571 -0.0013433 -0.0005192 -0.0007368 -0.0003881 -0.0003735 -0.0003068 0.0005568 -0.0003934 0.0005313 -0.0001809 0.0003685 -0.0002318 0.0008618
-0.0000092 -0.0011210 -0.0002151 -0.0001241 -0.0004248 -0.0007699 -0.0007698 -0.0011827 -0.0005135 -0.0005208 -0.0003829 -0.0002204 -0.0003098 0.0007256 -0.0003874 0.0006963 -0.0001847 0.0007235 -0.0002453 0.0013308
-0.0004439 -0.0003059 -0.0002087 0.0001329 -0.0004191 -0.0004725 -0.0007882 -0.0009894 -0.0005222 -0.0002789 -0.0003888 -0.0000947 -0.0003153 0.0008246 -0.0003796 0.0007749 -0.0001907 0.0006988 -0.0002690 0.0012136
-0.0006944 -0.0004141 -0.0002036 -0.0000616 -0.0004007 -0.0005262 -0.0008019 -0.0010978 -0.0005485 -0.0004796 -0.0004059 -0.0002248 -0.0003340 0.0006706 -0.0003704 0.0006748 -0.0002013 0.0002784 -0.0002794 0.0006354
-0.0006540 -0.0007922 -0.0002071 -0.0004175 -0.0003718 -0.0007399 -0.0007887 -0.0012909 -0.0005618 -0.0007989 -0.0004133 -0.0003767 -0.0003374 0.0005305 -0.0003397 0.0006167 -0.0001975 0.0001310 -0.0002614 0.0005032
-0.0007039 -0.0007070 -0.0002021 -0.0004160 -0.0003476 -0.0006687 -0.0007426 -0.0012445 -0.0005405 -0.0007396 -0.0003975 -0.0003173 -0.0003163 0.0005960 -0.0003138 0.0006825 -0.0001852 0.0003357 -0.0002431 0.0007851
-0.0006755 -0.0006954 -0.0001939 -0.0002711 -0.0003375 -0.0004916 -0.0007126 -0.0011181 -0.0005276 -0.0005423 -0.0003784 -0.0001694 -0.0003029 0.0007184 -0.0003263 0.0007349 -0.0001850 0.0006476 -0.0002517 0.0011893
-0.0006832 -0.0003573 -0.0002036 -0.0000527 -0.0003409 -0.0002797 -0.0007170 -0.0009477 -0.0005317 -0.0002955 -0.0003700 0.0000225 -0.0003026 0.0008839 -0.0003457 0.0008455 -0.0001898 0.0009582 -0.0002668 0.0014746
-0.0003465 -0.0004572 -0.0002345 -0.0000761 -0.0003491 -0.0002241 -0.0007400 -0.0009192 -0.0005411 -0.0003173 -0.0003755 -0.0000042 -0.0003209 0.0008079 -0.0003682 0.0007194 -0.0002062 0.0006368 -0.0002986 0.0010251
-0.0000461 -0.0011019 -0.0002578 -0.0004119 -0.0003743 -0.0005160 -0.0007603 -0.0011439 -0.0005412 -0.0005642 -0.0003780 -0.0001788 -0.0003343 0.0005842 -0.0003761 0.0004204 -0.0002130 0.0001437 -0.0003154 0.0004828
-0.0002023 -0.0012381 -0.0002473 -0.0005933 -0.0003875 -0.0007278 -0.0007542 -0.0012763 -0.0005255 -0.0006351 -0.0003654 -0.0002024 -0.0003220 0.0005487 -0.0003568 0.0003778 -0.0001955 0.0001954 -0.0002888 0.0006051
-0.0002501 -0.0011261 -0.0002013 -0.0005092 -0.0003635 -0.0006439 -0.0007624 -0.0011737 -0.0005196 -0.0005275 -0.0003537 -0.0001170 -0.0003091 0.0006470 -0.0003312 0.0005192 -0.0001820 0.0004659 -0.0002676 0.0009632
-0.0002727 -0.0009002 -0.0001711 -0.0003105 -0.0003553 -0.0004387 -0.0007886 -0.0010214 -0.0005341 -0.0003519 -0.0003540 -0.0000084 -0.0003089 0.0007955 -0.0003335 0.0006641 -0.0001818 0.0008219 -0.0002739 0.0014202
-0.0006482 -0.0001871 -0.0001830 -0.0000299 -0.0003784 -0.0001959 -0.0007961 -0.0008793 -0.0005524 -0.0001276 -0.0003552 0.0001257 -0.0003307 0.0008882 -0.0003973 0.0005689 -0.0001887 0.0007912 -0.0002968 0.0012653
-0.0009151 -0.0002899 -0.0001909 -0.0001877 -0.0004104 -0.0003902 -0.0008003 -0.0009925 -0.0005592 -0.0002475 -0.0003495 0.0000760 -0.0003666 0.0007018 -0.0004997 0.0001286 -0.0002047 0.0003281 -0.0003239 0.0006244
-0.0009420 -0.0008177 -0.0001892 -0.0005546 -0.0004416 -0.0008127 -0.0008015 -0.0012165 -0.0005475 -0.0004958 -0.0003363 -0.0000341 -0.0003674 0.0004814 -0.0005507 -0.0001921 -0.0002026 0.0001079 -0.0003157 0.0004338
-0.0006728 -0.0009321 -0.0001930 -0.0005679 -0.0004525 -0.0009111 -0.0007870 -0.0012289 -0.0005294 -0.0004629 -0.0003137 0.0000045 -0.0003435 0.0004996 -0.0005420 -0.0001807 -0.0001849 0.0002766 -0.0002892 0.0006773
-0.0002664 -0.0012011 -0.0001786 -0.0004318 -0.0004543 -0.0008024 -0.0007797 -0.0011385 -0.0005251 -0.0003224 -0.0003008 0.0000941 -0.0003329 0.0006128 -0.0005355 -0.0000711 -0.0001791 0.0005681 -0.0002953 0.0010673
-0.0002849 -0.0008746 -0.0001785 -0.0002131 -0.0004704 -0.0005839 -0.0008033 -0.0010065 -0.0005425 -0.0001361 -0.0003083 0.0002091 -0.0003364 0.0007726 -0.0005341 0.0001135 -0.0001899 0.0008913 -0.0003167 0.0014998
-0.0002488 -0.0003564 -0.0001950 -0.0000591 -0.0004731 -0.0003468 -0.0008433 -0.0008926 -0.0005730 -0.0000954 -0.0003274 0.0001976 -0.0003573 0.0007606 -0.0005418 0.0000988 -0.0002100 0.0006400 -0.0003358 0.0011680
