-0.0000000 -0.0000000 -0.0000000 -0.0000000 -0.0000000 -0.0000000 -0.0000000 -0.0000000 -0.0000000 -0.0000000 -0.0000000 -0.0000000 -0.0000000 -0.0000000 -0.0000000 -0.0000000 -0.0000000 -0.0000000 -0.0000000 -0.0000000
-0.0000000 -0.0000000 -0.0000000 -0.0000000 -0.0000000 -0.0000000 -0.0000000 -0.0000000 -0.0000000 -0.0000000 -0.0000000 -0.0000000 -0.0000000 -0.0000000 -0.0000000 -0.0000000 -0.0000000 -0.0000000 -0.0000000 -0.0000000
-0.0013822 0.0034892 -0.0000099 0.0000036 -0.0000168 -0.0000216 -0.0000155 -0.0000204 -0.0000101 -0.0000086 -0.0000133 -0.0000035 -0.0000117 0.0000287 -0.0000074 0.0000359 -0.0000018 0.0000512 0.0000070 0.0000856
-0.0036309 0.0094361 -0.0000111 0.0000786 -0.0000253 0.0000944 -0.0000293 0.0000840 -0.0000297 0.0000249 -0.0000346 0.0000507 -0.0000316 0.0001263 -0.0000068 0.0001229 -0.0000109 0.0001153 -0.0000316 0.0002238
-0.0030960 0.0081358 -0.0000258 0.0000743 -0.0000467 0.0001250 -0.0000596 0.0001229 -0.0000194 0.0000100 -0.0000600 0.0000213 -0.0000431 0.0001305 -0.0000039 0.0001287 -0.0000272 0.0000748 -0.0000831 0.0001400
-0.0009439 0.0023748 -0.0000397 -0.0000106 -0.0000658 0.0000404 -0.0000876 0.0000169 -0.0000259 -0.0000701 -0.0000846 -0.0000798 -0.0000688 0.0000446 -0.0000140 0.0000585 -0.0000348 0.0000098 -0.0000829 0.0000494
0.0008421 -0.0023538 -0.0000483 0.0000228 -0.0000815 0.0000558 -0.0000968 0.0000386 -0.0000377 -0.0000393 -0.0000914 -0.0000207 -0.0000887 0.0001442 -0.0000185 0.0001441 -0.0000374 0.0000762 -0.0000706 0.0002366
0.0005013 -0.0014606 -0.0000515 0.0001119 -0.0000935 0.0001876 -0.0001055 0.0001924 -0.0000624 0.0000504 -0.0001016 0.0000971 -0.0000981 0.0002816 -0.0000244 0.0002511 -0.0000439 0.0001593 -0.0000885 0.0003581
0.0013719 -0.0037689 -0.0000665 0.0001307 -0.0001090 0.0002295 -0.0001259 0.0002406 -0.0000707 0.0000541 -0.0001213 0.0000840 -0.0001116 0.0002587 -0.0000330 0.0002045 -0.0000539 0.0001085 -0.0001269 0.0002088
-0.0003552 0.0007385 -0.0000824 0.0000447 -0.0001292 0.0001472 -0.0001391 0.0001335 -0.0000717 -0.0000132 -0.0001414 -0.0000029 -0.0001327 0.0001677 -0.0000423 0.0001191 -0.0000582 0.0000236 -0.0001288 0.0001009
0.0027739 -0.0077349 -0.0000857 0.0000521 -0.0001423 0.0001562 -0.0001665 0.0001636 -0.0000908 0.0000107 -0.0001526 0.0000501 -0.0001409 0.0002437 -0.0000485 0.0001832 -0.0000529 0.0000816 -0.0001340 0.0002833
0.0193922 -0.0514656 -0.0000827 0.0001606 -0.0001520 0.0002808 -0.0001857 0.0003141 -0.0001073 0.0001039 -0.0001627 0.0001710 -0.0001473 0.0003548 -0.0000697 0.0002846 -0.0000554 0.0001971 -0.0001638 0.0005290
0.0154457 -0.0408012 -0.0000892 0.0002127 -0.0001692 0.0003685 -0.0002067 0.0003946 -0.0001047 0.0001231 -0.0001805 0.0001783 -0.0001642 0.0002982 -0.0000963 0.0002074 -0.0000644 0.0001423 -0.0001963 0.0003611
0.0009411 -0.0026202 -0.0001013 0.0001157 -0.0001903 0.0002682 -0.0002495 0.0002669 -0.0001031 0.0000359 -0.0002050 0.0000549 -0.0001836 0.0001479 -0.0001082 0.0000252 -0.0000632 -0.0000137 -0.0002279 0.0000614
-0.0047643 0.0121559 -0.0001017 0.0000221 -0.0002073 0.0001542 -0.0002837 0.0001556 -0.0001105 0.0000174 -0.0002212 0.0000480 -0.0001933 0.0001485 -0.0001100 0.0000227 -0.0000533 -0.0000084 -0.0002134 0.0001235
-0.0034432 0.0087726 -0.0000985 0.0000855 -0.0002167 0.0002233 -0.0003066 0.0002836 -0.0000894 0.0001327 -0.0002236 0.0001695 -0.0001977 0.0002638 -0.0001078 0.0001214 -0.0000428 0.0000851 -0.0001679 0.0003056
-0.0015696 0.0041761 -0.0000845 0.0002253 -0.0002320 0.0003533 -0.0003288 0.0004611 -0.0000655 0.0002930 -0.0002317 0.0003137 -0.0002072 0.0004173 -0.0001093 0.0002152 -0.0000355 0.0001982 -0.0001808 0.0004040
-0.0001470 0.0001500 -0.0000968 0.0002095 -0.0002492 0.0003484 -0.0003537 0.0004566 -0.0000819 0.0002823 -0.0002571 0.0002682 -0.0002289 0.0003808 -0.0001132 0.0001286 -0.0000317 0.0001284 -0.0002371 0.0001750
0.0033610 -0.0092751 -0.0001044 0.0000303 -0.0002671 0.0001706 -0.0003817 0.0002678 -0.0001257 0.0001391 -0.0002879 0.0001064 -0.0002542 0.0002522 -0.0001054 -0.0000047 -0.0000213 -0.0000085 -0.0002199 -0.0000371
0.0012476 -0.0036267 -0.0000749 -0.0000567 -0.0002743 0.0001010 -0.0004094 0.0002440 -0.0001272 0.0000930 -0.0003017 0.0001237 -0.0002626 0.0003071 -0.0000859 0.0000443 -0.0000064 0.0000280 -0.0001894 0.0001105
-0.0040741 0.0103406 -0.0000664 0.0000299 -0.0002683 0.0002211 -0.0004256 0.0004012 -0.0001174 0.0001380 -0.0003065 0.0002422 -0.0002733 0.0004588 -0.0000724 0.0001830 -0.0000026 0.0001472 -0.0002058 0.0004300
-0.0056400 0.0146460 -0.0000714 0.0001896 -0.0002634 0.0004136 -0.0004385 0.0005802 -0.0001491 0.0002101 -0.0003194 0.0003673 -0.0002942 0.0006274 -0.0000661 0.0003146 -0.0000099 0.0002578 -0.0002094 0.0005799
-0.0023520 0.0060173 -0.0000836 0.0001683 -0.0002624 0.0004592 -0.0004642 0.0006160 -0.0001777 0.0002038 -0.0003388 0.0003217 -0.0003137 0.0005732 -0.0000667 0.0002250 -0.0000200 0.0001677 -0.0002495 0.0003563
0.0003284 -0.0011994 -0.0000963 -0.0000027 -0.0002672 0.0002800 -0.0004798 0.0004508 -0.0001852 0.0001449 -0.0003532 0.0001854 -0.0003250 0.0004233 -0.0000567 0.0000814 -0.0000186 0.0000210 -0.0002533 0.0001517
0.0027818 -0.0079206 -0.0000776 -0.0000652 -0.0002617 0.0001813 -0.0004816 0.0003951 -0.0001899 0.0001641 -0.0003535 0.0002022 -0.0003284 0.0004703 -0.0000374 0.0001290 -0.0000073 0.0000577 -0.0001866 0.0002682
0.0021170 -0.0059995 -0.0000474 0.0000019 -0.0002466 0.0002607 -0.0004892 0.0005373 -0.0001854 0.0002201 -0.0003528 0.0003024 -0.0003363 0.0006045 -0.0000317 0.0002367 -0.0000051 0.0001706 -0.0001516 0.0005415
0.0003601 -0.0005453 -0.0000355 0.0001285 -0.0002427 0.0003905 -0.0005066 0.0007220 -0.0002062 0.0003425 -0.0003626 0.0004233 -0.0003536 0.0007652 -0.0000380 0.0003766 -0.0000176 0.0003151 -0.0001538 0.0007607
0.0013785 -0.0029929 -0.0000515 0.0001399 -0.0002478 0.0004263 -0.0005188 0.0007714 -0.0002173 0.0003673 -0.0003761 0.0003976 -0.0003719 0.0007385 -0.0000400 0.0003052 -0.0000302 0.0002521 -0.0002128 0.0005806
0.0000498 -0.0001075 -0.0000612 -0.0000123 -0.0002491 0.0002699 -0.0005351 0.0006220 -0.0002168 0.0002761 -0.0003900 0.0002715 -0.0003811 0.0005966 -0.0000307 0.0001444 -0.0000334 0.0000879 -0.0002519 0.0003537
-0.0008899 0.0019712 -0.0000461 -0.0000928 -0.0002328 0.0001505 -0.0005284 0.0005269 -0.0002265 0.0002591 -0.0003921 0.0002646 -0.0003830 0.0006036 -0.0000172 0.0001736 -0.0000270 0.0000980 -0.0001988 0.0004544
-0.0017172 0.0043932 -0.0000336 -0.0000175 -0.0002085 0.0002132 -0.0005168 0.0006353 -0.0002488 0.0003323 -0.0003878 0.0003524 -0.0003824 0.0007104 -0.0000077 0.0002649 -0.0000251 0.0001900 -0.0001479 0.0006736
-0.0048379 0.0131232 -0.0000239 0.0001148 -0.0002002 0.0003416 -0.0005293 0.0008029 -0.0002796 0.0004272 -0.0003935 0.0004611 -0.0003906 0.0008283 -0.0000028 0.0003120 -0.0000343 0.0002406 -0.0001327 0.0006686
-0.0019184 0.0055010 -0.0000233 0.0000627 -0.0001943 0.0003019 -0.0005216 0.0007597 -0.0002889 0.0003967 -0.0004025 0.0004031 -0.0004025 0.0007545 0.0000005 0.0002060 -0.0000396 0.0001421 -0.0001482 0.0004229
0.0196757 -0.0519335 -0.0000219 -0.0000919 -0.0001805 0.0001339 -0.0005104 0.0005976 -0.0002840 0.0003066 -0.0004073 0.0002997 -0.0004079 0.0006520 0.0000079 0.0001219 -0.0000323 0.0000641 -0.0001624 0.0004085
-0.0003548 0.0008062 -0.0000103 -0.0000760 -0.0001595 0.0001101 -0.0004955 0.0006104 -0.0002793 0.0003096 -0.0004029 0.0003580 -0.0004009 0.0007268 0.0000241 0.0001977 -0.0000216 0.0001299 -0.0001070 0.0006266
-0.0060492 0.0161647 0.0000012 0.0000322 -0.0001379 0.0002144 -0.0004771 0.0007366 -0.0002980 0.0004015 -0.0004001 0.0004762 -0.0003972 0.0008607 0.0000283 0.0003264 -0.0000227 0.0002531 -0.0000424 0.0008880
-0.0065328 0.0178873 0.0000100 0.0001890 -0.0001338 0.0003678 -0.0004715 0.0008789 -0.0003206 0.0005037 -0.0004073 0.0006025 -0.0004179 0.0010232 0.0000131 0.0004638 -0.0000388 0.0003838 -0.0000734 0.0010554
-0.0062446 0.0172067 -0.0000084 0.0001817 -0.0001387 0.0003847 -0.0004737 0.0008895 -0.0003170 0.0005066 -0.0004155 0.0005578 -0.0004303 0.0009710 0.0000108 0.0003733 -0.0000554 0.0002758 -0.0001406 0.0007515
-0.0045288 0.0121326 -0.0000156 -0.0000371 -0.0001369 0.0001672 -0.0004759 0.0006780 -0.0003118 0.0003928 -0.0004178 0.0003911 -0.0004194 0.0007665 0.0000320 0.0001689 -0.0000527 0.0000493 -0.0000963 0.0003356
-0.0024782 0.0061980 0.0000030 -0.0001519 -0.0001166 0.0000072 -0.0004502 0.0005191 -0.0003105 0.0003339 -0.0004083 0.0003639 -0.0003996 0.0007314 0.0000576 0.0001639 -0.0000357 0.0000304 -0.0000360 0.0003920
0.0041277 -0.0109121 0.0000185 -0.0000866 -0.0000847 0.0000650 -0.0004093 0.0005776 -0.0003143 0.0003949 -0.0003935 0.0004521 -0.0003856 0.0008193 0.0000686 0.0002606 -0.0000215 0.0001182 -0.0000641 0.0006840
0.0084884 -0.0219626 0.0000276 0.0000548 -0.0000646 0.0001999 -0.0003964 0.0007260 -0.0003461 0.0004952 -0.0003901 0.0005637 -0.0003896 0.0009423 0.0000571 0.0003897 -0.0000217 0.0002518 -0.0000679 0.0009584
0.0044701 -0.0113087 0.0000207 0.0001062 -0.0000611 0.0002766 -0.0004000 0.0007955 -0.0003483 0.0005103 -0.0003948 0.0005457 -0.0003974 0.0009040 0.0000515 0.0003171 -0.0000274 0.0001796 -0.0000677 0.0006909
0.0040037 -0.0104447 0.0000236 -0.0000701 -0.0000611 0.0001187 -0.0003751 0.0005832 -0.0003231 0.0003946 -0.0003958 0.0003981 -0.0003953 0.0007245 0.0000596 0.0001336 -0.0000159 -0.0000238 -0.0000564 0.0002594
0.0002927 -0.0007618 0.0000451 -0.0001970 -0.0000458 -0.0000465 -0.0003401 0.0004049 -0.0003262 0.0003676 -0.0003860 0.0003516 -0.0003724 0.0006743 0.0000792 0.0001246 0.0000102 -0.0000526 -0.0000100 0.0003136
-0.0036774 0.0098875 0.0000739 -0.0001369 -0.0000199 0.0000100 -0.0003155 0.0004822 -0.0003293 0.0004366 -0.0003712 0.0004333 -0.0003493 0.0007621 0.0000934 0.0002271 0.0000298 0.0000337 0.0000145 0.0005616
-0.0034001 0.0093489 0.0001016 -0.0000155 -0.0000041 0.0001480 -0.0002913 0.0006157 -0.0003233 0.0004965 -0.0003638 0.0005397 -0.0003571 0.0009096 0.0000895 0.0003614 0.0000345 0.0001683 0.0000411 0.0008419
-0.0014371 0.0043607 0.0000898 0.0001074 -0.0000042 0.0002653 -0.0002840 0.0007083 -0.0003302 0.0005488 -0.0003618 0.0005295 -0.0003681 0.0009075 0.0000912 0.0003241 0.0000307 0.0001175 0.0000262 0.0006214
0.0006262 -0.0013677 0.0000595 -0.0000083 -0.0000111 0.0001251 -0.0002838 0.0005215 -0.0003470 0.0005164 -0.0003609 0.0003776 -0.0003632 0.0007390 0.0000999 0.0001828 0.0000380 -0.0000649 0.0000224 0.0001837
0.0011545 -0.0028684 0.0000682 -0.0001785 -0.0000014 -0.0000829 -0.0002539 0.0002961 -0.0003265 0.0004453 -0.0003483 0.0002963 -0.0003407 0.0006650 0.0001174 0.0001736 0.0000615 -0.0001053 0.0000924 0.0001640
-0.0004102 0.0018126 0.0000974 -0.0001349 0.0000163 -0.0000566 -0.0002224 0.0003331 -0.0003012 0.0004858 -0.0003262 0.0003463 -0.0003096 0.0007218 0.0001279 0.0002539 0.0000812 -0.0000295 0.0001270 0.0003639
-0.0022530 0.0069347 0.0001177 -0.0000182 0.0000256 0.0000575 -0.0002247 0.0004673 -0.0003041 0.0005840 -0.0003166 0.0004264 -0.0003033 0.0008197 0.0001137 0.0003454 0.0000866 0.0000959 0.0001490 0.0006282
-0.0016753 0.0056810 0.0001203 0.0001132 0.0000190 0.0001887 -0.0002327 0.0005705 -0.0002953 0.0006154 -0.0003182 0.0004076 -0.0003117 0.0007943 0.0000831 0.0002604 0.0000835 0.0000458 0.0001482 0.0004488
0.0009440 -0.0015880 0.0000934 -0.0000284 -0.0000050 0.0000377 -0.0002576 0.0003286 -0.0003028 0.0005479 -0.0003423 0.0001655 -0.0003274 0.0005299 0.0000341 -0.0000032 0.0000960 -0.0001493 0.0001803 0.0001083
0.0070540 -0.0188506 0.0000758 -0.0002866 -0.0000168 -0.0002582 -0.0002517 0.0000514 -0.0002860 0.0005470 -0.0003239 0.0000629 -0.0002924 0.0004783 0.0000733 0.0000386 0.0001284 -0.0001685 0.0002512 0.0002037
0.0081643 -0.0216629 0.0000973 -0.0002667 0.0000027 -0.0002875 -0.0002256 0.0000958 -0.0002537 0.0006091 -0.0003009 0.0001242 -0.0002617 0.0005563 0.0001194 0.0002038 0.0001465 -0.0000734 0.0003224 0.0004035
0.0010727 -0.0020388 0.0001100 -0.0001162 0.0000177 -0.0001711 -0.0002335 0.0001979 -0.0002669 0.0006102 -0.0003113 0.0001387 -0.0002704 0.0005804 0.0000936 0.0002826 0.0001478 0.0000474 0.0003691 0.0006000
-0.0031403 0.0093610 0.0000899 -0.0000277 0.0000182 -0.0000793 -0.0002243 0.0002425 -0.0002761 0.0006402 -0.0002922 0.0001436 -0.0002655 0.0005903 0.0001048 0.0002627 0.0001466 0.0000026 0.0003616 0.0003881
-0.0020573 0.0061497 0.0000828 -0.0001231 0.0000133 -0.0002129 -0.0002166 0.0000374 -0.0002601 0.0005519 -0.0002920 -0.0000112 -0.0002673 0.0003849 0.0000804 0.0000284 0.0001539 -0.0001796 0.0003498 0.0000044
-0.0020768 0.0058182 0.0001156 -0.0002033 0.0000008 -0.0004203 -0.0002281 -0.0001713 -0.0002608 0.0004417 -0.0002980 -0.0001306 -0.0002731 0.0001778 0.0000139 -0.0001874 0.0001695 -0.0002356 0.0003309 0.0000224
0.0004109 -0.0004165 0.0001477 -0.0001076 0.0000007 -0.0004130 -0.0002326 -0.0001544 -0.0002766 0.0004668 -0.0002891 -0.0000815 -0.0002812 0.0001484 -0.0000154 -0.0002275 0.0001825 -0.0001650 0.0003589 0.0001653
0.0057167 -0.0139414 0.0001564 0.0000518 0.0000140 -0.0002437 -0.0002430 -0.0000487 -0.0002910 0.0004939 -0.0002914 -0.0000084 -0.0002734 0.0001848 -0.0000186 -0.0001845 0.0001832 -0.0000931 0.0003837 0.0001415
0.0033745 -0.0079363 0.0001454 0.0000210 0.0000543 -0.0001017 -0.0002246 -0.0000332 -0.0003333 0.0002858 -0.0002996 -0.0000951 -0.0002664 0.0000193 -0.0000255 -0.0003298 0.0001731 -0.0002190 0.0003886 -0.0001471
0.0037301 -0.0091928 0.0001501 -0.0001383 0.0000889 -0.0001072 -0.0001835 -0.0001511 -0.0003424 0.0000882 -0.0002831 -0.0002009 -0.0002481 -0.0000766 -0.0000090 -0.0004252 0.0001814 -0.0003248 0.0004268 -0.0002499
0.0027288 -0.0064757 0.0001653 -0.0001434 0.0000936 -0.0001426 -0.0001740 -0.0001764 -0.0003001 0.0001453 -0.0002468 -0.0001421 -0.0002090 0.0000848 0.0000327 -0.0002991 0.0001992 -0.0002401 0.0004303 -0.0000063
0.0004116 -0.0000700 0.0001735 -0.0000292 0.0000961 -0.0000576 -0.0001595 -0.0000800 -0.0002952 0.0002422 -0.0002209 -0.0000219 -0.0001821 0.0002927 0.0000674 -0.0001219 0.0002002 -0.0000944 0.0004283 0.0002815
0.0029294 -0.0064161 0.0001689 0.0000792 0.0000976 0.0000610 -0.0001397 0.0000046 -0.0002888 0.0002914 -0.0002034 0.0000185 -0.0001704 0.0003602 0.0000940 -0.0001048 0.0001940 -0.0001102 0.0004214 0.0001457
0.0047500 -0.0115012 0.0001584 -0.0000128 0.0000950 -0.0000389 -0.0001309 -0.0001285 -0.0002651 0.0002499 -0.0001861 -0.0000470 -0.0001578 0.0003012 0.0001226 -0.0001868 0.0001980 -0.0002164 0.0004262 -0.0001619
0.0058451 -0.0148168 0.0001648 -0.0001033 0.0000988 -0.0001687 -0.0001168 -0.0002509 -0.0002571 0.0002457 -0.0001632 -0.0000526 -0.0001354 0.0003252 0.0001500 -0.0001504 0.0002058 -0.0001896 0.0004687 -0.0000750
0.0000009 0.0007864 0.0001728 -0.0000181 0.0001123 -0.0001013 -0.0000996 -0.0001501 -0.0002369 0.0002889 -0.0001403 0.0000327 -0.0001093 0.0004475 0.0001687 -0.0000347 0.0002084 -0.0000868 0.0004903 0.0001704
-0.0014020 0.0047576 0.0001750 0.0001261 0.0001144 0.0000367 -0.0000965 -0.0000040 -0.0002188 0.0003688 -0.0001269 0.0001300 -0.0000834 0.0005440 0.0001859 0.0000212 0.0002012 -0.0000511 0.0004558 0.0001674
0.0001689 0.0007305 0.0001543 0.0000866 0.0001078 0.0000069 -0.0000979 -0.0000598 -0.0002177 0.0003594 -0.0001246 0.0000824 -0.0000801 0.0004681 0.0001947 -0.0000771 0.0001929 -0.0001391 0.0004418 -0.0000575
0.0007023 -0.0008526 0.0001416 -0.0000403 0.0001109 -0.0001165 -0.0000813 -0.0002078 -0.0002105 0.0003028 -0.0001176 0.0000130 -0.0000730 0.0003554 0.0001866 -0.0001863 0.0001951 -0.0001804 0.0004537 -0.0001171
0.0047169 -0.0114329 0.0001512 0.0000012 0.0001431 -0.0000262 -0.0000323 -0.0000898 -0.0002237 0.0002514 -0.0000977 0.0000945 -0.0000491 0.0003203 0.0001791 -0.0002121 0.0001935 -0.0001458 0.0004492 -0.0000319
0.0070966 -0.0173662 0.0001540 0.0000979 0.0001804 0.0001578 0.0000250 0.0001363 -0.0002354 0.0001992 -0.0000826 0.0002067 -0.0000358 0.0002804 0.0001493 -0.0002435 0.0001877 -0.0001195 0.0004407 -0.0000680
0.0010458 -0.0014097 0.0001461 0.0000867 0.0001797 0.0001335 0.0000242 0.0000523 -0.0002195 0.0001883 -0.0000757 0.0001413 -0.0000169 0.0000871 0.0001072 -0.0004294 0.0001819 -0.0002195 0.0004105 -0.0003161
0.0020957 -0.0047509 0.0001514 -0.0000219 0.0001776 -0.0000036 0.0000061 -0.0001823 -0.0001782 0.0002711 -0.0000583 0.0000336 0.0000192 -0.0001586 0.0000859 -0.0006212 0.0001807 -0.0003258 0.0003706 -0.0004549
0.0061695 -0.0158175 0.0001577 -0.0000161 0.0001944 -0.0000216 0.0000135 -0.0002254 -0.0001374 0.0003688 -0.0000419 0.0000458 0.0000464 -0.0002468 0.0000700 -0.0006541 0.0001938 -0.0002474 0.0003594 -0.0003498
-0.0040530 0.0114717 0.0001592 0.0001001 0.0001933 0.0000205 0.0000044 -0.0001727 -0.0001212 0.0004039 -0.0000404 0.0000891 0.0000579 -0.0001986 0.0000622 -0.0005970 0.0002115 -0.0001095 0.0003876 -0.0002939
-0.0043312 0.0122398 0.0001630 0.0001013 0.0001806 -0.0000265 -0.0000054 -0.0002342 -0.0001221 0.0003793 -0.0000441 0.0000229 0.0000487 -0.0001949 0.0000952 -0.0006322 0.0002252 -0.0001575 0.0003905 -0.0005335
0.0007448 -0.0014645 0.0001573 -0.0000244 0.0001875 -0.0001966 0.0000202 -0.0004514 -0.0001165 0.0002648 -0.0000350 -0.0001059 0.0000550 -0.0002223 0.0001663 -0.0006681 0.0002394 -0.0002631 0.0004022 -0.0006603
-0.0006324 0.0020529 0.0001831 -0.0000738 0.0002158 -0.0002488 0.0000668 -0.0005246 -0.0000979 0.0002656 0.0000027 -0.0000717 0.0000986 -0.0000990 0.0002309 -0.0005228 0.0002557 -0.0001864 0.0004555 -0.0004399
-0.0012423 0.0039836 0.0001990 0.0000066 0.0002403 -0.0001398 0.0000987 -0.0004275 -0.0000926 0.0003466 0.0000315 0.0000294 0.0001203 0.0000521 0.0002566 -0.0003614 0.0002603 -0.0000382 0.0005169 -0.0001768
-0.0003516 0.0020307 0.0001879 0.0000742 0.0002482 -0.0000522 0.0001133 -0.0003632 -0.0000921 0.0003441 0.0000373 0.0000056 0.0001225 0.0000219 0.0002608 -0.0004012 0.0002531 -0.0000737 0.0004904 -0.0003265
0.0055915 -0.0137820 0.0001812 -0.0000668 0.0002489 -0.0001982 0.0001124 -0.0005324 -0.0000839 0.0002161 0.0000411 -0.0001415 0.0001387 -0.0001570 0.0002725 -0.0005468 0.0002519 -0.0002273 0.0004314 -0.0006301
0.0037876 -0.0092816 0.0001887 -0.0001860 0.0002638 -0.0003857 0.0001347 -0.0007131 -0.0000706 0.0001143 0.0000591 -0.0002149 0.0001784 -0.0002528 0.0002807 -0.0005763 0.0002566 -0.0002546 0.0004672 -0.0006349
0.0007983 -0.0012294 0.0002323 -0.0001192 0.0002936 -0.0003704 0.0001846 -0.0006656 -0.0000669 0.0001229 0.0000826 -0.0001855 0.0002043 -0.0002237 0.0002769 -0.0005475 0.0002591 -0.0001987 0.0005103 -0.0005137
0.0085276 -0.0212101 0.0002562 0.0000341 0.0003130 -0.0002635 0.0002076 -0.0005544 -0.0000565 0.0001578 0.0001017 -0.0001513 0.0002167 -0.0001985 0.0002647 -0.0005740 0.0002537 -0.0002046 0.0005032 -0.0005871
0.0030471 -0.0067350 0.0002517 -0.0000154 0.0003161 -0.0003436 0.0002221 -0.0007091 -0.0000481 0.0000855 0.0001082 -0.0002584 0.0002261 -0.0003524 0.0002560 -0.0007110 0.0002506 -0.0003168 0.0004886 -0.0008639
0.0020661 -0.0044735 0.0002528 -0.0001934 0.0003290 -0.0005429 0.0002570 -0.0009586 -0.0000376 -0.0000196 0.0001224 -0.0003748 0.0002394 -0.0004663 0.0002771 -0.0007342 0.0002622 -0.0003510 0.0005210 -0.0008725
0.0041763 -0.0100651 0.0002625 -0.0002017 0.0003544 -0.0005674 0.0002958 -0.0009489 -0.0000221 0.0000136 0.0001527 -0.0003402 0.0002765 -0.0004138 0.0003041 -0.0006422 0.0002728 -0.0002912 0.0005668 -0.0006760
-0.0030492 0.0090357 0.0002824 -0.0001437 0.0003723 -0.0004980 0.0003257 -0.0008728 -0.0000094 0.0000681 0.0001733 -0.0002638 0.0002956 -0.0003298 0.0002982 -0.0005527 0.0002708 -0.0001958 0.0005800 -0.0004195
-0.0003320 0.0018748 0.0002874 -0.0000788 0.0003755 -0.0004213 0.0003469 -0.0008349 0.0000097 0.0000724 0.0001818 -0.0002731 0.0002938 -0.0003672 0.0002834 -0.0006001 0.0002628 -0.0002316 0.0005504 -0.0005458
0.0083014 -0.0210710 0.0002871 -0.0001812 0.0003750 -0.0005571 0.0003488 -0.0009951 0.0000088 0.0000364 0.0001885 -0.0003904 0.0003011 -0.0005163 0.0002918 -0.0007147 0.0002627 -0.0003543 0.0005370 -0.0008606
0.0063846 -0.0165026 0.0002998 -0.0002868 0.0003909 -0.0007428 0.0003607 -0.0011658 0.0000182 0.0000201 0.0002122 -0.0004321 0.0003180 -0.0005489 0.0003112 -0.0006920 0.0002734 -0.0003439 0.0005752 -0.0008242
0.0006342 -0.0013478 0.0003039 -0.0001932 0.0004098 -0.0007130 0.0003864 -0.0011245 0.0000682 0.0000920 0.0002455 -0.0003380 0.0003436 -0.0004548 0.0003297 -0.0005661 0.0002750 -0.0002335 0.0005768 -0.0005826
-0.0004464 0.0017665 0.0003051 -0.0000599 0.0004120 -0.0005944 0.0003873 -0.0009985 0.0000865 0.0002229 0.0002601 -0.0002108 0.0003495 -0.0003121 0.0003326 -0.0003883 0.0002628 -0.0000847 0.0005906 -0.0004084
0.0034319 -0.0081250 0.0002923 -0.0000561 0.0003999 -0.0005719 0.0003744 -0.0010059 0.0000753 0.0002459 0.0002472 -0.0002580 0.0003254 -0.0003859 0.0003078 -0.0004353 0.0002444 -0.0001390 0.0005935 -0.0006460
0.0017648 -0.0036299 0.0002752 -0.0002112 0.0003807 -0.0007434 0.0003493 -0.0012041 0.0000731 0.0001344 0.0002337 -0.0004113 0.0003091 -0.0006091 0.0002898 -0.0006079 0.0002321 -0.0002942 0.0005493 -0.0008878
-0.0035143 0.0100274 0.0002693 -0.0002803 0.0003821 -0.0008617 0.0003467 -0.0012958 0.0000762 0.0000911 0.0002422 -0.0004304 0.0003309 -0.0006742 0.0002883 -0.0006043 0.0002356 -0.0002786 0.0005362 -0.0007918
-0.0033147 0.0095989 0.0002840 -0.0002184 0.0004017 -0.0007937 0.0003794 -0.0012032 0.0000869 0.0000934 0.0002541 -0.0003666 0.0003463 -0.0005938 0.0002877 -0.0004972 0.0002407 -0.0001690 0.0005607 -0.0005812
0.0034033 -0.0081457 0.0003057 -0.0001091 0.0004058 -0.0006486 0.0003928 -0.0010446 0.0000809 0.0001149 0.0002567 -0.0003110 0.0003373 -0.0005203 0.0002912 -0.0004520 0.0002373 -0.0001449 0.0005439 -0.0006006
0.0063004 -0.0159857 0.0002890 -0.0001734 0.0003978 -0.0006923 0.0003858 -0.0011039 0.0000751 0.0000590 0.0002511 -0.0003754 0.0003239 -0.0005918 0.0002958 -0.0005191 0.0002351 -0.0002426 0.0005191 -0.0008288
-0.0019340 0.0056257 0.0002782 -0.0003309 0.0003999 -0.0008523 0.0003933 -0.0012904 0.0000806 -0.0000158 0.0002542 -0.0004336 0.0003344 -0.0006551 0.0003037 -0.0005261 0.0002445 -0.0002689 0.0005604 -0.0008353
-0.0046403 0.0127934 0.0002782 -0.0002884 0.0004177 -0.0008384 0.0004012 -0.0012510 0.0000881 0.0000006 0.0002634 -0.0003751 0.0003589 -0.0006101 0.0002941 -0.0004655 0.0002539 -0.0001888 0.0006015 -0.0005735
0.0012545 -0.0023748 0.0002881 -0.0001521 0.0004236 -0.0007215 0.0003930 -0.0011604 0.0000869 0.0001895 0.0002599 -0.0003296 0.0003818 -0.0004659 0.0002904 -0.0002437 0.0002752 -0.0000086 0.0006319 -0.0001728
0.0075306 -0.0185253 0.0003084 -0.0000224 0.0003859 -0.0007799 0.0003993 -0.0010619 0.0001845 0.0006188 0.0002760 -0.0002631 0.0003919 -0.0003059 0.0003280 -0.0000187 0.0002754 -0.0000027 0.0006477 -0.0002451
0.0040877 -0.0093483 0.0003068 -0.0000873 0.0003256 -0.0011034 0.0003613 -0.0012716 0.0002128 0.0006050 0.0002404 -0.0004097 0.0003451 -0.0003739 0.0003525 -0.0000173 0.0002590 -0.0001551 0.0006366 -0.0004996
-0.0010692 0.0040924 0.0002985 -0.0002118 0.0003008 -0.0013055 0.0003203 -0.0015401 0.0001437 0.0003634 0.0001913 -0.0005718 0.0003079 -0.0004602 0.0003441 -0.0000049 0.0002657 -0.0001392 0.0006058 -0.0003537
-0.0010016 0.0039502 0.0003198 -0.0001706 0.0003125 -0.0012222 0.0003490 -0.0014254 0.0001421 0.0004127 0.0002040 -0.0004612 0.0003002 -0.0003134 0.0003400 0.0001175 0.0002682 -0.0000200 0.0006328 -0.0001323
0.0013004 -0.0018003 0.0003153 -0.0000143 0.0003157 -0.0010482 0.0003619 -0.0012424 0.0001500 0.0004893 0.0002121 -0.0003180 0.0002798 -0.0000842 0.0003533 0.0002682 0.0002494 0.0000538 0.0006650 -0.0001149
0.0053901 -0.0127529 0.0002914 -0.0000442 0.0003135 -0.0010138 0.0003466 -0.0012150 0.0001314 0.0004401 0.0001843 -0.0003841 0.0002260 -0.0001379 0.0003488 0.0002217 0.0002083 -0.0000620 0.0006162 -0.0003029
0.0171867 -0.0440479 0.0002863 -0.0002338 0.0003466 -0.0009329 0.0003764 -0.0011907 0.0000576 0.0001788 0.0001453 -0.0005402 0.0002056 -0.0003272 0.0003212 0.0000842 0.0001864 -0.0001613 0.0005733 -0.0003655
-0.0010063 0.0043917 0.0002759 -0.0002448 0.0003836 -0.0007629 0.0004122 -0.0010650 0.0000314 0.0000574 0.0001514 -0.0004801 0.0002328 -0.0002711 0.0002914 0.0000856 0.0001914 -0.0000782 0.0005827 -0.0002071
-0.0037608 0.0118136 0.0002680 -0.0001299 0.0003800 -0.0006645 0.0003903 -0.0009406 0.0000474 0.0001889 0.0001708 -0.0003298 0.0002453 -0.0001060 0.0002677 0.0001688 0.0001863 0.0000358 0.0005795 -0.0001056
-0.0029300 0.0094944 0.0002550 -0.0001176 0.0003566 -0.0006662 0.0003656 -0.0009348 0.0000614 0.0002443 0.0001631 -0.0003311 0.0002314 -0.0001476 0.0002517 0.0001009 0.0001716 -0.0000156 0.0005410 -0.0003087
-0.0040341 0.0120153 0.0002453 -0.0002255 0.0003342 -0.0008233 0.0003406 -0.0010790 0.0000740 0.0002144 0.0001487 -0.0004205 0.0002161 -0.0003002 0.0002390 -0.0000300 0.0001672 -0.0001174 0.0005301 -0.0004777
-0.0032582 0.0098364 0.0002523 -0.0002528 0.0003272 -0.0008979 0.0003396 -0.0011225 0.0000775 0.0002557 0.0001482 -0.0003871 0.0002273 -0.0002639 0.0002363 -0.0000005 0.0001743 -0.0000793 0.0005038 -0.0003242
-0.0036038 0.0109492 0.0002596 -0.0001569 0.0003265 -0.0008116 0.0003504 -0.0010136 0.0000790 0.0003291 0.0001468 -0.0002903 0.0002331 -0.0001298 0.0002362 0.0001020 0.0001737 -0.0000026 0.0004928 -0.0001824
0.0028769 -0.0059692 0.0002590 -0.0001566 0.0003247 -0.0007849 0.0003431 -0.0009561 0.0000834 0.0003038 0.0001297 -0.0003284 0.0002177 -0.0001513 0.0002368 0.0000579 0.0001591 -0.0001023 0.0004918 -0.0004391
0.0037325 -0.0082825 0.0002564 -0.0003263 0.0003297 -0.0009163 0.0003489 -0.0010855 0.0000950 0.0001827 0.0001242 -0.0004373 0.0002139 -0.0002278 0.0002602 -0.0000496 0.0001588 -0.0002738 0.0004658 -0.0006979
0.0007956 -0.0007661 0.0002674 -0.0003956 0.0003512 -0.0009822 0.0003928 -0.0011252 0.0001133 0.0001710 0.0001397 -0.0004220 0.0002339 -0.0001654 0.0002923 -0.0000187 0.0001755 -0.0002847 0.0005093 -0.0006605
0.0005217 0.0000640 0.0002942 -0.0003302 0.0003829 -0.0008923 0.0004378 -0.0009900 0.0001201 0.0002153 0.0001500 -0.0003503 0.0002557 -0.0001093 0.0002951 0.0000343 0.0001886 -0.0002151 0.0005430 -0.0005643
-0.0004962 0.0027568 0.0003003 -0.0003502 0.0004016 -0.0008576 0.0004509 -0.0009528 0.0001261 0.0001804 0.0001581 -0.0003681 0.0002625 -0.0001718 0.0003023 -0.0000533 0.0001865 -0.0003004 0.0005507 -0.0007721
0.0000765 0.0009249 0.0002958 -0.0005051 0.0004222 -0.0009851 0.0004648 -0.0010999 0.0001331 0.0000553 0.0001686 -0.0004879 0.0002719 -0.0003406 0.0003228 -0.0002345 0.0001921 -0.0004851 0.0005970 -0.0011023
0.0030887 -0.0071003 0.0003138 -0.0005945 0.0004549 -0.0011039 0.0004956 -0.0012061 0.0001357 0.0000018 0.0001887 -0.0005241 0.0003069 -0.0003981 0.0003434 -0.0002708 0.0002159 -0.0005037 0.0006134 -0.0010428
0.0031211 -0.0068722 0.0003402 -0.0005435 0.0004838 -0.0010606 0.0005498 -0.0011631 0.0001413 0.0000545 0.0002162 -0.0004510 0.0003352 -0.0003183 0.0003652 -0.0001922 0.0002290 -0.0004217 0.0006563 -0.0008676
0.0029631 -0.0062809 0.0003497 -0.0005088 0.0005026 -0.0009963 0.0005873 -0.0011180 0.0001517 0.0000439 0.0002353 -0.0004467 0.0003547 -0.0003094 0.0003847 -0.0002052 0.0002296 -0.0004535 0.0007080 -0.0010435
0.0050786 -0.0123187 0.0003491 -0.0006105 0.0005162 -0.0010859 0.0006089 -0.0012168 0.0001478 -0.0000024 0.0002507 -0.0005290 0.0003669 -0.0003600 0.0004161 -0.0002602 0.0002363 -0.0005654 0.0007372 -0.0012974
-0.0010450 0.0036798 0.0003504 -0.0006635 0.0005412 -0.0011534 0.0006610 -0.0012792 0.0001570 0.0000110 0.0002828 -0.0005248 0.0003868 -0.0002821 0.0004593 -0.0001793 0.0002487 -0.0005685 0.0007824 -0.0012135
-0.0012179 0.0044145 0.0003621 -0.0005657 0.0005748 -0.0010436 0.0007096 -0.0011531 0.0002061 0.0001153 0.0003327 -0.0004049 0.0004245 -0.0001212 0.0005052 -0.0000280 0.0002551 -0.0004788 0.0008124 -0.0010427
0.0053051 -0.0126855 0.0003734 -0.0005098 0.0006002 -0.0009392 0.0007318 -0.0010838 0.0002090 0.0001472 0.0003567 -0.0003934 0.0004444 -0.0001396 0.0005185 -0.0000514 0.0002562 -0.0005039 0.0008100 -0.0011604
-0.0011464 0.0043094 0.0003809 -0.0005997 0.0006106 -0.0010213 0.0007421 -0.0012072 0.0002122 0.0000716 0.0003637 -0.0004973 0.0004493 -0.0002632 0.0005175 -0.0001740 0.0002633 -0.0006176 0.0008000 -0.0013744
-0.0030508 0.0091651 0.0003947 -0.0006677 0.0006218 -0.0011057 0.0007626 -0.0013296 0.0002338 0.0000347 0.0003784 -0.0005522 0.0004708 -0.0002678 0.0005078 -0.0001982 0.0002799 -0.0006129 0.0008324 -0.0012457
-0.0010422 0.0039999 0.0003954 -0.0005842 0.0006232 -0.0011118 0.0007735 -0.0013462 0.0002637 0.0001511 0.0004044 -0.0005081 0.0005105 -0.0001125 0.0005377 -0.0000174 0.0002919 -0.0005057 0.0008563 -0.0010397
-0.0006207 0.0030925 0.0003844 -0.0005988 0.0006131 -0.0012168 0.0007650 -0.0014023 0.0002904 0.0001861 0.0004141 -0.0005525 0.0005232 -0.0001716 0.0005777 0.0000319 0.0002940 -0.0005474 0.0008622 -0.0011926
0.0008314 -0.0012285 0.0003802 -0.0007565 0.0006142 -0.0014013 0.0007649 -0.0015707 0.0002666 0.0000579 0.0004099 -0.0007115 0.0005225 -0.0003974 0.0005817 -0.0001190 0.0002987 -0.0006918 0.0009054 -0.0013923
0.0083097 -0.0210541 0.0003733 -0.0007878 0.0006346 -0.0014949 0.0007930 -0.0016636 0.0002744 0.0000308 0.0004443 -0.0007251 0.0005584 -0.0004126 0.0005988 -0.0001059 0.0003159 -0.0006736 0.0009182 -0.0012204
0.0131131 -0.0334261 0.0003746 -0.0006979 0.0006606 -0.0014234 0.0008302 -0.0015535 0.0002981 0.0000801 0.0004874 -0.0006346 0.0005800 -0.0003225 0.0006096 -0.0000189 0.0003282 -0.0005808 0.0008983 -0.0010287
0.0078238 -0.0194981 0.0003918 -0.0006980 0.0006718 -0.0013964 0.0008557 -0.0015151 0.0003116 0.0000811 0.0005070 -0.0006542 0.0005724 -0.0003277 0.0006187 -0.0000162 0.0003266 -0.0006246 0.0008768 -0.0011904
-0.0019514 0.0059586 0.0003896 -0.0007948 0.0006736 -0.0015388 0.0008864 -0.0016939 0.0003475 0.0000050 0.0005200 -0.0007758 0.0005695 -0.0004145 0.0006393 -0.0000765 0.0003298 -0.0007460 0.0008766 -0.0013761
-0.0045550 0.0126681 0.0003962 -0.0008253 0.0006869 -0.0016395 0.0009204 -0.0017843 0.0003871 -0.0000199 0.0005478 -0.0008028 0.0005761 -0.0003910 0.0006570 -0.0000362 0.0003378 -0.0007321 0.0009119 -0.0012711
0.0007434 -0.0008589 0.0004170 -0.0007397 0.0006970 -0.0015763 0.0009431 -0.0017164 0.0003803 0.0000436 0.0005673 -0.0007599 0.0005836 -0.0003057 0.0006525 0.0000622 0.0003398 -0.0006333 0.0009118 -0.0010501
0.0006983 -0.0003690 0.0004084 -0.0005859 0.0006766 -0.0014757 0.0009318 -0.0016267 0.0003706 0.0000983 0.0005640 -0.0007489 0.0005670 -0.0002995 0.0006183 0.0000273 0.0003227 -0.0006249 0.0008556 -0.0011283
-0.0021805 0.0070901 0.0003873 -0.0006077 0.0006373 -0.0015946 0.0008939 -0.0017806 0.0003722 0.0000485 0.0005437 -0.0008621 0.0005387 -0.0004692 0.0005762 -0.0001320 0.0003018 -0.0007200 0.0007832 -0.0014267
-0.0024632 0.0076119 0.0003889 -0.0007129 0.0006115 -0.0018236 0.0008702 -0.0020288 0.0003469 -0.0000611 0.0005124 -0.0010398 0.0005231 -0.0007650 0.0004948 -0.0003417 0.0002944 -0.0007760 0.0007229 -0.0015186
0.0029144 -0.0061719 0.0004208 -0.0006343 0.0005883 -0.0019106 0.0008635 -0.0020477 0.0003213 -0.0000731 0.0004889 -0.0011229 0.0005157 -0.0010152 0.0003798 -0.0005175 0.0002868 -0.0007317 0.0006913 -0.0014501
0.0014601 -0.0017185 0.0004322 -0.0004562 0.0005625 -0.0018643 0.0008519 -0.0019249 0.0003082 -0.0000353 0.0004777 -0.0010928 0.0005030 -0.0010249 0.0003291 -0.0005132 0.0002737 -0.0006344 0.0006739 -0.0013187
-0.0028168 0.0095443 0.0004139 -0.0004046 0.0005443 -0.0018339 0.0008496 -0.0019057 0.0003133 -0.0001105 0.0004578 -0.0011582 0.0004760 -0.0010846 0.0003020 -0.0005661 0.0002648 -0.0006643 0.0006438 -0.0013413
0.0011609 -0.0013392 0.0004078 -0.0005010 0.0005292 -0.0019278 0.0008496 -0.0020392 0.0003239 -0.0002034 0.0004481 -0.0012476 0.0004646 -0.0011705 0.0003047 -0.0005953 0.0002762 -0.0006989 0.0006572 -0.0013139
0.0047588 -0.0108977 0.0004106 -0.0004677 0.0005392 -0.0019055 0.0008666 -0.0020071 0.0003337 -0.0002088 0.0004605 -0.0011844 0.0004601 -0.0010275 0.0003409 -0.0004364 0.0002858 -0.0006092 0.0006687 -0.0010276
0.0036492 -0.0077324 0.0003988 -0.0003386 0.0005447 -0.0017670 0.0008848 -0.0018935 0.0003380 -0.0001644 0.0004639 -0.0010775 0.0004515 -0.0008569 0.0003454 -0.0002536 0.0002800 -0.0004640 0.0006783 -0.0006566
0.0059282 -0.0132751 0.0003817 -0.0002451 0.0005297 -0.0016296 0.0008650 -0.0018207 0.0003464 -0.0001167 0.0004590 -0.0010386 0.0004480 -0.0008683 0.0003204 -0.0002684 0.0002670 -0.0004493 0.0006579 -0.0006839
0.0092418 -0.0221017 0.0003571 -0.0003219 0.0005037 -0.0017042 0.0008202 -0.0019591 0.0003253 -0.0001794 0.0004383 -0.0011291 0.0004355 -0.0009815 0.0003084 -0.0003767 0.0002583 -0.0005295 0.0006075 -0.0008436
0.0092295 -0.0224907 0.0003340 -0.0004201 0.0004851 -0.0018511 0.0007986 -0.0021192 0.0003193 -0.0002491 0.0004232 -0.0011670 0.0004307 -0.0009321 0.0003317 -0.0002979 0.0002577 -0.0004984 0.0005914 -0.0006280
0.0046201 -0.0102089 0.0003382 -0.0003760 0.0004824 -0.0017758 0.0007964 -0.0020296 0.0003305 -0.0002215 0.0004276 -0.0010769 0.0004302 -0.0007117 0.0003558 -0.0000936 0.0002512 -0.0003815 0.0005935 -0.0002896
0.0034067 -0.0065330 0.0003327 -0.0002582 0.0004725 -0.0016007 0.0007823 -0.0018384 0.0003113 -0.0001483 0.0004324 -0.0009592 0.0004287 -0.0005062 0.0003669 0.0000423 0.0002377 -0.0003105 0.0005720 -0.0002031
0.0011347 -0.0006063 0.0003107 -0.0002844 0.0004484 -0.0016036 0.0007675 -0.0018892 0.0003056 -0.0002071 0.0004192 -0.0009850 0.0004075 -0.0005184 0.0003633 0.0000106 0.0002270 -0.0003473 0.0005383 -0.0003089
-0.0039397 0.0122369 0.0002902 -0.0004134 0.0004271 -0.0017035 0.0007477 -0.0020504 0.0002913 -0.0003105 0.0003969 -0.0010550 0.0003724 -0.0005357 0.0003613 0.0000210 0.0002220 -0.0003237 0.0005501 -0.0001790
-0.0002728 0.0023895 0.0002701 -0.0003815 0.0004157 -0.0016088 0.0007330 -0.0019663 0.0002939 -0.0002637 0.0003941 -0.0009614 0.0003589 -0.0003496 0.0003784 0.0002006 0.0002166 -0.0001778 0.0005664 0.0001523
0.0042033 -0.0092468 0.0002527 -0.0002298 0.0003985 -0.0014054 0.0007212 -0.0017801 0.0002998 -0.0001711 0.0003787 -0.0008503 0.0003511 -0.0002243 0.0003627 0.0002995 0.0002012 -0.0000636 0.0005240 0.0003171
0.0007805 -0.0002748 0.0002231 -0.0002030 0.0003768 -0.0013613 0.0006796 -0.0018468 0.0002526 -0.0003451 0.0002997 -0.0010960 0.0002876 -0.0005913 0.0002801 0.0000149 0.0001769 -0.0001885 0.0004874 0.0001214
0.0038960 -0.0084315 0.0001757 -0.0003792 0.0003698 -0.0014476 0.0006559 -0.0020434 0.0002054 -0.0006687 0.0002718 -0.0012748 0.0002703 -0.0009649 0.0002288 -0.0002454 0.0001847 -0.0002699 0.0004819 0.0000393
-0.0007887 0.0039702 0.0001780 -0.0004339 0.0003825 -0.0013738 0.0006761 -0.0019607 0.0002064 -0.0007206 0.0003346 -0.0010303 0.0003505 -0.0009243 0.0002381 -0.0001997 0.0002171 -0.0001184 0.0004554 0.0002923
0.0000905 0.0017912 0.0001896 -0.0003019 0.0003910 -0.0011685 0.0007045 -0.0017143 0.0002079 -0.0006410 0.0003683 -0.0008004 0.0003925 -0.0007612 0.0002472 -0.0000767 0.0002293 0.0000193 0.0004235 0.0004507
0.0030948 -0.0060561 0.0001676 -0.0002654 0.0003801 -0.0010883 0.0007086 -0.0016100 0.0002076 -0.0006409 0.0003773 -0.0007501 0.0003981 -0.0006892 0.0002570 -0.0000582 0.0002299 -0.0000074 0.0003724 0.0003334
-0.0008914 0.0038974 0.0001657 -0.0003613 0.0003647 -0.0011584 0.0007042 -0.0016961 0.0002247 -0.0006880 0.0003773 -0.0007991 0.0004000 -0.0007498 0.0002596 -0.0001642 0.0002393 -0.0000746 0.0003647 0.0002211
0.0039251 -0.0087092 0.0001844 -0.0003123 0.0003440 -0.0011908 0.0007028 -0.0017316 0.0002121 -0.0007434 0.0003556 -0.0008112 0.0004088 -0.0008899 0.0001736 -0.0002727 0.0002457 -0.0000297 0.0003397 0.0003058
0.0085972 -0.0207296 0.0001922 -0.0001574 0.0002953 -0.0011911 0.0006503 -0.0017172 0.0001413 -0.0008529 0.0003055 -0.0008376 0.0004218 -0.0011428 0.0000307 -0.0003542 0.0002350 0.0000929 0.0002673 0.0003862
0.0037902 -0.0081858 0.0001577 -0.0001762 0.0002671 -0.0012052 0.0006293 -0.0017108 0.0000860 -0.0009690 0.0002813 -0.0008868 0.0004008 -0.0012699 0.0000096 -0.0003824 0.0002366 0.0000990 0.0002901 0.0001931
0.0087319 -0.0210108 0.0001511 -0.0002630 0.0002592 -0.0013088 0.0006377 -0.0018108 0.0001234 -0.0008771 0.0003000 -0.0008741 0.0003946 -0.0011174 0.0001117 -0.0002465 0.0002656 0.0001014 0.0003661 0.0001258
0.0030507 -0.0055875 0.0001703 -0.0001908 0.0002542 -0.0013051 0.0006307 -0.0018793 0.0001539 -0.0007871 0.0002957 -0.0008239 0.0003768 -0.0008326 0.0002145 -0.0000009 0.0002763 0.0002475 0.0004376 0.0003479
-0.0005470 0.0040421 0.0001569 -0.0000751 0.0002490 -0.0011245 0.0006042 -0.0017665 0.0001565 -0.0007306 0.0002916 -0.0007075 0.0003372 -0.0005575 0.0002717 0.0002024 0.0002533 0.0003786 0.0004750 0.0004973
0.0101297 -0.0242616 0.0001320 -0.0001108 0.0002217 -0.0010411 0.0005670 -0.0017158 0.0001832 -0.0005859 0.0002952 -0.0006308 0.0003235 -0.0004767 0.0002887 0.0002266 0.0002238 0.0003688 0.0004794 0.0003986
0.0113953 -0.0277620 0.0001232 -0.0002285 0.0001961 -0.0010689 0.0005358 -0.0017892 0.0001761 -0.0005787 0.0002653 -0.0007003 0.0002903 -0.0005678 0.0002850 0.0001531 0.0001972 0.0003104 0.0004921 0.0002671
0.0041318 -0.0083415 0.0001282 -0.0002316 0.0001873 -0.0009914 0.0005134 -0.0017303 0.0001186 -0.0007054 0.0002200 -0.0007317 0.0002442 -0.0006438 0.0002436 0.0000919 0.0001717 0.0003578 0.0004368 0.0003653
0.0047863 -0.0098203 0.0001277 -0.0001484 0.0002099 -0.0006778 0.0005283 -0.0014454 0.0000348 -0.0009173 0.0001787 -0.0007246 0.0002216 -0.0007519 0.0001604 -0.0000844 0.0001527 0.0003728 0.0003768 0.0003103
0.0039192 -0.0076822 0.0001136 -0.0001625 0.0002193 -0.0005047 0.0005268 -0.0013334 -0.0000163 -0.0010838 0.0001469 -0.0008093 0.0002167 -0.0010236 0.0000695 -0.0003826 0.0001416 0.0002877 0.0003122 0.0000809
0.0016170 -0.0018223 0.0001028 -0.0002219 0.0002066 -0.0005320 0.0005051 -0.0013901 -0.0000490 -0.0012027 0.0001222 -0.0009186 0.0002202 -0.0013014 -0.0000122 -0.0006457 0.0001488 0.0002309 0.0002511 0.0000854
0.0012155 -0.0008643 0.0001113 -0.0002169 0.0001972 -0.0004890 0.0004914 -0.0013060 -0.0000513 -0.0011501 0.0001291 -0.0008268 0.0002371 -0.0012684 -0.0000245 -0.0006176 0.0001697 0.0003228 0.0002331 0.0003546
0.0026515 -0.0043085 0.0001033 -0.0001465 0.0001967 -0.0003344 0.0005049 -0.0010328 -0.0000016 -0.0009346 0.0001676 -0.0006067 0.0002427 -0.0010103 0.0000220 -0.0004725 0.0001665 0.0003436 0.0002199 0.0003889
0.0055943 -0.0119006 0.0000794 -0.0002210 0.0001876 -0.0003428 0.0005232 -0.0009739 0.0000533 -0.0007700 0.0002089 -0.0005087 0.0002635 -0.0008515 0.0000814 -0.0004112 0.0001602 0.0002632 0.0002554 0.0001705
0.0005169 0.0008561 0.0000828 -0.0003879 0.0001750 -0.0005193 0.0005193 -0.0011322 0.0001001 -0.0006771 0.0002287 -0.0005249 0.0002946 -0.0008536 0.0001407 -0.0003687 0.0001629 0.0002152 0.0003011 0.0001200
-0.0053630 0.0159435 0.0001147 -0.0004023 0.0001776 -0.0005856 0.0005166 -0.0011686 0.0001248 -0.0005515 0.0002247 -0.0005094 0.0003188 -0.0007977 0.0001781 -0.0002700 0.0001675 0.0002379 0.0003391 0.0002220
-0.0058263 0.0176379 0.0001532 -0.0002644 0.0001614 -0.0006147 0.0004899 -0.0011414 0.0001481 -0.0003273 0.0002015 -0.0005142 0.0003155 -0.0007450 0.0002144 -0.0001620 0.0001676 0.0002458 0.0003501 0.0001803
0.0027754 -0.0051415 0.0001620 -0.0002137 0.0001268 -0.0007858 0.0004389 -0.0012799 0.0001671 -0.0002350 0.0001742 -0.0006014 0.0003088 -0.0007570 0.0002500 -0.0001112 0.0001578 0.0001557 0.0003513 -0.0000221
0.0050257 -0.0115005 0.0001679 -0.0003230 0.0001055 -0.0010162 0.0004149 -0.0015175 0.0001902 -0.0002215 0.0001695 -0.0006607 0.0003257 -0.0007574 0.0002810 -0.0000695 0.0001605 0.0001268 0.0003674 -0.0000382
-0.0005167 0.0035878 0.0001904 -0.0003233 0.0001111 -0.0010522 0.0004263 -0.0015150 0.0001993 -0.0001901 0.0001718 -0.0006408 0.0003224 -0.0006365 0.0003093 0.0000484 0.0001712 0.0002065 0.0004313 0.0001037
-0.0034685 0.0117744 0.0001948 -0.0002327 0.0001232 -0.0009561 0.0004468 -0.0013761 0.0001857 -0.0001968 0.0001728 -0.0005799 0.0003097 -0.0004464 0.0003284 0.0001646 0.0001646 0.0002688 0.0004743 0.0001115
-0.0052604 0.0164696 0.0001779 -0.0002302 0.0001254 -0.0009500 0.0004571 -0.0013540 0.0001829 -0.0002229 0.0001773 -0.0005972 0.0002928 -0.0003534 0.0003562 0.0002003 0.0001489 0.0001995 0.0004816 -0.0000856
-0.0026269 0.0094023 0.0001740 -0.0003359 0.0001213 -0.0010939 0.0004514 -0.0014986 0.0001892 -0.0002337 0.0001846 -0.0006815 0.0002783 -0.0002884 0.0004038 0.0002793 0.0001442 0.0001229 0.0005057 -0.0001228
-0.0009223 0.0047468 0.0001797 -0.0003401 0.0001203 -0.0011698 0.0004467 -0.0015206 0.0002226 -0.0001281 0.0001997 -0.0006487 0.0002861 -0.0000875 0.0004515 0.0004865 0.0001413 0.0001864 0.0005380 0.0001161
0.0001714 0.0020857 0.0001717 -0.0002311 0.0001103 -0.0011205 0.0004408 -0.0014200 0.0002578 0.0000529 0.0002194 -0.0005170 0.0002969 0.0001555 0.0004779 0.0007165 0.0001284 0.0003166 0.0005701 0.0004095
0.0054548 -0.0113365 0.0001543 -0.0001623 0.0000872 -0.0010837 0.0004144 -0.0013774 0.0002826 0.0001900 0.0002241 -0.0004618 0.0002985 0.0002281 0.0004781 0.0007779 0.0001050 0.0003231 0.0005513 0.0003794
0.0086938 -0.0200372 0.0001331 -0.0002335 0.0000634 -0.0011787 0.0003758 -0.0014473 0.0002893 0.0002093 0.0002149 -0.0005117 0.0002928 0.0001836 0.0004786 0.0007465 0.0000885 0.0002479 0.0005404 0.0001555
0.0039759 -0.0077965 0.0001232 -0.0002792 0.0000560 -0.0012553 0.0003680 -0.0014655 0.0002898 0.0002000 0.0002161 -0.0004970 0.0002898 0.0002244 0.0004897 0.0007931 0.0000832 0.0002623 0.0005784 0.0002054
-0.0031564 0.0114498 0.0001343 -0.0001911 0.0000620 -0.0011780 0.0003775 -0.0013618 0.0002883 0.0002274 0.0002191 -0.0004307 0.0002856 0.0003382 0.0004934 0.0008907 0.0000729 0.0003297 0.0005575 0.0004241
-0.0021712 0.0090242 0.0001449 -0.0000957 0.0000541 -0.0010843 0.0003516 -0.0012623 0.0002644 0.0002293 0.0002075 -0.0004407 0.0002757 0.0003303 0.0004643 0.0008435 0.0000560 0.0003088 0.0004780 0.0003865
0.0031624 -0.0053970 0.0001264 -0.0001438 0.0000350 -0.0011776 0.0003071 -0.0013416 0.0002492 0.0001139 0.0001804 -0.0005696 0.0002550 0.0001034 0.0004175 0.0006525 0.0000456 0.0001989 0.0004806 0.0001462
0.0008358 0.0006949 0.0001197 -0.0002298 0.0000251 -0.0013241 0.0002934 -0.0014405 0.0002280 0.0000283 0.0001646 -0.0006223 0.0002488 -0.0000264 0.0003985 0.0005765 0.0000548 0.0002032 0.0005009 0.0001670
0.0032741 -0.0054419 0.0001361 -0.0001693 0.0000258 -0.0012872 0.0003035 -0.0013772 0.0002156 0.0000570 0.0001660 -0.0005440 0.0002711 0.0000634 0.0003986 0.0006635 0.0000602 0.0003169 0.0005019 0.0003877
0.0026936 -0.0036566 0.0001353 -0.0000325 0.0000193 -0.0011528 0.0002720 -0.0012204 0.0002126 0.0001275 0.0001587 -0.0004836 0.0002758 0.0001381 0.0003999 0.0007237 0.0000491 0.0003691 0.0004800 0.0003941
-0.0018197 0.0080961 0.0001076 -0.0000880 0.0000040 -0.0011998 0.0002217 -0.0012704 0.0001851 0.0000477 0.0001320 -0.0005970 0.0002603 -0.0000760 0.0003715 0.0005260 0.0000361 0.0002430 0.0004164 0.0000927
-0.0029271 0.0106485 0.0000943 -0.0002578 -0.0000008 -0.0014066 0.0002097 -0.0015301 0.0001417 -0.0001189 0.0001041 -0.0007933 0.0002445 -0.0003669 0.0003313 0.0003008 0.0000377 0.0001268 0.0004285 -0.0001063
0.0009809 0.0005557 0.0001036 -0.0002938 0.0000154 -0.0014394 0.0002297 -0.0015430 0.0001402 -0.0001876 0.0001146 -0.0007830 0.0002674 -0.0003668 0.0003288 0.0003216 0.0000488 0.0001794 0.0004562 0.0000227
0.0031203 -0.0046668 0.0001112 -0.0002239 0.0000309 -0.0013339 0.0002375 -0.0014136 0.0001570 -0.0001660 0.0001254 -0.0006953 0.0002865 -0.0003526 0.0003140 0.0003261 0.0000479 0.0002185 0.0004252 0.0000888
-0.0006057 0.0048482 0.0001045 -0.0002047 0.0000269 -0.0013525 0.0002228 -0.0014729 0.0001475 -0.0001730 0.0001161 -0.0007523 0.0002793 -0.0004667 0.0003074 0.0002321 0.0000442 0.0001437 0.0004034 -0.0001220
0.0003967 0.0019011 0.0001108 -0.0002991 0.0000204 -0.0014995 0.0002052 -0.0016376 0.0001553 -0.0002758 0.0001176 -0.0008515 0.0002934 -0.0005293 0.0003375 0.0002174 0.0000558 0.0000920 0.0003962 -0.0001538
0.0012174 -0.0002415 0.0001250 -0.0003094 0.0000303 -0.0015452 0.0002191 -0.0016706 0.0001458 -0.0002861 0.0001267 -0.0008502 0.0003086 -0.0004811 0.0003530 0.0002769 0.0000696 0.0001487 0.0004390 0.0000244
-0.0012888 0.0066774 0.0001335 -0.0002026 0.0000386 -0.0014670 0.0002497 -0.0015945 0.0001346 -0.0002407 0.0001353 -0.0007809 0.0003204 -0.0003558 0.0003650 0.0004211 0.0000689 0.0002844 0.0004618 0.0002897
0.0025556 -0.0030285 0.0001357 -0.0000847 0.0000327 -0.0013821 0.0002425 -0.0015170 0.0001232 -0.0002685 0.0001283 -0.0007905 0.0003149 -0.0004408 0.0003185 0.0002981 0.0000517 0.0002557 0.0004003 0.0001802
0.0068120 -0.0145500 0.0001239 -0.0001630 0.0000226 -0.0014936 0.0002246 -0.0016801 0.0000794 -0.0004421 0.0000994 -0.0009834 0.0002892 -0.0007361 0.0002800 0.0000579 0.0000467 0.0001091 0.0003636 -0.0001215
-0.0012456 0.0066526 0.0001138 -0.0002902 0.0000331 -0.0016271 0.0002353 -0.0018465 0.0000826 -0.0005835 0.0001145 -0.0010219 0.0002882 -0.0007313 0.0003164 0.0001039 0.0000585 0.0000981 0.0004002 -0.0000791
-0.0026049 0.0106800 0.0001269 -0.0002625 0.0000494 -0.0015766 0.0002525 -0.0017893 0.0000963 -0.0005523 0.0001502 -0.0008925 0.0003157 -0.0005728 0.0003421 0.0002295 0.0000607 0.0002102 0.0004228 0.0001363
0.0007161 0.0021360 0.0001320 -0.0001653 0.0000541 -0.0014303 0.0002522 -0.0016737 0.0000757 -0.0005021 0.0001606 -0.0007820 0.0003395 -0.0005253 0.0003208 0.0002581 0.0000507 0.0003373 0.0004058 0.0002622
-0.0007427 0.0056012 0.0001187 -0.0001515 0.0000567 -0.0013408 0.0002267 -0.0016558 0.0000618 -0.0005374 0.0001589 -0.0007865 0.0003533 -0.0006820 0.0002864 0.0001554 0.0000334 0.0003158 0.0003861 0.0001242
0.0043633 -0.0083450 0.0001064 -0.0002458 0.0000568 -0.0014025 0.0002102 -0.0017796 0.0000775 -0.0005869 0.0001587 -0.0008728 0.0003700 -0.0009213 0.0002711 0.0000199 0.0000246 0.0002475 0.0003739 0.0000113
0.0002273 0.0024271 0.0000985 -0.0002664 0.0000706 -0.0014006 0.0002309 -0.0017994 0.0001090 -0.0005516 0.0001805 -0.0008383 0.0004002 -0.0009502 0.0002604 -0.0000008 0.0000303 0.0002985 0.0003273 0.0001811
-0.0007498 0.0051258 0.0001124 -0.0001579 0.0000887 -0.0012586 0.0002550 -0.0016415 0.0001033 -0.0005255 0.0001816 -0.0007955 0.0004076 -0.0009169 0.0002403 0.0000518 0.0000384 0.0004017 0.0002847 0.0003308
0.0073284 -0.0158970 0.0001089 -0.0001023 0.0000824 -0.0012251 0.0002425 -0.0016022 0.0000840 -0.0005642 0.0001651 -0.0008606 0.0003938 -0.0009966 0.0002228 -0.0000281 0.0000405 0.0003856 0.0002882 0.0001973
0.0064443 -0.0137762 0.0001017 -0.0001745 0.0000644 -0.0013660 0.0002126 -0.0017182 0.0000790 -0.0006202 0.0001525 -0.0009628 0.0003968 -0.0011991 0.0002025 -0.0001722 0.0000439 0.0003262 0.0002858 0.0000929
-0.0017850 0.0079147 0.0001165 -0.0001881 0.0000732 -0.0013816 0.0002201 -0.0017228 0.0000408 -0.0007328 0.0001355 -0.0009926 0.0003946 -0.0013282 0.0001488 -0.0002357 0.0000436 0.0003959 0.0002860 0.0002924
-0.0030356 0.0116341 0.0001237 -0.0000577 0.0000965 -0.0011393 0.0002259 -0.0015254 -0.0000174 -0.0008548 0.0001220 -0.0009116 0.0003730 -0.0012680 0.0000876 -0.0002115 0.0000361 0.0005565 0.0002493 0.0006142
0.0043181 -0.0077327 0.0001018 0.0000293 0.0001055 -0.0009199 0.0002080 -0.0013719 -0.0000415 -0.0009446 0.0001040 -0.0009351 0.0003473 -0.0013536 0.0000317 -0.0003393 0.0000263 0.0005166 0.0001922 0.0004935
0.0006780 0.0013749 0.0000631 -0.0001035 0.0000941 -0.0010044 0.0001910 -0.0015516 -0.0000669 -0.0009889 0.0000733 -0.0011606 0.0003336 -0.0016997 -0.0000099 -0.0005603 0.0000431 0.0003579 0.0001695 0.0002471
0.0024313 -0.0039020 0.0000398 -0.0002140 0.0000903 -0.0011512 0.0002083 -0.0016812 -0.0000465 -0.0008851 0.0000830 -0.0012075 0.0003501 -0.0017106 0.0000510 -0.0003890 0.0000700 0.0003807 0.0001873 0.0004019
0.0100900 -0.0240312 0.0000388 -0.0001590 0.0001072 -0.0010722 0.0002610 -0.0014953 -0.0000191 -0.0007619 0.0001136 -0.0010517 0.0003705 -0.0013681 0.0001426 -0.0000275 0.0000711 0.0004927 0.0002285 0.0006137
0.0091197 -0.0211829 0.0000404 -0.0001534 0.0001071 -0.0010098 0.0002689 -0.0014275 -0.0000118 -0.0007447 0.0001098 -0.0010594 0.0003642 -0.0012845 0.0001561 0.0000198 0.0000592 0.0004315 0.0002144 0.0005419
0.0085285 -0.0199229 0.0000260 -0.0002671 0.0000937 -0.0011360 0.0002496 -0.0015907 0.0000156 -0.0007904 0.0000995 -0.0011997 0.0003578 -0.0013696 0.0001601 -0.0000552 0.0000586 0.0002989 0.0002046 0.0004251
0.0009963 -0.0003503 0.0000289 -0.0003355 0.0001022 -0.0012039 0.0002583 -0.0016508 0.0000184 -0.0008039 0.0001036 -0.0012262 0.0003559 -0.0013146 0.0001685 0.0000020 0.0000647 0.0003207 0.0002590 0.0005586
0.0005680 0.0009602 0.0000464 -0.0002669 0.0001199 -0.0011068 0.0002796 -0.0015439 0.0000272 -0.0007612 0.0001106 -0.0011681 0.0003529 -0.0012365 0.0001663 0.0000489 0.0000575 0.0003408 0.0002552 0.0006064
-0.0029671 0.0104433 0.0000438 -0.0002832 0.0001282 -0.0011084 0.0002987 -0.0015872 0.0000237 -0.0008032 0.0001145 -0.0012338 0.0003519 -0.0013102 0.0001689 -0.0000246 0.0000541 0.0002506 0.0002422 0.0004139
-0.0057202 0.0174541 0.0000477 -0.0004160 0.0001428 -0.0012346 0.0003216 -0.0017414 0.0000263 -0.0008447 0.0001419 -0.0013050 0.0003738 -0.0013987 0.0001773 -0.0001000 0.0000605 0.0001525 0.0003233 0.0003042
-0.0022333 0.0079954 0.0000700 -0.0004414 0.0001783 -0.0012533 0.0003679 -0.0017830 0.0000370 -0.0008927 0.0001720 -0.0012829 0.0003962 -0.0014132 0.0001664 -0.0000997 0.0000803 0.0001931 0.0003628 0.0004376
-0.0019413 0.0074841 0.0000753 -0.0003542 0.0002115 -0.0011456 0.0004121 -0.0017060 0.0000250 -0.0010045 0.0001897 -0.0012396 0.0004097 -0.0013986 0.0001460 -0.0001157 0.0000964 0.0002437 0.0003630 0.0004382
0.0007620 0.0003379 0.0000710 -0.0003586 0.0002288 -0.0011362 0.0004289 -0.0017185 0.0000006 -0.0012114 0.0002082 -0.0012716 0.0004255 -0.0014672 0.0001471 -0.0002078 0.0001071 0.0001724 0.0003610 0.0002650
0.0024241 -0.0045489 0.0000855 -0.0004744 0.0002549 -0.0012179 0.0004629 -0.0018310 -0.0000131 -0.0013670 0.0002391 -0.0013246 0.0004476 -0.0014902 0.0001697 -0.0002262 0.0001299 0.0001420 0.0003683 0.0002904
0.0025910 -0.0047897 0.0001010 -0.0004626 0.0002821 -0.0011685 0.0005123 -0.0017947 -0.0000061 -0.0013423 0.0002685 -0.0012588 0.0004611 -0.0013656 0.0001828 -0.0001468 0.0001434 0.0002020 0.0004230 0.0003760
-0.0005598 0.0037451 0.0001002 -0.0003616 0.0002876 -0.0010619 0.0005238 -0.0017170 0.0000031 -0.0012770 0.0002729 -0.0011975 0.0004590 -0.0012920 0.0001836 -0.0001019 0.0001393 0.0002267 0.0004270 0.0003374
0.0003872 0.0010106 0.0000887 -0.0003928 0.0002766 -0.0010787 0.0005106 -0.0017295 0.0000119 -0.0012721 0.0002794 -0.0012430 0.0004511 -0.0012943 0.0001928 -0.0001274 0.0001358 0.0001420 0.0004211 0.0001815
0.0080570 -0.0194265 0.0000893 -0.0004998 0.0002760 -0.0011853 0.0005282 -0.0018206 0.0000193 -0.0013148 0.0003022 -0.0013117 0.0004580 -0.0013235 0.0001919 -0.0001908 0.0001379 0.0000439 0.0004782 0.0001166
0.0060752 -0.0140594 0.0000957 -0.0004794 0.0002954 -0.0011928 0.0005529 -0.0017801 0.0000390 -0.0012985 0.0003347 -0.0012461 0.0004867 -0.0011775 0.0002033 -0.0000971 0.0001455 0.0000853 0.0005545 0.0003177
-0.0004984 0.0035117 0.0000960 -0.0003594 0.0002995 -0.0010780 0.0005700 -0.0015877 0.0000461 -0.0012463 0.0003529 -0.0011302 0.0004820 -0.0009099 0.0002254 0.0000674 0.0001474 0.0001784 0.0006110 0.0004719
-0.0007896 0.0044386 0.0000943 -0.0003678 0.0002791 -0.0010456 0.0005705 -0.0015517 0.0000377 -0.0012500 0.0003455 -0.0011548 0.0004458 -0.0007979 0.0002464 0.0000806 0.0001387 0.0001075 0.0006387 0.0002874
0.0023142 -0.0039173 0.0000887 -0.0005025 0.0002606 -0.0011848 0.0005532 -0.0017178 0.0000396 -0.0013124 0.0003405 -0.0012531 0.0004194 -0.0007604 0.0002951 0.0000769 0.0001412 -0.0000007 0.0006487 0.0001625
0.0047874 -0.0106187 0.0000927 -0.0005332 0.0002640 -0.0012348 0.0005642 -0.0017548 0.0000520 -0.0013085 0.0003605 -0.0012122 0.0004346 -0.0006043 0.0003464 0.0002091 0.0001482 0.0000431 0.0006836 0.0003448
0.0053799 -0.0118662 0.0000976 -0.0004381 0.0002727 -0.0011040 0.0005789 -0.0015938 0.0000520 -0.0011992 0.0003838 -0.0010786 0.0004520 -0.0003644 0.0003835 0.0004174 0.0001455 0.0001550 0.0007499 0.0005088
-0.0023921 0.0087827 0.0000883 -0.0004131 0.0002620 -0.0010268 0.0005761 -0.0015224 0.0000446 -0.0011063 0.0003859 -0.0010418 0.0004474 -0.0002823 0.0004048 0.0004628 0.0001321 0.0001263 0.0007367 0.0003910
-0.0023858 0.0084945 0.0000827 -0.0005152 0.0002461 -0.0011114 0.0005580 -0.0016259 0.0000642 -0.0011153 0.0003852 -0.0010899 0.0004450 -0.0003174 0.0004251 0.0004074 0.0001232 0.0000155 0.0007296 0.0002484
0.0057250 -0.0129534 0.0000921 -0.0005455 0.0002423 -0.0011518 0.0005457 -0.0016304 0.0000860 -0.0010795 0.0003955 -0.0010552 0.0004546 -0.0002203 0.0004515 0.0004925 0.0001262 0.0000511 0.0007606 0.0004213
0.0024107 -0.0040814 0.0000796 -0.0004318 0.0002424 -0.0010281 0.0005552 -0.0014735 0.0000943 -0.0009691 0.0004029 -0.0009438 0.0004517 -0.0000527 0.0004586 0.0006370 0.0001226 0.0001678 0.0007636 0.0006608
0.0004235 0.0013825 0.0000545 -0.0003340 0.0002316 -0.0008977 0.0005527 -0.0013610 0.0001042 -0.0009049 0.0003973 -0.0009018 0.0004332 -0.0000002 0.0004538 0.0006550 0.0001044 0.0001589 0.0007250 0.0005517
-0.0004372 0.0036297 0.0000482 -0.0004094 0.0002094 -0.0009363 0.0005236 -0.0013934 0.0000999 -0.0009146 0.0003802 -0.0009610 0.0004165 -0.0000520 0.0004623 0.0005876 0.0000914 0.0000565 0.0006681 0.0003552
0.0014176 -0.0014924 0.0000365 -0.0004681 0.0001940 -0.0009837 0.0005026 -0.0014070 0.0000949 -0.0009087 0.0003718 -0.0009685 0.0004064 -0.0000220 0.0004719 0.0006267 0.0000883 0.0000673 0.0006765 0.0004420
0.0051611 -0.0113364 0.0000338 -0.0003809 0.0001873 -0.0008662 0.0004914 -0.0012618 0.0001075 -0.0008375 0.0003740 -0.0008715 0.0004151 0.0000507 0.0004625 0.0007194 0.0000828 0.0001570 0.0006766 0.0006333
0.0030174 -0.0057012 0.0000256 -0.0002975 0.0001711 -0.0007636 0.0004610 -0.0011666 0.0000958 -0.0008057 0.0003637 -0.0008542 0.0004072 -0.0000067 0.0004436 0.0006544 0.0000736 0.0001180 0.0006591 0.0005220
0.0029591 -0.0056716 0.0000077 -0.0003603 0.0001498 -0.0008342 0.0004398 -0.0012653 0.0000780 -0.0008776 0.0003497 -0.0009247 0.0003907 -0.0000879 0.0004447 0.0005487 0.0000735 0.0000012 0.0006353 0.0002919
-0.0056442 0.0169890 0.0000210 -0.0004211 0.0001410 -0.0009115 0.0004300 -0.0012876 0.0000653 -0.0008911 0.0003538 -0.0009033 0.0004051 -0.0000244 0.0004652 0.0005982 0.0000842 0.0000168 0.0006470 0.0003831
-0.0040673 0.0131142 0.0000352 -0.0003309 0.0001370 -0.0008036 0.0004095 -0.0010831 0.0000710 -0.0008162 0.0003604 -0.0007910 0.0004131 0.0001489 0.0004821 0.0007266 0.0000874 0.0001214 0.0006931 0.0006150
0.0018334 -0.0022882 0.0000183 -0.0002507 0.0001183 -0.0006826 0.0003944 -0.0009564 0.0000919 -0.0007637 0.0003529 -0.0007558 0.0004004 0.0002106 0.0004859 0.0007297 0.0000788 0.0000920 0.0006821 0.0004817
0.0019159 -0.0030151 -0.0000111 -0.0003316 0.0000961 -0.0007747 0.0003765 -0.0010683 0.0000817 -0.0007902 0.0003370 -0.0008583 0.0003951 0.0000878 0.0004896 0.0005945 0.0000787 -0.0000546 0.0006480 0.0001672
0.0028166 -0.0057441 -0.0000046 -0.0004372 0.0000904 -0.0008898 0.0003731 -0.0011558 0.0000713 -0.0008102 0.0003347 -0.0008898 0.0004064 0.0000641 0.0005101 0.0005711 0.0000936 -0.0000753 0.0006593 0.0002430
0.0016064 -0.0024107 0.0000108 -0.0003624 0.0000932 -0.0008129 0.0003817 -0.0010433 0.0000882 -0.0007486 0.0003435 -0.0008073 0.0004149 0.0001919 0.0005291 0.0006776 0.0001025 0.0000120 0.0006795 0.0004765
-0.0005516 0.0036874 0.0000091 -0.0002627 0.0000854 -0.0006893 0.0003656 -0.0009063 0.0000795 -0.0006951 0.0003425 -0.0007748 0.0004120 0.0002423 0.0005349 0.0006792 0.0000963 -0.0000043 0.0006637 0.0003848
-0.0037426 0.0121213 -0.0000103 -0.0003338 0.0000718 -0.0007652 0.0003404 -0.0009848 0.0000589 -0.0007098 0.0003326 -0.0008610 0.0004015 0.0001615 0.0005454 0.0005757 0.0000957 -0.0001285 0.0006710 0.0001093
-0.0039797 0.0123892 -0.0000196 -0.0004145 0.0000668 -0.0009073 0.0003270 -0.0011130 0.0000744 -0.0007508 0.0003333 -0.0009032 0.0004077 0.0001467 0.0005652 0.0005826 0.0001081 -0.0001364 0.0007057 0.0001516
-0.0029411 0.0098206 -0.0000000 -0.0003664 0.0000637 -0.0008457 0.0003214 -0.0010384 0.0000838 -0.0007241 0.0003417 -0.0008299 0.0004211 0.0002731 0.0005806 0.0006958 0.0001127 -0.0000377 0.0007060 0.0004258
-0.0010060 0.0048939 -0.0000026 -0.0002259 0.0000495 -0.0007009 0.0002996 -0.0008958 0.0000744 -0.0006382 0.0003342 -0.0007573 0.0004086 0.0003984 0.0005798 0.0007630 0.0000993 -0.0000021 0.0006675 0.0004745
0.0041425 -0.0088800 -0.0000272 -0.0002262 0.0000296 -0.0007158 0.0002791 -0.0009627 0.0000713 -0.0006680 0.0003171 -0.0008254 0.0003746 0.0003519 0.0005721 0.0006732 0.0000825 -0.0001050 0.0006418 0.0002377
0.0020599 -0.0035587 -0.0000518 -0.0003571 0.0000184 -0.0008536 0.0002724 -0.0011444 0.0000702 -0.0007424 0.0003117 -0.0009193 0.0003610 0.0002880 0.0005818 0.0006167 0.0000845 -0.0001652 0.0006541 0.0001956
0.0003291 0.0010437 -0.0000559 -0.0003277 0.0000216 -0.0008510 0.0002698 -0.0011136 0.0000637 -0.0007072 0.0003191 -0.0008801 0.0003650 0.0003714 0.0005957 0.0006955 0.0000886 -0.0000959 0.0006711 0.0003953
0.0059374 -0.0134078 -0.0000379 -0.0002370 0.0000185 -0.0007293 0.0002602 -0.0009738 0.0000567 -0.0006363 0.0003201 -0.0007949 0.0003567 0.0005081 0.0005961 0.0007989 0.0000789 -0.0000192 0.0006323 0.0005256
0.0081735 -0.0193322 -0.0000479 -0.0002474 0.0000025 -0.0007034 0.0002339 -0.0009621 0.0000554 -0.0006483 0.0003073 -0.0008228 0.0003348 0.0005014 0.0005942 0.0007623 0.0000666 -0.0000830 0.0005902 0.0003581
0.0034997 -0.0073438 -0.0000688 -0.0003458 -0.0000117 -0.0008245 0.0002200 -0.0011047 0.0000571 -0.0007108 0.0002990 -0.0009178 0.0003186 0.0004367 0.0006103 0.0006923 0.0000640 -0.0001757 0.0005904 0.0002300
-0.0012264 0.0050310 -0.0000690 -0.0003649 -0.0000148 -0.0008497 0.0002185 -0.0011354 0.0000533 -0.0006983 0.0003088 -0.0008940 0.0003260 0.0005282 0.0006323 0.0007690 0.0000663 -0.0001297 0.0006003 0.0003970
-0.0011796 0.0049624 -0.0000551 -0.0002885 -0.0000147 -0.0007347 0.0002053 -0.0009957 0.0000446 -0.0006414 0.0003139 -0.0008088 0.0003278 0.0006814 0.0006330 0.0008997 0.0000610 -0.0000266 0.0006191 0.0006708
0.0028315 -0.0054487 -0.0000685 -0.0002005 -0.0000237 -0.0006261 0.0001888 -0.0009003 0.0000338 -0.0006102 0.0003049 -0.0007960 0.0003092 0.0007177 0.0006284 0.0008830 0.0000468 -0.0000586 0.0005588 0.0005758
0.0074700 -0.0178647 -0.0000981 -0.0002953 -0.0000371 -0.0007366 0.0001786 -0.0010721 0.0000415 -0.0006977 0.0002937 -0.0009189 0.0002923 0.0005841 0.0006357 0.0007324 0.0000397 -0.0002117 0.0005172 0.0002497
0.0054845 -0.0128141 -0.0000935 -0.0004375 -0.0000375 -0.0009051 0.0001685 -0.0012354 0.0000500 -0.0007646 0.0002985 -0.0009851 0.0003078 0.0005392 0.0006527 0.0007229 0.0000444 -0.0002412 0.0005706 0.0002527
0.0057547 -0.0136303 -0.0000784 -0.0004048 -0.0000257 -0.0008666 0.0001710 -0.0011747 0.0000459 -0.0007331 0.0003118 -0.0009165 0.0003223 0.0006664 0.0006658 0.0008317 0.0000459 -0.0001532 0.0005985 0.0004682
0.0004304 0.0005642 -0.0000703 -0.0003053 -0.0000275 -0.0007317 0.0001715 -0.0010485 0.0000412 -0.0006826 0.0003112 -0.0008183 0.0003012 0.0008443 0.0006694 0.0009624 0.0000380 -0.0000387 0.0005867 0.0006870
0.0023166 -0.0042089 -0.0000841 -0.0002695 -0.0000409 -0.0006675 0.0001690 -0.0010021 0.0000443 -0.0006806 0.0003002 -0.0008378 0.0002761 0.0008457 0.0006667 0.0009125 0.0000213 -0.0000993 0.0005333 0.0005154
0.0050010 -0.0113990 -0.0000985 -0.0004106 -0.0000506 -0.0008259 0.0001590 -0.0012019 0.0000347 -0.0007676 0.0002917 -0.0009829 0.0002711 0.0006805 0.0006661 0.0007507 0.0000143 -0.0002661 0.0005365 0.0001874
0.0012219 -0.0017943 -0.0000941 -0.0005131 -0.0000424 -0.0009599 0.0001462 -0.0013291 0.0000259 -0.0008154 0.0003039 -0.0010139 0.0002809 0.0006626 0.0006790 0.0007521 0.0000210 -0.0002756 0.0005815 0.0002292
0.0020063 -0.0038731 -0.0000848 -0.0004542 -0.0000260 -0.0008809 0.0001547 -0.0012413 0.0000308 -0.0007865 0.0003204 -0.0009254 0.0002846 0.0007801 0.0006856 0.0008488 0.0000232 -0.0001769 0.0005997 0.0004463
0.0018673 -0.0031053 -0.0000922 -0.0003201 -0.0000237 -0.0007267 0.0001607 -0.0011211 0.0000127 -0.0007385 0.0003188 -0.0008172 0.0002772 0.0009173 0.0006713 0.0009702 0.0000151 -0.0000372 0.0005967 0.0007578
-0.0006849 0.0039062 -0.0001009 -0.0001487 -0.0000383 -0.0005451 0.0001358 -0.0009345 -0.0000021 -0.0006762 0.0003096 -0.0007417 0.0002633 0.0009968 0.0006536 0.0009974 -0.0000051 -0.0000086 0.0005355 0.0007464
-0.0013417 0.0055494 -0.0001154 -0.0002172 -0.0000612 -0.0006078 0.0001029 -0.0010087 -0.0000070 -0.0007326 0.0002916 -0.0008403 0.0002355 0.0008828 0.0006407 0.0008631 -0.0000237 -0.0001503 0.0004742 0.0003656
0.0045248 -0.0104819 -0.0001397 -0.0004011 -0.0000692 -0.0008385 0.0000934 -0.0012512 -0.0000030 -0.0008272 0.0002882 -0.0009531 0.0002269 0.0007812 0.0006444 0.0008075 -0.0000240 -0.0002229 0.0004684 0.0002842
0.0143911 -0.0368316 -0.0001295 -0.0004275 -0.0000602 -0.0008730 0.0000963 -0.0012507 -0.0000002 -0.0008090 0.0003000 -0.0009128 0.0002359 0.0008579 0.0006528 0.0009035 -0.0000191 -0.0001511 0.0004838 0.0005119
0.0116690 -0.0293948 -0.0001094 -0.0003599 -0.0000574 -0.0007619 0.0001005 -0.0011242 -0.0000168 -0.0007202 0.0002985 -0.0008144 0.0002251 0.0010061 0.0006500 0.0010371 -0.0000274 -0.0000287 0.0004916 0.0007849
0.0019431 -0.0034339 -0.0001183 -0.0002008 -0.0000750 -0.0006006 0.0000741 -0.0009381 -0.0000236 -0.0006085 0.0002854 -0.0006863 0.0001990 0.0012087 0.0006357 0.0012064 -0.0000491 0.0001159 0.0004899 0.0010148
-0.0044119 0.0136643 -0.0001414 -0.0001756 -0.0001003 -0.0005400 0.0000407 -0.0008817 -0.0000305 -0.0005996 0.0002620 -0.0006944 0.0001621 0.0012118 0.0006093 0.0011694 -0.0000740 0.0000669 0.0004269 0.0008577
-0.0017178 0.0063452 -0.0001576 -0.0003435 -0.0001206 -0.0007070 0.0000154 -0.0010888 -0.0000428 -0.0006826 0.0002410 -0.0008291 0.0001349 0.0010564 0.0005959 0.0010179 -0.0000876 -0.0000876 0.0003800 0.0005608
-0.0015585 0.0053764 -0.0001579 -0.0004270 -0.0001256 -0.0008382 -0.0000004 -0.0012083 -0.0000515 -0.0007086 0.0002369 -0.0008579 0.0001287 0.0010480 0.0005992 0.0010422 -0.0000916 -0.0000799 0.0003960 0.0006291
-0.0013318 0.0048101 -0.0001543 -0.0003563 -0.0001226 -0.0007664 -0.0000074 -0.0010940 -0.0000587 -0.0006481 0.0002376 -0.0007721 0.0001211 0.0011809 0.0005965 0.0011659 -0.0000981 0.0000235 0.0003924 0.0008894
0.0046581 -0.0105962 -0.0001544 -0.0002277 -0.0001304 -0.0006218 -0.0000241 -0.0009205 -0.0000598 -0.0005803 0.0002261 -0.0006556 0.0000957 0.0013560 0.0005763 0.0013126 -0.0001140 0.0001665 0.0003541 0.0012243
-0.0010311 0.0048102 -0.0001674 -0.0000383 -0.0001498 -0.0004390 -0.0000530 -0.0007218 -0.0000752 -0.0004814 0.0002042 -0.0005382 0.0000689 0.0014926 0.0005531 0.0013934 -0.0001413 0.0002366 0.0002768 0.0012790
-0.0006943 0.0033886 -0.0001875 -0.0000817 -0.0001734 -0.0004652 -0.0000915 -0.0007468 -0.0000830 -0.0004926 0.0001762 -0.0005972 0.0000373 0.0014140 0.0005283 0.0012941 -0.0001673 0.0001361 0.0002292 0.0009599
0.0047378 -0.0113775 -0.0001998 -0.0003043 -0.0001893 -0.0006665 -0.0001099 -0.0009600 -0.0000810 -0.0005925 0.0001590 -0.0007150 0.0000152 0.0012993 0.0005150 0.0012218 -0.0001813 0.0000559 0.0002194 0.0008481
0.0004546 0.0001121 -0.0002048 -0.0003169 -0.0001862 -0.0007065 -0.0001048 -0.0009857 -0.0000897 -0.0005832 0.0001563 -0.0006695 0.0000173 0.0013711 0.0005153 0.0013102 -0.0001860 0.0001199 0.0002404 0.0010579
-0.0026894 0.0086900 -0.0001939 -0.0002050 -0.0001820 -0.0005875 -0.0001077 -0.0008281 -0.0000959 -0.0005168 0.0001473 -0.0005593 0.0000100 0.0014982 0.0005037 0.0014393 -0.0001975 0.0002478 0.0002277 0.0013566
-0.0041099 0.0126022 -0.0001912 -0.0000531 -0.0001992 -0.0004085 -0.0001253 -0.0006407 -0.0000957 -0.0004380 0.0001292 -0.0004314 -0.0000192 0.0016640 0.0004750 0.0015991 -0.0002237 0.0004162 0.0001533 0.0017277
-0.0049492 0.0147680 -0.0002100 0.0000197 -0.0002244 -0.0002908 -0.0001560 -0.0005387 -0.0001158 -0.0003892 0.0001028 -0.0004120 -0.0000584 0.0016844 0.0004426 0.0015659 -0.0002517 0.0003989 0.0001072 0.0015690
-0.0002495 0.0022117 -0.0002205 -0.0001161 -0.0002480 -0.0004128 -0.0002080 -0.0006488 -0.0001398 -0.0004537 0.0000722 -0.0005108 -0.0000893 0.0015721 0.0004209 0.0014360 -0.0002750 0.0002698 0.0000832 0.0012065
0.0034154 -0.0076383 -0.0002250 -0.0002150 -0.0002563 -0.0005481 -0.0002370 -0.0007408 -0.0001364 -0.0005090 0.0000545 -0.0005226 -0.0001001 0.0015678 0.0004094 0.0014652 -0.0002880 0.0002975 0.0000839 0.0013128
0.0020976 -0.0041087 -0.0002299 -0.0001352 -0.0002535 -0.0004714 -0.0002486 -0.0006209 -0.0001417 -0.0004304 0.0000459 -0.0004180 -0.0001057 0.0016784 0.0003925 0.0015813 -0.0003005 0.0004233 0.0000936 0.0015612
0.0016842 -0.0028372 -0.0002359 0.0000222 -0.0002627 -0.0003140 -0.0002683 -0.0004484 -0.0001544 -0.0003488 0.0000277 -0.0002861 -0.0001220 0.0018274 0.0003645 0.0017289 -0.0003233 0.0005918 0.0000514 0.0019169
0.0034306 -0.0071991 -0.0002413 0.0001494 -0.0002827 -0.0001457 -0.0002924 -0.0002883 -0.0001685 -0.0003203 0.0000062 -0.0002253 -0.0001388 0.0018487 0.0003343 0.0017233 -0.0003458 0.0006062 -0.0000035 0.0018343
0.0057437 -0.0136278 -0.0002631 0.0000726 -0.0003014 -0.0001949 -0.0003288 -0.0003211 -0.0001838 -0.0003783 -0.0000148 -0.0002766 -0.0001493 0.0016985 0.0003004 0.0015855 -0.0003591 0.0005098 -0.0000146 0.0015274
0.0011307 -0.0018386 -0.0002549 -0.0000432 -0.0003017 -0.0003131 -0.0003524 -0.0004023 -0.0001842 -0.0004397 -0.0000315 -0.0002833 -0.0001507 0.0016296 0.0002844 0.0015711 -0.0003640 0.0005285 -0.0000217 0.0016261
0.0003513 0.0005403 -0.0002217 -0.0000046 -0.0002900 -0.0002213 -0.0003449 -0.0002622 -0.0002004 -0.0003831 -0.0000385 -0.0001598 -0.0001447 0.0017458 0.0002804 0.0016828 -0.0003720 0.0006467 -0.0000314 0.0019128
0.0049742 -0.0112202 -0.0002233 0.0001529 -0.0002913 -0.0000352 -0.0003458 -0.0000272 -0.0002079 -0.0002752 -0.0000442 0.0000187 -0.0001379 0.0019007 0.0002567 0.0018129 -0.0003850 0.0008211 -0.0000277 0.0022690
0.0043783 -0.0097313 -0.0002362 0.0002846 -0.0003044 0.0001298 -0.0003578 0.0001465 -0.0002017 -0.0001959 -0.0000530 0.0000907 -0.0001400 0.0018797 0.0002253 0.0017434 -0.0003957 0.0008050 -0.0000631 0.0021326
0.0038742 -0.0089783 -0.0002399 0.0001527 -0.0003191 0.0000202 -0.0003821 0.0000595 -0.0001983 -0.0002189 -0.0000659 0.0000195 -0.0001468 0.0017065 0.0002195 0.0015601 -0.0003943 0.0006427 -0.0001060 0.0017585
0.0034803 -0.0083628 -0.0002288 -0.0000359 -0.0003161 -0.0001751 -0.0003962 -0.0000715 -0.0001996 -0.0002528 -0.0000771 0.0000067 -0.0001420 0.0016601 0.0002371 0.0015432 -0.0003780 0.0006130 -0.0000708 0.0017959
-0.0026447 0.0079514 -0.0002119 -0.0000064 -0.0002994 -0.0001397 -0.0003888 0.0000178 -0.0002082 -0.0002280 -0.0000874 0.0001111 -0.0001330 0.0017720 0.0002493 0.0016436 -0.0003603 0.0006968 -0.0000217 0.0020012
-0.0034758 0.0106298 -0.0002072 0.0001396 -0.0002814 0.0000427 -0.0003924 0.0002250 -0.0002296 -0.0002481 -0.0001093 0.0002277 -0.0001475 0.0018145 0.0002144 0.0016857 -0.0003505 0.0008417 -0.0000114 0.0023144
0.0023491 -0.0043786 -0.0001981 0.0002941 -0.0002631 0.0002981 -0.0003974 0.0004004 -0.0002646 -0.0003806 -0.0001355 0.0002697 -0.0001599 0.0016359 0.0001514 0.0015043 -0.0003347 0.0008538 -0.0000345 0.0022281
0.0003100 0.0004956 -0.0001902 0.0001869 -0.0002394 0.0003159 -0.0003901 0.0003076 -0.0003182 -0.0005800 -0.0001567 0.0001909 -0.0001549 0.0013279 0.0001279 0.0012365 -0.0003069 0.0007171 -0.0000467 0.0018230
0.0004592 -0.0005034 -0.0001914 -0.0000210 -0.0002007 0.0001893 -0.0003645 0.0001926 -0.0003300 -0.0006905 -0.0001579 0.0001733 -0.0001349 0.0012243 0.0001511 0.0011670 -0.0002712 0.0006808 0.0000045 0.0017779
0.0020253 -0.0048001 -0.0001775 -0.0000182 -0.0001671 0.0002317 -0.0003313 0.0002533 -0.0003142 -0.0006717 -0.0001527 0.0002673 -0.0001205 0.0013418 0.0001776 0.0012674 -0.0002392 0.0007639 0.0000463 0.0019920
-0.0006049 0.0022614 -0.0001615 0.0000663 -0.0001495 0.0003594 -0.0003166 0.0003705 -0.0003369 -0.0006130 -0.0001641 0.0003661 -0.0001318 0.0014810 0.0001848 0.0013910 -0.0002288 0.0008722 0.0000456 0.0021735
0.0050466 -0.0125505 -0.0001774 0.0000559 -0.0001519 0.0003900 -0.0003323 0.0003898 -0.0003394 -0.0006130 -0.0001817 0.0003496 -0.0001517 0.0014634 0.0001884 0.0013393 -0.0002319 0.0008061 0.0000132 0.0020016
0.0104926 -0.0273006 -0.0001916 -0.0001167 -0.0001585 0.0002401 -0.0003489 0.0002329 -0.0003229 -0.0007040 -0.0001931 0.0002557 -0.0001617 0.0013589 0.0002075 0.0012168 -0.0002250 0.0006621 0.0000243 0.0017870
0.0081441 -0.0212499 -0.0001784 -0.0002038 -0.0001491 0.0001328 -0.0003429 0.0001606 -0.0003121 -0.0007336 -0.0001945 0.0002602 -0.0001580 0.0013767 0.0002293 0.0012298 -0.0002040 0.0006643 0.0000503 0.0019213
0.0083489 -0.0214219 -0.0001726 -0.0001452 -0.0001362 0.0001769 -0.0003297 0.0002383 -0.0003271 -0.0006411 -0.0001978 0.0003314 -0.0001548 0.0014546 0.0002316 0.0013020 -0.0001927 0.0007400 0.0000827 0.0021313
0.0082157 -0.0207821 -0.0001548 -0.0000742 -0.0001395 0.0002639 -0.0003375 0.0003252 -0.0003369 -0.0005588 -0.0002025 0.0003724 -0.0001568 0.0014883 0.0002288 0.0013024 -0.0001972 0.0007256 0.0000919 0.0019757
0.0054373 -0.0137594 -0.0001584 -0.0002115 -0.0001551 0.0001224 -0.0003583 0.0001398 -0.0003201 -0.0006211 -0.0002097 0.0002709 -0.0001695 0.0013734 0.0002369 0.0011707 -0.0001986 0.0005770 0.0000700 0.0016286
0.0056643 -0.0149510 -0.0001797 -0.0004358 -0.0001616 -0.0001530 -0.0003719 -0.0001639 -0.0003149 -0.0007011 -0.0002101 0.0001619 -0.0001695 0.0012521 0.0002537 0.0010852 -0.0001837 0.0005004 0.0000963 0.0015702
0.0094327 -0.0252171 -0.0001815 -0.0004795 -0.0001576 -0.0002668 -0.0003869 -0.0002860 -0.0003086 -0.0006532 -0.0002035 0.0001665 -0.0001471 0.0012090 0.0002533 0.0010858 -0.0001641 0.0005415 0.0001193 0.0016994
0.0110480 -0.0292716 -0.0001754 -0.0004577 -0.0001631 -0.0002827 -0.0004226 -0.0003059 -0.0003168 -0.0005591 -0.0002065 0.0001999 -0.0001287 0.0011452 0.0002234 0.0010306 -0.0001568 0.0005660 0.0001635 0.0016246
0.0063500 -0.0168492 -0.0001753 -0.0005935 -0.0001800 -0.0003854 -0.0004506 -0.0004040 -0.0003151 -0.0006221 -0.0002139 0.0001080 -0.0001279 0.0009379 0.0002063 0.0008275 -0.0001560 0.0004272 0.0001553 0.0012439
-0.0007526 0.0016865 -0.0001814 -0.0008641 -0.0001786 -0.0006538 -0.0004483 -0.0006069 -0.0002790 -0.0007247 -0.0002110 -0.0000602 -0.0001252 0.0006590 0.0002200 0.0006220 -0.0001343 0.0002728 0.0001603 0.0009755
0.0032331 -0.0089350 -0.0001719 -0.0009475 -0.0001595 -0.0008059 -0.0004346 -0.0006526 -0.0002700 -0.0006653 -0.0001976 -0.0001153 -0.0000971 0.0005242 0.0002268 0.0005523 -0.0000995 0.0002856 0.0001806 0.0010261
0.0093051 -0.0246963 -0.0001501 -0.0008618 -0.0001404 -0.0007420 -0.0004208 -0.0005480 -0.0002718 -0.0005373 -0.0001815 -0.0000663 -0.0000698 0.0005334 0.0002221 0.0005908 -0.0000785 0.0003994 0.0001517 0.0012574
0.0031825 -0.0079085 -0.0001294 -0.0007560 -0.0001347 -0.0006219 -0.0004105 -0.0004457 -0.0002450 -0.0004058 -0.0001752 -0.0000607 -0.0000719 0.0004804 0.0002098 0.0005382 -0.0000787 0.0003823 0.0001404 0.0010786
-0.0004618 0.0014985 -0.0001246 -0.0008597 -0.0001374 -0.0007661 -0.0004241 -0.0005615 -0.0002070 -0.0003471 -0.0001572 -0.0001150 -0.0000618 0.0001576 0.0001801 0.0002301 -0.0000795 0.0001871 0.0001048 0.0004188
-0.0001633 0.0005195 -0.0001010 -0.0010430 -0.0000651 -0.0008468 -0.0003638 -0.0006591 -0.0002828 -0.0006127 -0.0001855 -0.0003584 -0.0000495 -0.0004417 0.0000584 -0.0002558 -0.0000608 -0.0000132 0.0000737 0.0000789
0.0024888 -0.0058112 -0.0000500 -0.0010427 0.0000040 -0.0007361 -0.0002738 -0.0005756 -0.0004254 -0.0010245 -0.0002172 -0.0005813 0.0000209 -0.0008793 -0.0000438 -0.0004257 -0.0000440 -0.0001326 0.0000243 0.0000666
0.0077286 -0.0190840 -0.0000312 -0.0009599 0.0002183 0.0000642 0.0001746 0.0007996 -0.0003853 -0.0006537 0.0001981 0.0009310 0.0002067 -0.0004038 0.0001335 0.0002045 -0.0001161 -0.0003883 -0.0000559 0.0002065
0.0110913 -0.0276378 -0.0000476 -0.0008987 0.0004818 0.0010429 0.0006120 0.0021074 -0.0003456 -0.0002988 0.0006833 0.0026396 0.0003213 0.0000371 0.0003259 0.0005772 -0.0001976 -0.0008390 -0.0001499 -0.0000111
0.0035316 -0.0078701 -0.0000399 -0.0010263 0.0005353 0.0010595 0.0006027 0.0018898 -0.0004329 -0.0006973 0.0008131 0.0029026 0.0003269 -0.0002867 0.0003705 0.0003422 -0.0001732 -0.0011117 -0.0002063 -0.0005294
0.0041673 -0.0099207 0.0000024 -0.0011689 0.0005500 0.0008192 0.0005591 0.0015213 -0.0004890 -0.0009885 0.0008592 0.0028562 0.0003373 -0.0005814 0.0003976 0.0002199 -0.0001251 -0.0011448 -0.0001533 -0.0005895
0.0080787 -0.0199726 0.0000295 -0.0011132 0.0005628 0.0007621 0.0005418 0.0013591 -0.0004878 -0.0009439 0.0008742 0.0027998 0.0003243 -0.0006896 0.0003762 0.0001359 -0.0000903 -0.0010304 -0.0000647 -0.0004020
0.0022355 -0.0042644 0.0000642 -0.0009218 0.0004822 0.0004851 0.0003590 0.0008240 -0.0004113 -0.0007387 0.0006482 0.0018899 0.0002598 -0.0009519 0.0002714 -0.0000622 -0.0000694 -0.0008025 -0.0000373 -0.0002651
0.0004567 0.0004710 0.0001317 -0.0007402 0.0003508 0.0000275 0.0001087 0.0002496 -0.0003189 -0.0003526 0.0003411 0.0007012 0.0002159 -0.0013008 0.0001576 -0.0003280 -0.0000174 -0.0004859 -0.0000421 -0.0003748
-0.0016879 0.0056031 0.0001519 -0.0008363 0.0003049 -0.0003062 0.0000351 0.0000021 -0.0002580 -0.0002870 0.0002497 0.0002408 0.0002215 -0.0018103 0.0001182 -0.0007000 0.0000398 -0.0003454 -0.0000895 -0.0007291
-0.0006138 0.0023043 0.0001126 -0.0010609 0.0003600 -0.0004388 0.0000786 -0.0001461 -0.0003089 -0.0006984 0.0002198 -0.0000879 0.0002134 -0.0022703 0.0001010 -0.0010408 0.0001088 -0.0003325 -0.0001422 -0.0009665
0.0041693 -0.0099411 0.0001241 -0.0010461 0.0004111 -0.0003738 0.0001246 -0.0001782 -0.0003636 -0.0009028 0.0001950 -0.0002997 0.0002003 -0.0022834 0.0000727 -0.0010937 0.0001844 -0.0002109 -0.0000862 -0.0008541
0.0009114 -0.0009981 0.0001574 -0.0008951 0.0004165 -0.0002628 0.0001228 -0.0001948 -0.0003409 -0.0007913 0.0001946 -0.0003101 0.0002189 -0.0022091 0.0000391 -0.0010186 0.0002030 -0.0000509 -0.0000196 -0.0005197
-0.0007369 0.0036862 0.0001516 -0.0008268 0.0003964 -0.0002167 0.0000712 -0.0001640 -0.0002913 -0.0004657 0.0002025 -0.0001638 0.0002493 -0.0021330 0.0000018 -0.0009355 0.0001988 0.0001483 -0.0000593 -0.0002496
-0.0039081 0.0122943 0.0001502 -0.0008052 0.0003582 -0.0003177 0.0000178 -0.0002003 -0.0002779 -0.0003716 0.0001557 -0.0002803 0.0002045 -0.0022145 -0.0000266 -0.0010162 0.0002038 0.0000705 -0.0001232 -0.0004380
-0.0008649 0.0042811 0.0001388 -0.0008719 0.0003381 -0.0005123 0.0000078 -0.0004934 -0.0003293 -0.0005984 0.0001033 -0.0005859 0.0001223 -0.0022799 0.0000318 -0.0010304 0.0002257 -0.0001574 -0.0000562 -0.0006635
0.0051913 -0.0117635 0.0001281 -0.0009902 0.0003497 -0.0006164 0.0000158 -0.0006923 -0.0002764 -0.0005353 0.0001566 -0.0005065 0.0001507 -0.0020069 0.0001717 -0.0007464 0.0002684 -0.0000711 0.0001130 -0.0004493
-0.0006493 0.0037519 0.0001583 -0.0009254 0.0003675 -0.0005294 0.0000245 -0.0005975 -0.0002049 -0.0003388 0.0002129 -0.0002948 0.0001854 -0.0017583 0.0002487 -0.0004966 0.0002980 0.0001477 0.0002393 -0.0000835
0.0020476 -0.0031764 0.0001872 -0.0007273 0.0003707 -0.0003134 0.0000165 -0.0004339 -0.0002033 -0.0002692 0.0002171 -0.0001415 0.0001766 -0.0015662 0.0002439 -0.0002956 0.0002939 0.0003878 0.0002698 0.0002485
0.0109667 -0.0268988 0.0001592 -0.0006248 0.0003616 -0.0001650 0.0000036 -0.0003228 -0.0002154 -0.0002990 0.0001988 -0.0001680 0.0001630 -0.0015959 0.0002281 -0.0003504 0.0002752 0.0003378 0.0002466 0.0000014
0.0043082 -0.0099858 0.0001347 -0.0007590 0.0003546 -0.0003042 -0.0000041 -0.0004868 -0.0002371 -0.0004480 0.0001755 -0.0003795 0.0001542 -0.0018716 0.0002142 -0.0006111 0.0002500 0.0001170 0.0002245 -0.0004382
0.0028727 -0.0065755 0.0001508 -0.0008704 0.0004044 -0.0003169 0.0000465 -0.0004655 -0.0002315 -0.0005815 0.0002006 -0.0003876 0.0001699 -0.0019078 0.0002302 -0.0006058 0.0002600 0.0001415 0.0002495 -0.0003266
0.0046084 -0.0106059 0.0001881 -0.0007710 0.0004431 -0.0001355 0.0001089 -0.0002161 -0.0001867 -0.0004733 0.0002439 -0.0002448 0.0001851 -0.0016154 0.0002719 -0.0003497 0.0002802 0.0002696 0.0003140 0.0000556
-0.0009005 0.0048944 0.0002051 -0.0005689 0.0004227 0.0000057 0.0000977 -0.0000570 -0.0001876 -0.0004026 0.0002320 -0.0002377 0.0001681 -0.0014656 0.0003135 -0.0001657 0.0002603 0.0002587 0.0003326 0.0001445
-0.0048603 0.0154516 0.0001705 -0.0006235 0.0004184 -0.0000026 0.0000768 -0.0001244 -0.0002560 -0.0006374 0.0002259 -0.0003117 0.0001532 -0.0015688 0.0003886 -0.0000957 0.0002308 0.0000798 0.0003415 0.0000276
-0.0045038 0.0142239 0.0001473 -0.0008557 0.0004677 -0.0000033 0.0001532 -0.0000908 -0.0002742 -0.0008002 0.0003460 0.0000388 0.0001813 -0.0014376 0.0005168 0.0001394 0.0002201 0.0000503 0.0004284 0.0001834
-0.0055394 0.0171060 0.0001593 -0.0008649 0.0005334 0.0002181 0.0002456 0.0002302 -0.0002448 -0.0007001 0.0004694 0.0005210 0.0002107 -0.0012533 0.0005698 0.0003464 0.0002185 0.0001965 0.0005152 0.0004723
-0.0013678 0.0063504 0.0001496 -0.0006951 0.0005499 0.0004267 0.0002580 0.0004549 -0.0002069 -0.0005358 0.0004848 0.0006788 0.0002226 -0.0011470 0.0005382 0.0004463 0.0002137 0.0003834 0.0005202 0.0008127
0.0154885 -0.0379487 0.0001475 -0.0004844 0.0005191 0.0005898 0.0002339 0.0006259 -0.0001822 -0.0004722 0.0004490 0.0006115 0.0001967 -0.0011157 0.0005265 0.0004378 0.0001986 0.0003749 0.0004605 0.0006976
-0.0004681 0.0037265 0.0001274 -0.0005775 0.0004774 0.0004460 0.0001975 0.0004772 -0.0001939 -0.0005524 0.0004067 0.0003670 0.0001546 -0.0012245 0.0005328 0.0003139 0.0001834 0.0002204 0.0004259 0.0003116
-0.0020556 0.0074926 0.0000916 -0.0007772 0.0004637 0.0002122 0.0001950 0.0002709 -0.0001886 -0.0005935 0.0004041 0.0002482 0.0001485 -0.0011913 0.0005539 0.0003474 0.0001800 0.0002140 0.0004563 0.0003330
0.0029993 -0.0056736 0.0001116 -0.0007342 0.0004653 0.0002891 0.0002061 0.0003701 -0.0001676 -0.0004589 0.0004139 0.0003087 0.0001647 -0.0010126 0.0005689 0.0005209 0.0001720 0.0003333 0.0004684 0.0006728
-0.0001110 0.0029207 0.0001091 -0.0005410 0.0004501 0.0004789 0.0001949 0.0005307 -0.0001644 -0.0003049 0.0004041 0.0004289 0.0001582 -0.0008029 0.0005651 0.0007083 0.0001455 0.0004775 0.0004556 0.0009443
-0.0005279 0.0042479 0.0000788 -0.0004780 0.0004269 0.0005660 0.0001639 0.0006255 -0.0001609 -0.0002417 0.0003852 0.0004176 0.0001378 -0.0007802 0.0005567 0.0006952 0.0001149 0.0004164 0.0004043 0.0008041
0.0013589 -0.0013046 0.0000611 -0.0006042 0.0004038 0.0004596 0.0001269 0.0005595 -0.0001483 -0.0002615 0.0003676 0.0002991 0.0001246 -0.0008664 0.0005630 0.0006100 0.0000957 0.0002852 0.0003313 0.0007058
0.0080174 -0.0189759 0.0000645 -0.0006149 0.0003964 0.0004280 0.0001275 0.0005616 -0.0001399 -0.0002486 0.0003652 0.0003093 0.0001325 -0.0007779 0.0005687 0.0006810 0.0000873 0.0003350 0.0003381 0.0009055
0.0123900 -0.0300877 0.0000897 -0.0004948 0.0003989 0.0005779 0.0001347 0.0007390 -0.0001496 -0.0001438 0.0003660 0.0004151 0.0001382 -0.0005854 0.0005602 0.0008182 0.0000833 0.0004616 0.0003554 0.0011946
0.0023364 -0.0034766 0.0000909 -0.0003317 0.0003864 0.0007688 0.0001257 0.0009051 -0.0001635 -0.0000438 0.0003527 0.0004521 0.0001241 -0.0004968 0.0005484 0.0008262 0.0000689 0.0004454 0.0003323 0.0010741
0.0002667 0.0016528 0.0000531 -0.0003861 0.0003578 0.0007000 0.0001045 0.0008092 -0.0001646 -0.0000512 0.0003317 0.0003524 0.0001108 -0.0005728 0.0005483 0.0007287 0.0000543 0.0003100 0.0003030 0.0007792
0.0042368 -0.0090593 0.0000511 -0.0005517 0.0003392 0.0005267 0.0000907 0.0006843 -0.0001657 -0.0000561 0.0003267 0.0003189 0.0001133 -0.0005761 0.0005620 0.0007496 0.0000558 0.0002941 0.0003246 0.0008662
-0.0012416 0.0058920 0.0000632 -0.0004883 0.0003397 0.0005968 0.0000934 0.0008193 -0.0001655 0.0000194 0.0003362 0.0004336 0.0001281 -0.0004291 0.0005716 0.0008700 0.0000573 0.0003952 0.0003579 0.0011015
0.0003238 0.0018565 0.0000653 -0.0003242 0.0003367 0.0007683 0.0000812 0.0010235 -0.0001685 0.0001090 0.0003383 0.0005498 0.0001311 -0.0003114 0.0005717 0.0009051 0.0000487 0.0004188 0.0003013 0.0010738
0.0058435 -0.0132903 0.0000561 -0.0003925 0.0003223 0.0007297 0.0000639 0.0009697 -0.0001657 0.0000602 0.0003237 0.0004644 0.0001143 -0.0004286 0.0005641 0.0007618 0.0000406 0.0002671 0.0002317 0.0007168
0.0019669 -0.0035538 0.0000357 -0.0005724 0.0003153 0.0005244 0.0000572 0.0007709 -0.0001657 -0.0000392 0.0003141 0.0003229 0.0001177 -0.0005760 0.0005663 0.0006480 0.0000514 0.0001584 0.0002706 0.0005604
0.0068839 -0.0163718 0.0000641 -0.0005946 0.0003587 0.0005718 0.0001297 0.0009178 -0.0001475 0.0000190 0.0003597 0.0004984 0.0001474 -0.0005439 0.0005881 0.0006682 0.0000634 0.0001941 0.0003354 0.0006985
0.0067574 -0.0155537 0.0000842 -0.0005141 0.0004046 0.0007695 0.0001731 0.0011021 -0.0001119 0.0000827 0.0003894 0.0006605 0.0001725 -0.0004895 0.0005747 0.0007041 0.0000724 0.0002910 0.0003472 0.0007798
-0.0025705 0.0092612 0.0000799 -0.0004954 0.0003889 0.0007364 0.0001139 0.0009524 -0.0000967 0.0000799 0.0003544 0.0004793 0.0001775 -0.0006036 0.0005513 0.0005761 0.0000796 0.0002112 0.0002993 0.0005195
-0.0055242 0.0168429 0.0000851 -0.0006528 0.0003594 0.0004580 0.0000737 0.0006177 -0.0000941 0.0000204 0.0003329 0.0002546 0.0001866 -0.0007809 0.0005656 0.0004043 0.0000916 0.0000381 0.0003071 0.0002555
-0.0055621 0.0167149 0.0000959 -0.0007146 0.0003712 0.0003251 0.0000968 0.0004941 -0.0000836 -0.0000190 0.0003554 0.0002248 0.0002239 -0.0007630 0.0005930 0.0004216 0.0001195 0.0000401 0.0003815 0.0003077
-0.0026238 0.0089970 0.0001244 -0.0006183 0.0004031 0.0004190 0.0001399 0.0006324 -0.0000808 0.0000422 0.0003842 0.0003147 0.0002510 -0.0006157 0.0006089 0.0005399 0.0001369 0.0001442 0.0003962 0.0005652
0.0018391 -0.0024697 0.0001290 -0.0004561 0.0004095 0.0005632 0.0001569 0.0007550 -0.0000770 0.0000954 0.0003904 0.0003440 0.0002482 -0.0005665 0.0006124 0.0005241 0.0001362 0.0001317 0.0003963 0.0004667
0.0011791 -0.0008175 0.0000964 -0.0005224 0.0004022 0.0004579 0.0001468 0.0005890 -0.0000778 0.0000065 0.0003841 0.0002218 0.0002386 -0.0007479 0.0006093 0.0003206 0.0001493 -0.0000300 0.0003921 0.0000876
0.0019116 -0.0031525 0.0001068 -0.0007216 0.0004236 0.0002362 0.0001821 0.0004048 -0.0000623 -0.0000650 0.0004145 0.0001899 0.0002757 -0.0008454 0.0006460 0.0002990 0.0001847 -0.0000607 0.0004020 0.0000291
0.0018785 -0.0028263 0.0001560 -0.0006567 0.0004911 0.0003677 0.0002745 0.0005646 -0.0000398 -0.0000599 0.0004569 0.0002734 0.0003252 -0.0007654 0.0006560 0.0003726 0.0002162 0.0000307 0.0004455 0.0002096
0.0006839 0.0007740 0.0001828 -0.0004709 0.0005242 0.0006099 0.0002995 0.0007340 -0.0000600 -0.0000427 0.0004761 0.0003665 0.0003339 -0.0005904 0.0006042 0.0004182 0.0002278 0.0001713 0.0004743 0.0004976
0.0075211 -0.0167882 0.0001669 -0.0003191 0.0005022 0.0007293 0.0002674 0.0007993 -0.0000595 -0.0000147 0.0004819 0.0003870 0.0003199 -0.0005171 0.0005850 0.0003990 0.0002096 0.0001574 0.0004286 0.0003345
0.0098976 -0.0233785 0.0001406 -0.0004494 0.0004843 0.0005854 0.0002481 0.0006263 -0.0000301 -0.0000610 0.0004703 0.0002371 0.0003143 -0.0007124 0.0005811 0.0001978 0.0001828 -0.0000583 0.0003814 -0.0000935
0.0074589 -0.0175194 0.0001410 -0.0006795 0.0004888 0.0003567 0.0002672 0.0004118 -0.0000086 -0.0000995 0.0004813 0.0001445 0.0003307 -0.0008015 0.0005897 0.0001259 0.0001830 -0.0001393 0.0003767 -0.0001329
0.0123234 -0.0301305 0.0001521 -0.0006606 0.0005060 0.0003588 0.0002989 0.0004300 -0.0000047 -0.0000659 0.0005024 0.0001749 0.0003371 -0.0006832 0.0006076 0.0002351 0.0001941 -0.0000627 0.0004180 0.0000286
0.0096026 -0.0224472 0.0001686 -0.0005260 0.0005054 0.0004704 0.0003017 0.0005373 0.0000034 0.0000100 0.0005082 0.0002790 0.0003326 -0.0004849 0.0006197 0.0003701 0.0001922 0.0000359 0.0004183 0.0001375
0.0050419 -0.0103929 0.0001705 -0.0005463 0.0004923 0.0004629 0.0002934 0.0004993 0.0000110 0.0000016 0.0004994 0.0002364 0.0003191 -0.0005068 0.0006225 0.0003133 0.0001856 -0.0000565 0.0003770 -0.0001085
0.0023069 -0.0038676 0.0001554 -0.0007109 0.0004863 0.0002643 0.0003041 0.0002558 0.0000259 -0.0000906 0.0005006 0.0000869 0.0003184 -0.0006534 0.0006361 0.0001810 0.0001914 -0.0002141 0.0003875 -0.0003219
-0.0022214 0.0080499 0.0001652 -0.0007608 0.0005011 0.0001563 0.0003200 0.0001714 0.0000505 -0.0001159 0.0005266 0.0000907 0.0003404 -0.0006169 0.0006578 0.0002228 0.0002067 -0.0001952 0.0004103 -0.0001770
-0.0016203 0.0068650 0.0001897 -0.0006670 0.0005210 0.0002332 0.0003349 0.0002639 0.0000582 -0.0000621 0.0005436 0.0001736 0.0003407 -0.0004884 0.0006588 0.0003261 0.0002111 -0.0000882 0.0004312 0.0000642
0.0007646 0.0008257 0.0001966 -0.0004937 0.0005209 0.0003634 0.0003408 0.0003816 0.0000510 0.0000363 0.0005408 0.0002612 0.0003358 -0.0003925 0.0006506 0.0003550 0.0002014 -0.0000506 0.0003850 0.0000656
-0.0003520 0.0035076 0.0001823 -0.0005651 0.0005033 0.0002755 0.0003274 0.0002494 0.0000560 -0.0000240 0.0005229 0.0001556 0.0003233 -0.0005255 0.0006373 0.0002291 0.0001910 -0.0001818 0.0003652 -0.0002956
0.0019379 -0.0031657 0.0001713 -0.0007898 0.0004979 0.0000356 0.0003380 -0.0000445 0.0000797 -0.0001764 0.0005286 0.0000053 0.0003182 -0.0006779 0.0006337 0.0001202 0.0001973 -0.0002746 0.0003903 -0.0004254
0.0073701 -0.0174367 0.0001725 -0.0007929 0.0005198 -0.0000119 0.0003728 -0.0001018 0.0000789 -0.0001764 0.0005562 0.0000371 0.0003373 -0.0006647 0.0006215 0.0001429 0.0002131 -0.0001990 0.0003957 -0.0002120
0.0167467 -0.0417216 0.0001814 -0.0006647 0.0005350 0.0001002 0.0003855 0.0000024 0.0000790 -0.0001171 0.0005601 0.0001160 0.0003353 -0.0006027 0.0005913 0.0002169 0.0002160 -0.0000586 0.0003863 0.0000721
0.0013353 -0.0005493 0.0001926 -0.0004888 0.0005207 0.0002667 0.0003599 0.0001498 0.0000806 -0.0000528 0.0005431 0.0001674 0.0003206 -0.0005825 0.0005605 0.0001951 0.0002025 -0.0000251 0.0003454 0.0000270
-0.0021560 0.0083958 0.0001832 -0.0005820 0.0004912 0.0001745 0.0003215 -0.0000173 0.0000866 -0.0001351 0.0005133 0.0000336 0.0002967 -0.0007636 0.0005260 -0.0000009 0.0001919 -0.0001468 0.0003131 -0.0003112
0.0035440 -0.0072315 0.0001775 -0.0007987 0.0004833 -0.0000577 0.0003240 -0.0002860 0.0001087 -0.0002498 0.0005130 -0.0000799 0.0002996 -0.0009512 0.0004953 -0.0001414 0.0002016 -0.0001852 0.0003289 -0.0003353
0.0051169 -0.0112079 0.0001660 -0.0007311 0.0005050 -0.0000410 0.0003444 -0.0002459 0.0001200 -0.0002248 0.0005330 -0.0000086 0.0003153 -0.0009428 0.0004666 -0.0001062 0.0002130 -0.0000711 0.0003408 -0.0000755
0.0118312 -0.0285234 0.0001719 -0.0005752 0.0005141 0.0001156 0.0003407 -0.0001010 0.0001305 -0.0001754 0.0005286 0.0000903 0.0003004 -0.0008216 0.0004465 0.0000194 0.0002085 0.0000977 0.0002812 0.0002801
0.0101576 -0.0237697 0.0001940 -0.0003931 0.0004906 0.0003036 0.0003100 0.0000580 0.0001177 -0.0000714 0.0005062 0.0002010 0.0002714 -0.0006482 0.0004470 0.0001522 0.0001922 0.0001951 0.0002085 0.0003624
0.0027376 -0.0043364 0.0001567 -0.0003899 0.0004535 0.0002777 0.0002567 0.0000061 0.0000863 -0.0000327 0.0004667 0.0001260 0.0002299 -0.0006880 0.0004465 0.0001411 0.0001719 0.0001273 0.0002023 0.0001263
0.0073204 -0.0167674 0.0001236 -0.0004981 0.0004270 0.0001203 0.0002248 -0.0001743 0.0000807 -0.0000884 0.0004391 -0.0000056 0.0002117 -0.0007764 0.0004479 0.0001347 0.0001648 0.0000902 0.0001868 0.0001324
0.0143740 -0.0353042 0.0001406 -0.0004490 0.0004245 0.0001495 0.0002261 -0.0001365 0.0000891 -0.0000950 0.0004341 0.0000474 0.0002093 -0.0006608 0.0004564 0.0002744 0.0001637 0.0001952 0.0001468 0.0004519
0.0091041 -0.0212684 0.0001534 -0.0003267 0.0004241 0.0003125 0.0002277 0.0000403 0.0000840 -0.0000355 0.0004300 0.0001757 0.0001974 -0.0005014 0.0004510 0.0004408 0.0001514 0.0003574 0.0001649 0.0007718
0.0023809 -0.0034130 0.0001304 -0.0001546 0.0004075 0.0005136 0.0002043 0.0002224 0.0000839 0.0000450 0.0004234 0.0002775 0.0002002 -0.0004351 0.0004484 0.0005092 0.0001317 0.0003847 0.0001306 0.0007244
-0.0000749 0.0030646 0.0000953 -0.0002029 0.0003858 0.0004882 0.0001774 0.0001802 0.0000748 0.0000568 0.0004098 0.0002677 0.0001960 -0.0004639 0.0004508 0.0004874 0.0001184 0.0003188 0.0000718 0.0006012
0.0025803 -0.0041939 0.0000869 -0.0003048 0.0003808 0.0004050 0.0001867 0.0001237 0.0000544 0.0000768 0.0004107 0.0002952 0.0001942 -0.0004014 0.0004543 0.0005371 0.0001204 0.0003606 0.0000693 0.0007865
0.0061876 -0.0137386 0.0000993 -0.0001861 0.0003863 0.0005368 0.0002094 0.0003113 0.0000524 0.0001483 0.0004231 0.0004448 0.0002011 -0.0002247 0.0004514 0.0006665 0.0001202 0.0004837 0.0000670 0.0010686
0.0035554 -0.0065315 0.0001088 -0.0000256 0.0003777 0.0007204 0.0001904 0.0005527 0.0000590 0.0002218 0.0004123 0.0005972 0.0001805 -0.0000172 0.0004304 0.0008024 0.0001056 0.0006250 0.0000496 0.0012194
-0.0010757 0.0056624 0.0000925 -0.0000308 0.0003591 0.0007580 0.0001652 0.0006223 0.0000623 0.0002520 0.0003865 0.0005596 0.0001554 -0.0000548 0.0004167 0.0007126 0.0000888 0.0005312 0.0000047 0.0009481
-0.0026965 0.0094551 0.0000760 -0.0002147 0.0003481 0.0005724 0.0001593 0.0004676 0.0000674 0.0002251 0.0003790 0.0004462 0.0001510 -0.0002022 0.0004228 0.0005428 0.0000941 0.0003596 -0.0000441 0.0007005
-0.0016966 0.0065449 0.0000906 -0.0002813 0.0003612 0.0004842 0.0001755 0.0004198 0.0000765 0.0002316 0.0003878 0.0004729 0.0001570 -0.0001684 0.0004322 0.0005363 0.0001166 0.0003900 -0.0000013 0.0008611
-0.0000679 0.0025489 0.0001138 -0.0001667 0.0003790 0.0006008 0.0001944 0.0005708 0.0000836 0.0002927 0.0003871 0.0005724 0.0001570 -0.0000425 0.0004315 0.0006222 0.0001322 0.0005059 0.0000343 0.0011274
-0.0026080 0.0096572 0.0001342 -0.0000107 0.0003761 0.0007709 0.0001848 0.0007691 0.0000791 0.0003687 0.0003714 0.0006310 0.0001464 0.0000070 0.0004233 0.0006120 0.0001329 0.0004943 -0.0000243 0.0010307
-0.0022682 0.0084453 0.0001107 -0.0000966 0.0003658 0.0006787 0.0001761 0.0006373 0.0000803 0.0003147 0.0003534 0.0005251 0.0001395 -0.0001226 0.0004233 0.0004553 0.0001332 0.0003314 -0.0000563 0.0006673
0.0014504 -0.0019519 0.0000989 -0.0002993 0.0003795 0.0004613 0.0001971 0.0004122 0.0000892 0.0002423 0.0003596 0.0004442 0.0001568 -0.0001973 0.0004404 0.0003871 0.0001525 0.0002621 -0.0000119 0.0006051
0.0013244 -0.0014504 0.0001488 -0.0003162 0.0004110 0.0004636 0.0002324 0.0004490 0.0000919 0.0002966 0.0003757 0.0005067 0.0001800 -0.0001270 0.0004493 0.0004313 0.0001731 0.0003270 0.0000587 0.0008053
-0.0002536 0.0031839 0.0001650 -0.0002098 0.0004251 0.0005607 0.0002515 0.0005441 0.0001103 0.0003518 0.0003791 0.0006094 0.0001911 -0.0000117 0.0004425 0.0005046 0.0001763 0.0004224 0.0000736 0.0009030
0.0035471 -0.0067177 0.0001437 -0.0002379 0.0004189 0.0005419 0.0002442 0.0005105 0.0001166 0.0003205 0.0003722 0.0005431 0.0001778 -0.0000776 0.0004419 0.0004099 0.0001749 0.0003229 0.0000453 0.0006577
0.0123010 -0.0301031 0.0001369 -0.0004092 0.0004130 0.0003338 0.0002441 0.0003241 0.0001372 0.0002494 0.0003758 0.0003918 0.0001819 -0.0002671 0.0004296 0.0002134 0.0001846 0.0001607 0.0000521 0.0004288
0.0034838 -0.0069692 0.0001588 -0.0004270 0.0004224 0.0001886 0.0002701 0.0002547 0.0001558 0.0002230 0.0003797 0.0003533 0.0002017 -0.0004096 0.0003755 0.0000818 0.0001999 0.0001832 0.0000930 0.0004714
-0.0028027 0.0099124 0.0001893 -0.0003136 0.0004289 0.0002260 0.0002699 0.0003270 0.0001489 0.0002644 0.0003748 0.0004004 0.0001966 -0.0004303 0.0003337 0.0000967 0.0002121 0.0003219 0.0000858 0.0006957
-0.0017125 0.0074622 0.0001954 -0.0001697 0.0004208 0.0003662 0.0002503 0.0004185 0.0001357 0.0003203 0.0003582 0.0003863 0.0001716 -0.0004544 0.0003155 0.0000588 0.0002096 0.0003116 0.0000491 0.0005791
-0.0004373 0.0038996 0.0001676 -0.0002524 0.0003980 0.0002449 0.0002135 0.0002430 0.0001289 0.0002625 0.0003325 0.0002336 0.0001437 -0.0005586 0.0003183 -0.0000507 0.0002068 0.0001793 0.0000625 0.0002791
0.0008879 0.0001007 0.0001603 -0.0004460 0.0003924 0.0000399 0.0002059 0.0001015 0.0001412 0.0002100 0.0003447 0.0002018 0.0001482 -0.0005133 0.0003469 -0.0000170 0.0002151 0.0001654 0.0000835 0.0003184
0.0030060 -0.0052629 0.0001868 -0.0004182 0.0004071 0.0000893 0.0002466 0.0002167 0.0001375 0.0002778 0.0003594 0.0002727 0.0001519 -0.0004158 0.0003424 0.0000406 0.0002178 0.0002298 0.0000807 0.0005077
0.0013306 -0.0006275 0.0001920 -0.0002787 0.0003957 0.0001812 0.0002425 0.0003061 0.0001298 0.0003381 0.0003421 0.0003335 0.0001346 -0.0003432 0.0003188 0.0000521 0.0002105 0.0002776 0.0000594 0.0005141
0.0029646 -0.0051455 0.0001719 -0.0003216 0.0003702 0.0001291 0.0001899 0.0002418 0.0001246 0.0002782 0.0003091 0.0002460 0.0001071 -0.0004249 0.0002993 -0.0000637 0.0002027 0.0001983 0.0000438 0.0002907
0.0076635 -0.0178739 0.0001643 -0.0004312 0.0003551 -0.0000087 0.0001570 0.0000913 0.0001053 0.0002426 0.0002911 0.0001340 0.0001037 -0.0005291 0.0002891 -0.0001460 0.0002076 0.0001408 0.0000509 0.0002714
0.0064708 -0.0145720 0.0001759 -0.0003894 0.0003547 -0.0000092 0.0001713 0.0001045 0.0000959 0.0002895 0.0002913 0.0001758 0.0001212 -0.0005499 0.0002320 -0.0002273 0.0002212 0.0002011 0.0000824 0.0004210
0.0005002 0.0014902 0.0001998 -0.0002435 0.0003383 0.0000408 0.0001560 0.0001797 0.0000689 0.0002481 0.0002524 0.0001568 0.0001068 -0.0007878 0.0000309 -0.0005135 0.0002216 0.0002477 0.0000669 0.0004067
0.0014949 -0.0010287 0.0002060 -0.0002001 0.0003452 0.0001288 0.0001425 0.0002456 -0.0000667 -0.0001759 0.0001745 -0.0001179 0.0000670 -0.0012427 -0.0001552 -0.0009115 0.0002131 0.0000363 -0.0000229 0.0000769
0.0039786 -0.0079335 0.0001959 -0.0003032 0.0003674 0.0000958 0.0001694 0.0001842 -0.0001237 -0.0004219 0.0001765 -0.0002438 0.0000721 -0.0014002 -0.0001492 -0.0010548 0.0002494 -0.0001415 0.0000123 -0.0000801
0.0046554 -0.0101097 0.0002223 -0.0002882 0.0003613 -0.0000457 0.0001545 0.0000166 -0.0000632 -0.0002143 0.0002293 -0.0000881 0.0001007 -0.0012606 -0.0001016 -0.0009698 0.0002952 -0.0000518 0.0001019 0.0001141
0.0055280 -0.0122852 0.0002617 -0.0001856 0.0003587 -0.0000185 0.0001349 0.0000010 -0.0000366 -0.0000506 0.0002448 0.0000416 0.0001127 -0.0011649 -0.0000839 -0.0008662 0.0003048 0.0000616 0.0001291 0.0003637
0.0041454 -0.0084064 0.0002780 -0.0000567 0.0003586 0.0001263 0.0001211 0.0001585 -0.0000212 0.0000644 0.0002576 0.0001336 0.0001054 -0.0010285 -0.0000126 -0.0007707 0.0003109 0.0000659 0.0002040 0.0002310
0.0072132 -0.0168293 0.0002643 -0.0001711 0.0003615 0.0000665 0.0001096 0.0000985 0.0000022 0.0000862 0.0002720 0.0001112 0.0000911 -0.0009258 0.0000758 -0.0007766 0.0003138 -0.0000492 0.0002919 -0.0001588
0.0126194 -0.0314995 0.0002672 -0.0003506 0.0003770 -0.0000946 0.0001353 -0.0000753 0.0000243 0.0000644 0.0002773 0.0000551 0.0001040 -0.0009190 0.0001092 -0.0007942 0.0003187 -0.0000873 0.0002850 -0.0001615
-0.0015012 0.0062179 0.0003040 -0.0002982 0.0003931 -0.0000580 0.0001615 -0.0000258 0.0000271 0.0001099 0.0002850 0.0001011 0.0001209 -0.0008433 0.0001160 -0.0007087 0.0003267 -0.0000148 0.0003163 0.0000037
-0.0044189 0.0143002 0.0003110 -0.0001517 0.0003954 0.0000779 0.0001573 0.0001276 0.0000479 0.0001949 0.0002901 0.0001786 0.0001159 -0.0007116 0.0001301 -0.0006387 0.0003207 -0.0000051 0.0003246 -0.0000695
-0.0064943 0.0193834 0.0002922 -0.0002081 0.0003843 0.0000414 0.0001432 0.0000693 0.0000585 0.0001914 0.0002752 0.0000971 0.0000942 -0.0007120 0.0001603 -0.0006876 0.0003089 -0.0001279 0.0003082 -0.0003371
-0.0036657 0.0117060 0.0002762 -0.0003762 0.0003831 -0.0000855 0.0001694 -0.0000665 0.0000673 0.0001943 0.0002869 0.0000488 0.0001028 -0.0006356 0.0002308 -0.0006191 0.0003076 -0.0001830 0.0003840 -0.0003827
0.0088327 -0.0210884 0.0002745 -0.0003458 0.0004065 -0.0000242 0.0002095 0.0000425 0.0001114 0.0002805 0.0003320 0.0001735 0.0001296 -0.0003689 0.0003136 -0.0004194 0.0003105 -0.0001009 0.0004230 -0.0001275
0.0009751 -0.0001976 0.0002751 -0.0002336 0.0004144 0.0001266 0.0002194 0.0002151 0.0001343 0.0003849 0.0003512 0.0003068 0.0001353 -0.0001409 0.0003530 -0.0002826 0.0003030 -0.0000375 0.0003890 -0.0000507
0.0047230 -0.0101847 0.0002650 -0.0002743 0.0003988 0.0001254 0.0002002 0.0002014 0.0001143 0.0004406 0.0003372 0.0002520 0.0001216 -0.0001704 0.0003597 -0.0003480 0.0002898 -0.0001467 0.0003378 -0.0003446
0.0041665 -0.0091016 0.0002595 -0.0004571 0.0003878 -0.0000440 0.0001772 0.0000571 0.0001212 0.0004518 0.0003324 0.0001318 0.0001191 -0.0002847 0.0003779 -0.0004313 0.0002884 -0.0002636 0.0003368 -0.0005069
-0.0025167 0.0085536 0.0002530 -0.0004654 0.0003929 -0.0000847 0.0001871 0.0000482 0.0001574 0.0004704 0.0003453 0.0001576 0.0001303 -0.0002249 0.0004032 -0.0003585 0.0002941 -0.0002264 0.0003782 -0.0003778
-0.0032050 0.0106116 0.0002581 -0.0003820 0.0003932 0.0000225 0.0001948 0.0001517 0.0001665 0.0005329 0.0003542 0.0002451 0.0001312 -0.0000965 0.0004060 -0.0002325 0.0002895 -0.0001204 0.0004071 -0.0001643
0.0001404 0.0020924 0.0002609 -0.0003211 0.0003760 0.0001384 0.0001568 0.0002532 0.0001573 0.0005685 0.0003427 0.0002534 0.0001185 -0.0000968 0.0003913 -0.0002534 0.0002734 -0.0001564 0.0003532 -0.0003392
0.0076709 -0.0178389 0.0002427 -0.0004618 0.0003509 0.0000131 0.0001140 0.0001114 0.0001317 0.0004862 0.0003155 0.0001043 0.0000953 -0.0002563 0.0003849 -0.0004230 0.0002629 -0.0003263 0.0003131 -0.0007600
0.0041220 -0.0088194 0.0002382 -0.0006599 0.0003402 -0.0001744 0.0001162 -0.0000436 0.0001343 0.0004100 0.0003144 0.0000325 0.0000942 -0.0002982 0.0003950 -0.0004696 0.0002692 -0.0003738 0.0003572 -0.0008049
-0.0030210 0.0099869 0.0002454 -0.0006284 0.0003497 -0.0001289 0.0001379 0.0000651 0.0001508 0.0004275 0.0003309 0.0001057 0.0001052 -0.0001991 0.0004035 -0.0004009 0.0002753 -0.0003037 0.0003828 -0.0006069
-0.0023603 0.0084609 0.0002438 -0.0004961 0.0003444 -0.0000066 0.0001316 0.0002076 0.0001401 0.0004822 0.0003224 0.0001865 0.0000830 -0.0000866 0.0003901 -0.0003153 0.0002694 -0.0002058 0.0003907 -0.0004502
0.0037409 -0.0074914 0.0002305 -0.0004543 0.0003185 0.0000155 0.0000894 0.0002041 0.0001138 0.0004691 0.0002899 0.0001255 0.0000395 -0.0001463 0.0003635 -0.0004163 0.0002558 -0.0002870 0.0003625 -0.0007119
0.0092281 -0.0224160 0.0002308 -0.0005839 0.0002909 -0.0001537 0.0000504 -0.0000023 0.0000853 0.0004198 0.0002661 -0.0000252 0.0000276 -0.0003007 0.0003567 -0.0005587 0.0002532 -0.0004411 0.0003381 -0.0010190
0.0102039 -0.0252404 0.0002481 -0.0006375 0.0002831 -0.0002548 0.0000359 -0.0001258 0.0000929 0.0003823 0.0002624 -0.0000825 0.0000428 -0.0003392 0.0003589 -0.0005545 0.0002618 -0.0004323 0.0003777 -0.0009157
0.0023405 -0.0041444 0.0002448 -0.0005661 0.0002870 -0.0001474 0.0000222 -0.0000691 0.0001027 0.0003391 0.0002542 -0.0000589 0.0000487 -0.0002867 0.0003499 -0.0005033 0.0002627 -0.0003379 0.0003938 -0.0006505
-0.0006740 0.0040524 0.0002247 -0.0004546 0.0002745 0.0000165 0.0000081 0.0000615 0.0000758 0.0003608 0.0002323 0.0000138 0.0000332 -0.0001874 0.0003334 -0.0004374 0.0002551 -0.0002163 0.0004215 -0.0005323
-0.0019386 0.0071155 0.0002031 -0.0004497 0.0002511 0.0000600 -0.0000176 0.0000885 0.0000587 0.0003393 0.0002021 -0.0000299 -0.0000015 -0.0002692 0.0003004 -0.0005500 0.0002440 -0.0002473 0.0004322 -0.0007352
-0.0000310 0.0016040 0.0001745 -0.0005430 0.0002283 -0.0000352 -0.0000502 -0.0000363 0.0000542 0.0002708 0.0001800 -0.0001539 -0.0000259 -0.0004071 0.0002861 -0.0006637 0.0002444 -0.0003287 0.0004001 -0.0008635
0.0081125 -0.0198764 0.0001697 -0.0005595 0.0002198 -0.0000635 -0.0000584 0.0000026 0.0000695 0.0003572 0.0001994 -0.0000972 -0.0000088 -0.0002716 0.0003377 -0.0004927 0.0002502 -0.0002573 0.0004181 -0.0006564
0.0019354 -0.0031488 0.0001805 -0.0004890 0.0002120 0.0000445 -0.0000624 0.0001543 0.0000813 0.0004981 0.0002044 0.0000008 -0.0000100 -0.0000556 0.0003920 -0.0002277 0.0002370 -0.0001419 0.0004606 -0.0003098
-0.0027562 0.0094660 0.0001655 -0.0003534 0.0001877 0.0002136 -0.0000824 0.0002877 0.0000689 0.0005399 0.0001748 0.0000209 -0.0000429 0.0000343 0.0004014 -0.0001413 0.0002152 -0.0001357 0.0004646 -0.0003069
-0.0039877 0.0122617 0.0001267 -0.0004117 0.0001616 0.0002023 -0.0001059 0.0002632 0.0000621 0.0004883 0.0001522 -0.0000412 -0.0000647 -0.0000120 0.0004071 -0.0001991 0.0002009 -0.0002325 0.0004525 -0.0005640
-0.0002611 0.0020302 0.0001091 -0.0005478 0.0001591 0.0001390 -0.0001100 0.0002275 0.0000411 0.0003643 0.0001536 -0.0000517 -0.0000703 -0.0000088 0.0004531 -0.0001256 0.0001941 -0.0002482 0.0004684 -0.0005407
0.0120012 -0.0299054 0.0001195 -0.0005070 0.0001927 0.0003352 -0.0000909 0.0004470 0.0000074 0.0002374 0.0001764 0.0000836 -0.0000575 0.0001323 0.0004716 0.0000056 0.0001903 -0.0001605 0.0004507 -0.0002984
0.0097044 -0.0235298 0.0001161 -0.0003714 0.0001955 0.0005472 -0.0000847 0.0007181 -0.0000093 0.0002541 0.0001722 0.0002202 -0.0000502 0.0002228 0.0003825 -0.0000228 0.0001847 -0.0000790 0.0002997 -0.0001969
0.0050667 -0.0108135 0.0001162 -0.0001681 0.0001361 0.0005741 -0.0001422 0.0007418 -0.0001044 0.0000680 0.0000443 -0.0000772 -0.0001532 -0.0001573 0.0001285 -0.0004951 0.0001521 -0.0002698 0.0001511 -0.0006734
0.0061407 -0.0135849 0.0001351 -0.0001741 0.0000441 0.0003026 -0.0002487 0.0003564 -0.0002330 -0.0002388 -0.0000822 -0.0005235 -0.0002460 -0.0006841 -0.0001102 -0.0010303 0.0001357 -0.0005019 0.0001012 -0.0011735
0.0056438 -0.0128902 0.0001326 -0.0002857 -0.0000179 0.0000579 -0.0002927 0.0001553 -0.0002541 -0.0002409 -0.0000663 -0.0004939 -0.0002237 -0.0007682 -0.0001540 -0.0011114 0.0001554 -0.0004539 0.0000966 -0.0011496
0.0033710 -0.0068547 0.0001062 -0.0002275 -0.0000165 0.0001878 -0.0002897 0.0003401 -0.0002396 -0.0001797 -0.0000341 -0.0003034 -0.0002218 -0.0006074 -0.0001125 -0.0009381 0.0001669 -0.0002835 0.0001139 -0.0007998
-0.0004518 0.0035845 0.0000884 -0.0001099 0.0000082 0.0005114 -0.0002929 0.0005889 -0.0002340 -0.0000880 -0.0000179 -0.0000851 -0.0002220 -0.0003421 -0.0000460 -0.0006802 0.0001621 -0.0001175 0.0001435 -0.0005822
-0.0013012 0.0056779 0.0000670 -0.0001288 -0.0000011 0.0006350 -0.0003108 0.0006584 -0.0002033 0.0000018 -0.0000136 -0.0000154 -0.0002310 -0.0002705 0.0000015 -0.0006180 0.0001424 -0.0001633 0.0001386 -0.0007980
0.0034003 -0.0069861 0.0000307 -0.0002570 -0.0000435 0.0004522 -0.0003537 0.0004559 -0.0001775 0.0000306 -0.0000159 -0.0000916 -0.0002507 -0.0003024 0.0000475 -0.0005911 0.0001330 -0.0002478 0.0001269 -0.0009007
0.0056013 -0.0128948 0.0000224 -0.0002712 -0.0000620 0.0003843 -0.0003705 0.0003974 -0.0001692 0.0000701 -0.0000070 -0.0000390 -0.0002440 -0.0001740 0.0000940 -0.0004106 0.0001330 -0.0001666 0.0001572 -0.0007110
0.0031679 -0.0063884 0.0000377 -0.0001542 -0.0000727 0.0005001 -0.0003795 0.0005315 -0.0001576 0.0001425 -0.0000054 0.0000881 -0.0002466 -0.0000005 0.0001107 -0.0002256 0.0001248 -0.0000242 0.0001435 -0.0004026
-0.0007033 0.0042157 0.0000292 0.0000290 -0.0000985 0.0006574 -0.0004196 0.0007188 -0.0001760 0.0002386 -0.0000266 0.0002103 -0.0002757 0.0001497 0.0000993 -0.0000943 0.0001038 0.0000933 0.0001036 -0.0002702
0.0039416 -0.0081251 -0.0000020 0.0000324 -0.0001320 0.0006782 -0.0004558 0.0007422 -0.0001861 0.0002270 -0.0000606 0.0001671 -0.0003118 0.0000794 0.0000725 -0.0001463 0.0000820 0.0000251 0.0000551 -0.0005303
0.0107749 -0.0264945 -0.0000302 -0.0001138 -0.0001612 0.0005096 -0.0004803 0.0005503 -0.0001882 0.0001323 -0.0000841 0.0000444 -0.0003239 -0.0000654 0.0000679 -0.0002328 0.0000763 -0.0000737 0.0000408 -0.0006888
0.0058763 -0.0138142 -0.0000298 -0.0001412 -0.0001694 0.0004493 -0.0004869 0.0005149 -0.0002009 0.0001509 -0.0000872 0.0000854 -0.0003079 -0.0000325 0.0000746 -0.0001617 0.0000770 -0.0000030 0.0000551 -0.0004800
0.0001630 0.0012197 -0.0000206 -0.0000311 -0.0001697 0.0005755 -0.0004970 0.0006751 -0.0002050 0.0002439 -0.0000932 0.0002081 -0.0003107 0.0000914 0.0000603 -0.0000185 0.0000702 0.0001503 0.0000405 -0.0001335
-0.0039010 0.0124438 -0.0000178 0.0001389 -0.0001880 0.0007534 -0.0005366 0.0008629 -0.0002129 0.0003409 -0.0001125 0.0003600 -0.0003416 0.0002906 0.0000439 0.0001777 0.0000544 0.0003407 -0.0000127 0.0001511
-0.0010239 0.0051038 -0.0000322 0.0001861 -0.0002146 0.0008177 -0.0005801 0.0009236 -0.0002135 0.0003827 -0.0001446 0.0003562 -0.0003766 0.0002608 0.0000175 0.0001573 0.0000330 0.0003233 -0.0000707 0.0000027
0.0020439 -0.0035171 -0.0000569 0.0000688 -0.0002395 0.0006800 -0.0006084 0.0007646 -0.0002135 0.0003332 -0.0001769 0.0002420 -0.0003976 0.0000843 -0.0000053 0.0000154 0.0000189 0.0002106 -0.0001272 -0.0001809
-0.0008089 0.0037488 -0.0000546 0.0000353 -0.0002519 0.0006109 -0.0006183 0.0006980 -0.0002187 0.0003283 -0.0001909 0.0002631 -0.0004029 0.0001027 -0.0000073 0.0000852 0.0000164 0.0002766 -0.0001328 -0.0000050
-0.0001523 0.0025197 -0.0000514 0.0001556 -0.0002487 0.0007223 -0.0006308 0.0008446 -0.0002291 0.0004044 -0.0002049 0.0003677 -0.0004120 0.0002238 -0.0000173 0.0002341 0.0000094 0.0004200 -0.0001078 0.0002860
-0.0031849 0.0108548 -0.0000488 0.0003046 -0.0002578 0.0008891 -0.0006594 0.0010288 -0.0002488 0.0004943 -0.0002267 0.0005083 -0.0004338 0.0003884 -0.0000331 0.0003627 -0.0000096 0.0005477 -0.0001612 0.0004496
-0.0039443 0.0128084 -0.0000642 0.0003082 -0.0002808 0.0009204 -0.0006869 0.0010549 -0.0002577 0.0005067 -0.0002535 0.0004986 -0.0004633 0.0003772 -0.0000418 0.0003437 -0.0000329 0.0005082 -0.0002183 0.0002836
0.0012970 -0.0014795 -0.0000944 0.0002133 -0.0002970 0.0008167 -0.0007053 0.0009356 -0.0002768 0.0004614 -0.0002793 0.0004056 -0.0004738 0.0002884 -0.0000315 0.0003293 -0.0000449 0.0004309 -0.0002214 0.0002261
0.0027443 -0.0054567 -0.0000916 0.0002247 -0.0002935 0.0008329 -0.0007099 0.0009614 -0.0002847 0.0004572 -0.0002890 0.0004605 -0.0004695 0.0003923 -0.0000029 0.0005031 -0.0000499 0.0005066 -0.0002171 0.0005036
0.0010155 -0.0005557 -0.0000830 0.0003296 -0.0002872 0.0009763 -0.0007042 0.0011373 -0.0002959 0.0005478 -0.0002964 0.0005918 -0.0004793 0.0005590 0.0000087 0.0006898 -0.0000587 0.0006596 -0.0002421 0.0008397
-0.0011185 0.0052046 -0.0000966 0.0004807 -0.0002947 0.0011545 -0.0007158 0.0013226 -0.0003108 0.0006170 -0.0003147 0.0006499 -0.0004972 0.0005965 -0.0000015 0.0006912 -0.0000695 0.0006571 -0.0002930 0.0007293
-0.0029948 0.0099495 -0.0001188 0.0003902 -0.0003018 0.0010858 -0.0007298 0.0012340 -0.0003057 0.0005407 -0.0003373 0.0005665 -0.0005097 0.0004878 0.0000053 0.0005816 -0.0000739 0.0005149 -0.0003141 0.0004212
-0.0004443 0.0028819 -0.0001141 0.0001919 -0.0002819 0.0009598 -0.0006987 0.0011225 -0.0003182 0.0004595 -0.0003433 0.0005535 -0.0004988 0.0004602 0.0000395 0.0006181 -0.0000711 0.0004683 -0.0002904 0.0005209
0.0100706 -0.0247291 -0.0001077 0.0002384 -0.0002405 0.0011093 -0.0006535 0.0012910 -0.0003443 0.0004772 -0.0003301 0.0006981 -0.0004804 0.0005630 0.0000618 0.0007523 -0.0000632 0.0005437 -0.0002473 0.0008350
0.0058563 -0.0130791 -0.0001081 0.0003762 -0.0002183 0.0013212 -0.0006509 0.0015139 -0.0003545 0.0005447 -0.0003199 0.0008919 -0.0004735 0.0006807 0.0000743 0.0008364 -0.0000573 0.0006164 -0.0002387 0.0008977
-0.0014674 0.0062562 -0.0001057 0.0003106 -0.0002157 0.0013292 -0.0006441 0.0015033 -0.0003452 0.0005082 -0.0003269 0.0008697 -0.0004769 0.0005802 0.0000783 0.0007150 -0.0000546 0.0005017 -0.0002399 0.0005794
0.0009363 -0.0005377 -0.0000941 0.0001213 -0.0002049 0.0011687 -0.0006185 0.0013057 -0.0003278 0.0004248 -0.0003272 0.0007489 -0.0004527 0.0004172 0.0000980 0.0006024 -0.0000348 0.0003734 -0.0001648 0.0004468
0.0013490 -0.0016108 -0.0000827 0.0000932 -0.0001676 0.0011791 -0.0006019 0.0012379 -0.0003466 0.0003710 -0.0002466 0.0010420 -0.0004017 0.0004533 0.0001690 0.0007325 -0.0000106 0.0004116 -0.0000882 0.0007020
-0.0005792 0.0038508 -0.0000783 0.0001813 -0.0001212 0.0013673 -0.0005638 0.0014072 -0.0003562 0.0004047 -0.0001332 0.0015245 -0.0003614 0.0006189 0.0002309 0.0009040 0.0000023 0.0005537 -0.0000356 0.0009131
0.0047710 -0.0099590 -0.0000798 0.0002256 -0.0000891 0.0014703 -0.0005339 0.0015784 -0.0003429 0.0004204 -0.0001151 0.0015541 -0.0003536 0.0005973 0.0002461 0.0008032 0.0000182 0.0005182 -0.0000216 0.0006389
0.0088888 -0.0212244 -0.0000792 0.0001140 -0.0000761 0.0013455 -0.0005203 0.0014445 -0.0003490 0.0003270 -0.0001370 0.0013271 -0.0003479 0.0004159 0.0002600 0.0006113 0.0000475 0.0003635 -0.0000134 0.0003256
0.0029493 -0.0059216 -0.0000538 0.0000373 -0.0000594 0.0012399 -0.0004820 0.0013206 -0.0003330 0.0003229 -0.0001206 0.0012892 -0.0003151 0.0004034 0.0002846 0.0006195 0.0000831 0.0003755 0.0000713 0.0003694
-0.0002787 0.0028869 -0.0000234 0.0001156 -0.0000365 0.0013183 -0.0004610 0.0013877 -0.0003239 0.0003947 -0.0001017 0.0013485 -0.0002819 0.0004855 0.0002949 0.0006910 0.0001074 0.0004835 0.0001264 0.0006087
-0.0004534 0.0036428 -0.0000227 0.0002575 -0.0000252 0.0014519 -0.0004509 0.0014878 -0.0003100 0.0004343 -0.0001008 0.0013313 -0.0002724 0.0004932 0.0002878 0.0006259 0.0001165 0.0004679 0.0001098 0.0005131
-0.0001645 0.0025471 -0.0000236 0.0001606 -0.0000243 0.0013598 -0.0004418 0.0013795 -0.0003045 0.0003878 -0.0001080 0.0011766 -0.0002726 0.0003719 0.0002884 0.0004776 0.0001288 0.0003393 0.0001244 0.0001701
0.0058003 -0.0136675 -0.0000027 -0.0000115 -0.0000152 0.0011882 -0.0004228 0.0012159 -0.0003070 0.0003468 -0.0001030 0.0010767 -0.0002588 0.0003392 0.0003070 0.0004675 0.0001491 0.0003176 0.0001751 0.0001939
0.0032628 -0.0066827 0.0000181 0.0000388 0.0000028 0.0012333 -0.0003974 0.0012554 -0.0002930 0.0003684 -0.0000856 0.0011200 -0.0002503 0.0004558 0.0003261 0.0005661 0.0001625 0.0003968 0.0002207 0.0003939
0.0025145 -0.0041904 0.0000334 0.0001710 0.0000093 0.0013616 -0.0003998 0.0013828 -0.0002985 0.0004528 -0.0000782 0.0012002 -0.0002514 0.0005682 0.0003325 0.0006239 0.0001624 0.0004383 0.0001935 0.0004037
0.0119832 -0.0293981 0.0000215 0.0001389 0.0000017 0.0013265 -0.0004161 0.0013541 -0.0002875 0.0004449 -0.0000870 0.0011048 -0.0002670 0.0005007 0.0003301 0.0005258 0.0001608 0.0003374 0.0001551 0.0001626
-0.0025396 0.0084511 0.0000255 -0.0000128 -0.0000023 0.0011655 -0.0004132 0.0011736 -0.0002747 0.0003648 -0.0000765 0.0010082 -0.0002761 0.0004306 0.0003553 0.0005054 0.0001659 0.0002630 0.0002073 0.0000802
-0.0057422 0.0169995 0.0000541 -0.0000098 0.0000095 0.0011654 -0.0003927 0.0011657 -0.0002723 0.0003760 -0.0000480 0.0010983 -0.0002628 0.0005266 0.0003817 0.0006334 0.0001750 0.0003378 0.0002352 0.0002900
0.0016182 -0.0019455 0.0000655 0.0001071 0.0000176 0.0012958 -0.0003860 0.0012941 -0.0002674 0.0004408 -0.0000368 0.0012026 -0.0002610 0.0006678 0.0003727 0.0007600 0.0001773 0.0004834 0.0002335 0.0005563
0.0044462 -0.0090920 0.0000470 0.0001626 0.0000154 0.0013754 -0.0003933 0.0013590 -0.0002762 0.0004658 -0.0000295 0.0012347 -0.0002740 0.0006879 0.0003780 0.0007518 0.0001678 0.0004433 0.0002226 0.0004018
0.0030649 -0.0057919 0.0000357 0.0000559 0.0000070 0.0012809 -0.0004015 0.0012470 -0.0002893 0.0004225 -0.0000252 0.0011742 -0.0002886 0.0005961 0.0003926 0.0006594 0.0001655 0.0003142 0.0002268 0.0001321
0.0042025 -0.0089870 0.0000439 0.0000115 0.0000038 0.0012140 -0.0004127 0.0011848 -0.0002811 0.0004071 -0.0000194 0.0011618 -0.0002932 0.0006256 0.0003928 0.0006922 0.0001749 0.0003544 0.0002567 0.0002458
0.0068710 -0.0157047 0.0000492 0.0001122 0.0000061 0.0013128 -0.0004142 0.0012931 -0.0002821 0.0004741 -0.0000118 0.0012465 -0.0002889 0.0007461 0.0003843 0.0008108 0.0001777 0.0004733 0.0002801 0.0005177
0.0014729 -0.0010041 0.0000381 0.0002661 -0.0000024 0.0014634 -0.0004140 0.0014159 -0.0002929 0.0005303 -0.0000156 0.0012812 -0.0003023 0.0007842 0.0003706 0.0008197 0.0001697 0.0004774 0.0002608 0.0004427
-0.0003212 0.0031817 0.0000262 0.0001910 -0.0000186 0.0014021 -0.0004301 0.0013166 -0.0002844 0.0004715 -0.0000310 0.0011888 -0.0003240 0.0007095 0.0003635 0.0007331 0.0001655 0.0003880 0.0002286 0.0001951
0.0029892 -0.0059654 0.0000310 0.0000631 -0.0000248 0.0012634 -0.0004500 0.0011902 -0.0002817 0.0004456 -0.0000377 0.0011467 -0.0003301 0.0007184 0.0003691 0.0007417 0.0001690 0.0004003 0.0002653 0.0002561
0.0033493 -0.0064186 0.0000365 0.0001608 -0.0000215 0.0013272 -0.0004558 0.0012864 -0.0002984 0.0005270 -0.0000332 0.0012252 -0.0003329 0.0008509 0.0003675 0.0008485 0.0001703 0.0005016 0.0002771 0.0004811
0.0057382 -0.0125960 0.0000358 0.0003093 -0.0000279 0.0014704 -0.0004622 0.0014194 -0.0003046 0.0006020 -0.0000410 0.0012980 -0.0003370 0.0009464 0.0003486 0.0009009 0.0001621 0.0005374 0.0002424 0.0004668
0.0028088 -0.0049349 0.0000157 0.0002602 -0.0000463 0.0014232 -0.0004813 0.0013522 -0.0002937 0.0005475 -0.0000619 0.0012053 -0.0003473 0.0008677 0.0003345 0.0008039 0.0001527 0.0004403 0.0002018 0.0002084
0.0005640 0.0005732 0.0000049 0.0001009 -0.0000576 0.0012444 -0.0004867 0.0011567 -0.0003007 0.0004755 -0.0000788 0.0010816 -0.0003581 0.0007782 0.0003291 0.0007314 0.0001577 0.0003878 0.0002007 0.0001605
0.0032940 -0.0066704 0.0000124 0.0001000 -0.0000550 0.0012344 -0.0004862 0.0011605 -0.0003029 0.0004964 -0.0000740 0.0011480 -0.0003465 0.0008406 0.0003153 0.0007663 0.0001669 0.0004534 0.0002124 0.0003174
0.0016885 -0.0021251 0.0000236 0.0001791 -0.0000470 0.0013459 -0.0004834 0.0012734 -0.0002962 0.0005382 -0.0000753 0.0012461 -0.0003456 0.0008806 0.0002728 0.0007636 0.0001671 0.0005164 0.0001861 0.0003629
-0.0002941 0.0028170 0.0000209 0.0001421 -0.0000505 0.0013167 -0.0004778 0.0012565 -0.0002809 0.0005448 -0.0000907 0.0011625 -0.0003573 0.0007626 0.0002468 0.0006444 0.0001672 0.0004183 0.0001629 0.0001047
0.0023994 -0.0044903 0.0000044 -0.0000059 -0.0000592 0.0010956 -0.0004803 0.0010375 -0.0002763 0.0004261 -0.0000981 0.0010338 -0.0003631 0.0006351 0.0002637 0.0005681 0.0001742 0.0002812 0.0001728 -0.0000837
0.0017423 -0.0028115 0.0000053 -0.0000356 -0.0000485 0.0009803 -0.0004731 0.0009319 -0.0002964 0.0003558 -0.0000971 0.0010403 -0.0003494 0.0006756 0.0002808 0.0006421 0.0001838 0.0002932 0.0002024 0.0000136
-0.0004943 0.0030803 0.0000240 0.0000334 -0.0000320 0.0010329 -0.0004676 0.0010184 -0.0002841 0.0004066 -0.0000904 0.0011288 -0.0003433 0.0008373 0.0002856 0.0007797 0.0001862 0.0003936 0.0002242 0.0002723
-0.0009442 0.0046525 0.0000283 0.0000891 -0.0000222 0.0010979 -0.0004602 0.0010384 -0.0002531 0.0003913 -0.0000912 0.0011342 -0.0003612 0.0008555 0.0002839 0.0007676 0.0001797 0.0003578 0.0002103 0.0001593
-0.0013377 0.0054615 0.0000052 -0.0000023 -0.0000158 0.0009531 -0.0004538 0.0008435 -0.0002583 0.0002971 -0.0000939 0.0010395 -0.0003650 0.0007129 0.0002958 0.0006737 0.0001812 0.0002175 0.0002240 -0.0001850
0.0058716 -0.0139882 0.0000061 -0.0001080 0.0000061 0.0007708 -0.0004298 0.0006292 -0.0002663 0.0002195 -0.0000809 0.0010370 -0.0003552 0.0006478 0.0003232 0.0007154 0.0001910 0.0001926 0.0002391 -0.0000976
0.0070847 -0.0167728 0.0000200 -0.0000720 0.0000443 0.0008181 -0.0003820 0.0006369 -0.0002620 0.0001940 -0.0000684 0.0011125 -0.0003495 0.0007372 0.0003363 0.0008461 0.0001900 0.0002669 0.0002394 0.0001193
0.0025684 -0.0041523 0.0000146 0.0000442 0.0000677 0.0009725 -0.0003628 0.0007884 -0.0002525 0.0002171 -0.0000576 0.0012045 -0.0003427 0.0008299 0.0003177 0.0008482 0.0001852 0.0002987 0.0002308 0.0000684
0.0026186 -0.0045007 0.0000032 -0.0000004 0.0000702 0.0009128 -0.0003644 0.0006892 -0.0002177 0.0001919 -0.0000404 0.0012068 -0.0003230 0.0006482 0.0002761 0.0006561 0.0001823 0.0002081 0.0002131 -0.0001675
0.0004692 0.0004693 -0.0000067 -0.0001358 0.0000788 0.0007011 -0.0003616 0.0004162 -0.0001928 0.0000623 -0.0000340 0.0011186 -0.0003050 0.0004276 0.0002568 0.0005651 0.0001901 0.0001581 0.0002292 -0.0002224
0.0010769 -0.0010755 0.0000132 -0.0001057 0.0000983 0.0006519 -0.0003311 0.0003587 -0.0001824 0.0000316 -0.0000290 0.0011106 -0.0002905 0.0004404 0.0002593 0.0006636 0.0002066 0.0002371 0.0002366 -0.0000116
0.0068777 -0.0161792 0.0000438 0.0000035 0.0001094 0.0007272 -0.0003099 0.0004489 -0.0001713 0.0001189 -0.0000204 0.0011752 -0.0002819 0.0005488 0.0002328 0.0007715 0.0002142 0.0003659 0.0001839 0.0002935
0.0037739 -0.0080644 0.0000284 0.0000429 0.0001074 0.0007497 -0.0003091 0.0004457 -0.0001901 0.0000813 -0.0000426 0.0010697 -0.0002975 0.0004648 0.0001889 0.0006629 0.0002136 0.0003248 0.0001434 0.0001680
-0.0009824 0.0042680 -0.0000106 -0.0000659 0.0000969 0.0006035 -0.0003204 0.0002219 -0.0002073 -0.0000857 -0.0000707 0.0008924 -0.0003172 0.0003336 0.0001738 0.0005567 0.0002109 0.0002446 0.0001659 -0.0000206
-0.0011081 0.0045011 -0.0000013 -0.0001399 0.0001032 0.0005455 -0.0003225 0.0001296 -0.0002075 -0.0001763 -0.0000861 0.0008557 -0.0003231 0.0003210 0.0001654 0.0005870 0.0002135 0.0003281 0.0001830 0.0001112
0.0000973 0.0013495 0.0000197 -0.0000555 0.0001121 0.0006219 -0.0003042 0.0001947 -0.0001839 -0.0001367 -0.0001181 0.0007881 -0.0003308 0.0003645 0.0001312 0.0006266 0.0002154 0.0004380 0.0001341 0.0003245
0.0014374 -0.0020889 0.0000094 0.0001021 0.0000867 0.0006593 -0.0003212 0.0002317 -0.0001609 -0.0000368 -0.0001532 0.0006710 -0.0003524 0.0004055 0.0000867 0.0006014 0.0002047 0.0004247 0.0000432 0.0003548
0.0043722 -0.0100046 -0.0000108 0.0000572 0.0000552 0.0005052 -0.0003516 0.0000965 -0.0001459 -0.0000206 -0.0001764 0.0005321 -0.0003748 0.0002773 0.0000264 0.0004438 0.0001946 0.0003473 0.0000248 0.0001601
-0.0022765 0.0072104 -0.0000307 -0.0000597 0.0000410 0.0003036 -0.0003676 -0.0000728 -0.0001059 -0.0000210 -0.0001766 0.0004862 -0.0003906 0.0001711 -0.0000374 0.0003449 0.0002039 0.0003690 0.0000112 0.0001792
-0.0081053 0.0229678 -0.0000381 0.0000034 0.0000272 0.0002980 -0.0003702 -0.0000587 -0.0000863 0.0000705 -0.0001807 0.0005564 -0.0004056 0.0002261 -0.0000749 0.0004231 0.0002051 0.0004740 -0.0000023 0.0004042
-0.0052813 0.0159029 -0.0000501 0.0001366 0.0000163 0.0004132 -0.0003666 0.0000862 -0.0000893 0.0001552 -0.0001972 0.0006397 -0.0004074 0.0003062 -0.0001043 0.0004842 0.0001901 0.0005460 -0.0000377 0.0004663
-0.0015864 0.0059741 -0.0000664 0.0000838 0.0000098 0.0004029 -0.0003710 0.0001085 -0.0000898 0.0000994 -0.0002097 0.0005794 -0.0004248 0.0002122 -0.0001216 0.0003910 0.0001787 0.0004673 -0.0001038 0.0002548
0.0009550 -0.0010388 -0.0000691 -0.0000873 0.0000024 0.0002483 -0.0003691 -0.0000676 -0.0000896 -0.0000382 -0.0002293 0.0004258 -0.0004339 0.0000608 -0.0001207 0.0003263 0.0001685 0.0003909 -0.0000978 0.0002179
0.0022007 -0.0045841 -0.0000749 -0.0000770 0.0000341 0.0003280 -0.0003305 -0.0000289 -0.0001161 -0.0001504 -0.0002316 0.0004979 -0.0004179 0.0000531 -0.0001112 0.0004210 0.0001549 0.0004462 -0.0000801 0.0004826
-0.0006640 0.0034182 -0.0000709 0.0000501 0.0000931 0.0006441 -0.0002687 0.0003028 -0.0001525 -0.0001863 -0.0002209 0.0006941 -0.0004219 0.0001483 -0.0001058 0.0005436 0.0001423 0.0005316 -0.0001033 0.0006255
0.0020306 -0.0033427 -0.0000838 0.0000623 0.0000993 0.0007117 -0.0002493 0.0003951 -0.0001509 -0.0002232 -0.0002319 0.0006605 -0.0004270 0.0001502 -0.0001004 0.0004845 0.0001466 0.0004634 -0.0001617 0.0005046
0.0064826 -0.0156094 -0.0000985 -0.0000663 0.0000744 0.0004912 -0.0002652 0.0001677 -0.0001573 -0.0003067 -0.0002483 0.0005077 -0.0004144 0.0000955 -0.0000818 0.0004140 0.0001582 0.0003629 -0.0001555 0.0004454
0.0031493 -0.0070121 -0.0000775 -0.0000887 0.0000758 0.0004260 -0.0002676 0.0001046 -0.0001585 -0.0003079 -0.0002511 0.0005329 -0.0004063 0.0001966 -0.0000610 0.0005091 0.0001671 0.0004289 -0.0001123 0.0006777
0.0045025 -0.0101944 -0.0000701 0.0000408 0.0000848 0.0005576 -0.0002692 0.0002241 -0.0001483 -0.0002517 -0.0002558 0.0006527 -0.0004156 0.0003764 -0.0000439 0.0006633 0.0001655 0.0005629 -0.0000993 0.0009062
0.0077750 -0.0186255 -0.0000887 0.0000887 0.0000820 0.0006159 -0.0002708 0.0002516 -0.0001409 -0.0002422 -0.0002659 0.0006579 -0.0004347 0.0003998 -0.0000307 0.0006523 0.0001512 0.0005262 -0.0001123 0.0007642
-0.0016117 0.0060011 -0.0000976 -0.0000169 0.0000761 0.0005028 -0.0002615 0.0001152 -0.0001264 -0.0002655 -0.0002669 0.0005870 -0.0004431 0.0003310 -0.0000141 0.0005728 0.0001461 0.0004173 -0.0001193 0.0006528
-0.0052447 0.0155359 -0.0000894 -0.0000283 0.0000817 0.0004619 -0.0002456 0.0000902 -0.0001109 -0.0002257 -0.0002530 0.0006317 -0.0004300 0.0003838 0.0000018 0.0006376 0.0001462 0.0004617 -0.0000907 0.0008485
-0.0027941 0.0093218 -0.0000757 0.0000813 0.0000925 0.0005899 -0.0002357 0.0002671 -0.0000922 -0.0001448 -0.0002381 0.0007566 -0.0004190 0.0005155 0.0000123 0.0007573 0.0001409 0.0005668 -0.0000762 0.0010514
-0.0004917 0.0033309 -0.0000672 0.0001075 0.0000956 0.0006585 -0.0002279 0.0003465 -0.0000945 -0.0001070 -0.0002332 0.0007714 -0.0004281 0.0005093 0.0000220 0.0007275 0.0001344 0.0005260 -0.0001017 0.0009449
-0.0013390 0.0053764 -0.0000638 0.0000282 0.0000946 0.0005816 -0.0002196 0.0002495 -0.0000907 -0.0001116 -0.0002280 0.0007113 -0.0004342 0.0004225 0.0000454 0.0006454 0.0001363 0.0004226 -0.0001060 0.0007697
-0.0004879 0.0031656 -0.0000499 0.0000119 0.0001045 0.0005595 -0.0002093 0.0002559 -0.0000747 -0.0000981 -0.0002148 0.0007385 -0.0004267 0.0004731 0.0000713 0.0007136 0.0001434 0.0004527 -0.0000696 0.0008970
