-0.0000000 -0.0000000 -0.0000000 -0.0000000 -0.0000000 -0.0000000 -0.0000000 -0.0000000 -0.0000000 -0.0000000 -0.0000000 -0.0000000 -0.0000000 -0.0000000 -0.0000000 -0.0000000 -0.0000000 -0.0000000 -0.0000000 -0.0000000
-0.0000000 -0.0000000 -0.0000000 -0.0000000 -0.0000000 -0.0000000 -0.0000000 -0.0000000 -0.0000000 -0.0000000 -0.0000000 -0.0000000 -0.0000000 -0.0000000 -0.0000000 -0.0000000 -0.0000000 -0.0000000 -0.0000000 -0.0000000
-0.0054211 0.0057411 0.0022617 0.0018279 -0.0020723 0.0091562 -0.0000134 0.0000601 0.0000025 0.0000338 0.0000064 0.0000742 0.0000012 0.0000407 0.0001146 -0.0020994 -0.0019698 0.0026290 -0.0020147 0.0028804
-0.0021739 -0.0048044 0.0069248 -0.0188039 0.0052985 -0.0157557 0.0000139 0.0001093 -0.0000148 0.0000404 0.0000100 0.0000031 0.0000150 0.0000332 0.0011427 -0.0042479 -0.0021803 -0.0024447 0.0141237 -0.0167770
-0.0080738 0.0003432 0.0024135 -0.0147937 0.0097392 -0.0168851 0.0000738 0.0001119 -0.0000143 -0.0000407 0.0000086 -0.0001757 0.0000337 -0.0000121 0.0003018 -0.0029143 0.0002674 -0.0117028 0.0175369 -0.0202346
-0.0036945 0.0061023 -0.0021639 -0.0004327 -0.0004272 0.0039484 0.0001094 0.0000557 -0.0000280 -0.0000451 0.0000097 -0.0001511 0.0000403 -0.0000053 -0.0068916 0.0118133 -0.0056132 -0.0056869 0.0130919 -0.0171440
0.0037413 -0.0070685 -0.0073046 0.0089578 -0.0084738 0.0108846 0.0001558 -0.0000416 -0.0000254 -0.0000286 0.0000009 -0.0000587 0.0000493 0.0000140 -0.0003955 0.0009643 -0.0127781 -0.0059510 0.0086585 -0.0165737
0.0063368 -0.0252584 -0.0078806 0.0032838 -0.0046415 0.0055652 0.0000881 0.0000075 0.0000015 0.0000283 0.0000021 0.0000743 0.0000447 0.0000736 -0.0007443 -0.0050712 -0.0000087 -0.0132453 -0.0169331 0.0101197
-0.0029827 -0.0001582 0.0090599 -0.0255791 0.0002430 0.0028399 -0.0000376 0.0001419 0.0000209 0.0000542 0.0000111 0.0000537 0.0000381 0.0000823 0.0006727 -0.0059562 0.0063556 -0.0075165 -0.0093395 0.0093407
-0.0058435 0.0065400 0.0045438 -0.0136600 -0.0015431 0.0030606 -0.0000582 0.0000842 0.0000118 -0.0000903 0.0000159 -0.0001330 0.0000372 0.0000088 0.0200953 -0.0450969 0.0097063 -0.0098097 0.0047761 -0.0079193
0.0022882 -0.0046038 0.0006148 0.0013416 0.0000141 -0.0047202 0.0000209 -0.0001278 -0.0000478 -0.0001858 0.0000171 -0.0001836 0.0000335 -0.0000312 0.0093097 -0.0231785 0.0081186 -0.0130358 0.0048690 -0.0094308
0.0055649 -0.0099521 -0.0023029 0.0059362 0.0057307 -0.0257004 0.0000555 -0.0001241 -0.0000777 -0.0001013 0.0000170 -0.0001073 0.0000324 -0.0000121 -0.0079202 0.0126393 -0.0087691 0.0067169 0.0065383 -0.0031631
0.0014257 -0.0010593 -0.0036494 -0.0019277 -0.0028625 -0.0057805 0.0000421 -0.0000602 -0.0000638 -0.0000263 0.0000165 0.0000001 0.0000426 0.0000259 -0.0182561 0.0194952 -0.0486930 0.0310011 0.0157964 -0.0234109
0.0026668 -0.0054533 0.0006703 -0.0060060 -0.0033403 0.0086568 0.0000363 -0.0000088 -0.0000111 0.0000236 0.0000162 0.0001388 0.0000430 0.0000847 -0.0147108 0.0043126 -0.0190144 0.0021663 0.0108565 -0.0201200
0.0055217 -0.0187455 -0.0023112 0.0062276 0.0037376 -0.0082222 0.0000304 0.0000322 0.0000270 -0.0000056 0.0000142 0.0000461 0.0000417 0.0000490 -0.0036406 0.0006501 0.0063440 -0.0158180 -0.0063773 0.0081057
0.0051584 -0.0128344 0.0073229 -0.0095553 -0.0005699 -0.0016166 0.0000619 0.0000567 0.0000060 -0.0000988 0.0000182 -0.0001647 0.0000398 -0.0000463 -0.0034309 0.0071056 0.0134237 -0.0180010 -0.0207476 0.0221458
0.0051212 -0.0156288 0.0118502 -0.0141147 -0.0024678 0.0083088 0.0000870 0.0002312 -0.0000263 -0.0001240 -0.0000184 -0.0002959 0.0000079 0.0000288 0.0008785 -0.0027163 0.0179352 -0.0301291 -0.0165170 0.0114994
0.0039959 -0.0103986 0.0063297 -0.0126427 0.0037466 -0.0087443 0.0000966 0.0003830 -0.0000501 -0.0001017 -0.0000491 -0.0003056 -0.0000314 0.0001139 0.0091076 -0.0232848 0.0063839 -0.0112472 -0.0000413 -0.0032824
0.0092542 -0.0092688 0.0052078 -0.0135494 0.0058661 -0.0115098 0.0001333 0.0004007 -0.0000278 -0.0000272 -0.0000176 -0.0000641 -0.0000263 0.0001115 0.0070823 -0.0189688 -0.0085085 0.0090167 0.0058884 -0.0036204
0.0136275 -0.0187264 0.0016818 0.0031869 0.0045948 -0.0042033 0.0002369 0.0005474 -0.0000095 0.0001169 0.0000030 0.0000989 -0.0000013 0.0001276 0.0090872 -0.0234770 -0.0047579 0.0011827 0.0068765 -0.0063833
-0.0005764 -0.0009833 0.0021537 -0.0042947 0.0003691 -0.0010713 0.0003018 0.0006139 -0.0000266 0.0000703 0.0000077 -0.0000272 0.0000215 0.0000502 0.0125442 -0.0284772 -0.0010689 -0.0038047 0.0089514 -0.0126121
-0.0080104 0.0064315 0.0030172 -0.0030146 -0.0072075 0.0059525 0.0002533 0.0003934 -0.0000390 -0.0001009 0.0000101 -0.0001681 0.0000292 -0.0000252 0.0047397 -0.0117239 -0.0054032 0.0060230 -0.0025425 0.0016958
-0.0005137 -0.0000356 -0.0019535 0.0136996 -0.0055010 0.0060989 0.0001241 0.0002598 -0.0000305 -0.0001856 0.0000122 -0.0001320 0.0000189 -0.0000161 0.0052118 -0.0072441 -0.0021521 0.0118133 -0.0077191 0.0077284
-0.0034934 0.0045220 -0.0020082 0.0106673 0.0058248 -0.0115355 0.0000360 0.0001441 -0.0000169 -0.0002346 0.0000153 -0.0000385 0.0000136 0.0000247 0.0044066 -0.0049587 0.0087643 -0.0058216 0.0113531 -0.0202092
-0.0034731 -0.0025663 -0.0001466 0.0055744 0.0088620 -0.0186930 0.0000722 0.0000351 -0.0000584 -0.0001778 0.0000133 0.0001090 0.0000087 0.0001027 0.0030598 -0.0030838 0.0118402 -0.0133509 0.0088969 -0.0105401
-0.0018538 0.0004759 -0.0063775 0.0100926 -0.0036158 -0.0037096 0.0000666 0.0000725 -0.0001180 -0.0001156 0.0000124 0.0000687 0.0000182 0.0000977 0.0047046 -0.0095136 -0.0016299 0.0067631 0.0071543 -0.0030860
-0.0079812 0.0142957 -0.0105009 -0.0001332 -0.0134513 0.0156759 0.0000580 -0.0000462 -0.0001164 -0.0001887 0.0000127 -0.0001216 0.0000256 0.0000112 -0.0046247 -0.0001953 -0.0205340 0.0208581 0.0075715 -0.0084967
-0.0053724 0.0064953 0.0063110 -0.0265437 -0.0107337 0.0162136 0.0000439 -0.0001916 -0.0000498 -0.0003008 0.0000104 -0.0001565 0.0000140 -0.0000180 -0.0075379 0.0065667 -0.0282004 0.0244101 -0.0019994 0.0034508
0.0082185 -0.0123146 0.0094446 -0.0173661 -0.0040100 0.0059396 -0.0000103 -0.0001677 -0.0000179 -0.0002860 0.0000026 -0.0000756 0.0000063 -0.0000071 0.0008050 -0.0031253 -0.0047851 0.0064661 -0.0125301 0.0108095
0.0103961 -0.0102646 0.0064253 -0.0057783 -0.0097081 0.0184907 -0.0000180 -0.0001361 -0.0000378 -0.0001853 0.0000032 0.0000374 0.0000047 0.0000283 -0.0018515 0.0056800 0.0000109 0.0106733 -0.0224490 0.0185491
0.0130317 -0.0156043 0.0012059 0.0030956 -0.0105791 0.0159840 -0.0000663 -0.0000813 -0.0000508 -0.0000987 0.0000125 0.0001362 -0.0000108 0.0000476 -0.0050220 0.0061791 -0.0027022 0.0092561 -0.0083410 0.0078673
0.0094952 -0.0135398 -0.0070792 0.0056839 -0.0015035 -0.0053640 -0.0001267 -0.0001451 -0.0000667 -0.0001824 0.0000176 -0.0000335 -0.0000275 -0.0000417 0.0015153 -0.0026832 -0.0026094 0.0013456 0.0034658 -0.0043052
-0.0004770 -0.0014966 -0.0124508 0.0017102 -0.0007790 0.0056207 -0.0001413 -0.0003141 -0.0000855 -0.0003346 0.0000082 -0.0002663 -0.0000307 -0.0001652 -0.0044120 0.0096032 -0.0143257 0.0149781 0.0035852 0.0020675
-0.0168747 0.0197007 -0.0044067 0.0011952 0.0001876 0.0089780 -0.0000848 -0.0004450 -0.0000646 -0.0003862 -0.0000113 -0.0002772 -0.0000335 -0.0002027 -0.0093227 0.0192724 -0.0153700 0.0171452 0.0052199 -0.0060184
-0.0209084 0.0269982 -0.0025821 0.0017203 0.0010618 0.0038989 -0.0000362 -0.0005001 -0.0000340 -0.0004144 -0.0000247 -0.0002193 -0.0000295 -0.0001863 -0.0065518 0.0139602 -0.0012129 -0.0000516 0.0036838 -0.0160951
0.0012518 -0.0049110 -0.0049450 0.0048212 0.0021922 -0.0007307 -0.0001183 -0.0004633 -0.0000512 -0.0003527 -0.0000282 -0.0001072 -0.0000315 -0.0001306 -0.0012942 -0.0055724 0.0077422 -0.0099866 -0.0091143 0.0081740
0.0176629 -0.0462167 -0.0060316 0.0093488 0.0008019 -0.0087411 -0.0001643 -0.0004349 -0.0000825 -0.0003120 -0.0000272 -0.0001621 -0.0000328 -0.0001133 0.0041238 -0.0046860 0.0150958 -0.0195831 -0.0109293 0.0186711
-0.0087714 0.0070067 -0.0041856 0.0035946 -0.0000696 -0.0078645 -0.0001366 -0.0005076 -0.0000761 -0.0004451 -0.0000259 -0.0003727 -0.0000232 -0.0001807 0.0069191 -0.0072226 0.0214292 -0.0377630 -0.0005177 0.0035414
-0.0108367 0.0179313 -0.0038116 0.0021938 0.0039978 -0.0113645 -0.0000859 -0.0006170 -0.0000786 -0.0005430 -0.0000199 -0.0004312 -0.0000163 -0.0002116 0.0001585 -0.0074529 0.0049769 -0.0081414 0.0103620 -0.0212771
-0.0120265 0.0205770 -0.0024763 0.0039460 0.0090930 -0.0233553 -0.0000504 -0.0006751 -0.0000974 -0.0005361 -0.0000195 -0.0003404 -0.0000124 -0.0001832 -0.0068097 0.0024182 -0.0123724 0.0125184 0.0085896 -0.0092005
-0.0070404 0.0103268 -0.0009234 0.0058107 0.0008146 -0.0071455 -0.0000764 -0.0007237 -0.0001347 -0.0004988 -0.0000237 -0.0001875 -0.0000187 -0.0001160 -0.0051019 0.0025936 -0.0223867 0.0249498 0.0069345 -0.0046582
0.0031816 -0.0108438 -0.0014028 0.0111394 -0.0025805 0.0053762 -0.0001628 -0.0007066 -0.0001228 -0.0004898 -0.0000212 -0.0000017 -0.0000205 -0.0000245 0.0021802 -0.0104038 -0.0128170 0.0132995 0.0018233 -0.0080311
-0.0023559 0.0028204 -0.0022189 -0.0008174 0.0085562 -0.0096954 -0.0002633 -0.0006812 -0.0000890 -0.0005915 -0.0000229 -0.0000826 -0.0000212 -0.0000245 0.0050158 -0.0169553 0.0087256 -0.0175073 -0.0025492 0.0008604
0.0013422 -0.0007531 -0.0011313 -0.0190390 0.0136075 -0.0193762 -0.0002630 -0.0007702 -0.0001081 -0.0007190 -0.0000180 -0.0002971 -0.0000299 -0.0000785 -0.0093301 0.0127924 0.0092145 -0.0045544 -0.0049235 0.0136972
-0.0015646 0.0084702 0.0121596 -0.0359257 0.0079801 -0.0109859 -0.0002591 -0.0007895 -0.0001396 -0.0007310 -0.0000089 -0.0002905 -0.0000271 -0.0000773 -0.0119914 0.0116067 0.0079493 -0.0071363 -0.0034047 0.0058738
-0.0055282 0.0092712 0.0130540 -0.0293368 -0.0014330 -0.0051590 -0.0002464 -0.0007508 -0.0001839 -0.0006647 -0.0000023 -0.0001851 -0.0000158 -0.0000357 0.0067776 -0.0208162 0.0055303 -0.0200360 0.0040297 -0.0090299
-0.0132860 0.0115816 0.0083115 -0.0200825 -0.0079415 0.0115207 -0.0001969 -0.0007089 -0.0001864 -0.0005816 0.0000032 -0.0000358 -0.0000114 0.0000427 0.0042358 -0.0109482 -0.0149336 0.0157755 0.0022335 -0.0025119
-0.0063518 0.0071949 0.0047634 -0.0120612 -0.0036356 0.0123282 -0.0002060 -0.0006219 -0.0001669 -0.0004907 -0.0000065 0.0000684 -0.0000071 0.0000947 -0.0048091 0.0151072 -0.0093025 0.0175454 -0.0007530 0.0000049
0.0004430 0.0049583 0.0035530 -0.0047662 -0.0073562 0.0082596 -0.0002173 -0.0007092 -0.0001444 -0.0005758 -0.0000144 -0.0000787 0.0000037 0.0000483 0.0011410 0.0092680 0.0005655 0.0023968 0.0064577 -0.0184792
-0.0041706 0.0108832 -0.0011827 -0.0013875 -0.0095057 0.0140286 -0.0002635 -0.0008188 -0.0001241 -0.0007049 -0.0000061 -0.0002363 0.0000048 0.0000035 0.0016557 -0.0030203 0.0004600 0.0053887 0.0033303 -0.0189470
-0.0091560 0.0140702 0.0006724 -0.0119974 -0.0085273 0.0178181 -0.0003273 -0.0007570 -0.0001186 -0.0006843 0.0000049 -0.0001874 0.0000040 0.0000304 -0.0008919 0.0028038 0.0050275 0.0000374 -0.0044982 0.0066418
-0.0134241 0.0199043 0.0165299 -0.0341374 -0.0114143 0.0174855 -0.0002916 -0.0006969 -0.0001312 -0.0005822 0.0000104 -0.0000730 0.0000060 0.0000981 0.0011501 0.0032346 0.0144991 -0.0253535 0.0069004 -0.0061482
-0.0036216 -0.0006477 0.0124800 -0.0173351 -0.0030966 0.0040014 -0.0001405 -0.0007143 -0.0001382 -0.0004585 0.0000153 0.0000784 0.0000180 0.0002120 -0.0044277 0.0083070 0.0085865 -0.0214754 0.0139811 -0.0222755
0.0076780 -0.0290082 0.0025516 0.0008484 0.0064828 -0.0107328 -0.0000986 -0.0006850 -0.0001493 -0.0004028 0.0000139 0.0000332 0.0000481 0.0002606 0.0012507 -0.0113043 -0.0014553 -0.0010165 0.0128820 -0.0246264
0.0009696 0.0006749 -0.0034523 0.0005115 -0.0018670 0.0084207 -0.0001482 -0.0006735 -0.0001288 -0.0004644 0.0000077 -0.0001673 0.0000711 0.0002110 0.0018956 -0.0111136 -0.0041588 0.0050844 0.0059707 -0.0144259
-0.0013591 0.0059760 -0.0031803 0.0084862 -0.0070463 0.0128163 -0.0002041 -0.0006779 -0.0000503 -0.0005416 0.0000115 -0.0002164 0.0000820 0.0001803 -0.0054575 0.0068117 0.0011027 -0.0042510 -0.0060893 0.0053274
0.0028196 -0.0124207 -0.0045490 0.0148748 -0.0104375 0.0150491 -0.0002678 -0.0006140 0.0000003 -0.0005128 0.0000207 -0.0001302 0.0000866 0.0001992 -0.0014877 0.0016973 0.0088328 -0.0116657 -0.0009087 -0.0036161
0.0023551 -0.0006894 -0.0053231 0.0118104 -0.0098313 0.0169068 -0.0002613 -0.0005452 -0.0000249 -0.0004241 0.0000291 0.0000060 0.0000652 0.0002650 -0.0013744 0.0051749 0.0048824 -0.0046044 0.0009709 -0.0007974
0.0011070 0.0036242 0.0008988 0.0072358 -0.0070769 0.0060924 -0.0002110 -0.0004793 -0.0000595 -0.0002441 0.0000469 0.0002300 0.0000503 0.0003200 -0.0053436 0.0124285 0.0074161 -0.0116196 -0.0010584 0.0026042
-0.0013320 -0.0068121 0.0009209 -0.0016627 0.0028001 -0.0165776 -0.0001300 -0.0005423 -0.0000336 -0.0001548 0.0000633 0.0002090 0.0000714 0.0002786 0.0006133 -0.0035427 0.0082211 -0.0268336 0.0084553 -0.0116496
-0.0065031 0.0026313 -0.0004097 -0.0038311 0.0040596 -0.0125613 -0.0001028 -0.0006349 0.0000114 -0.0001873 0.0000714 0.0000186 0.0000922 0.0002133 0.0001209 -0.0049453 -0.0222577 -0.0003498 0.0073898 -0.0051211
-0.0048951 0.0096907 -0.0025145 0.0020757 0.0032628 -0.0049776 -0.0001079 -0.0006258 0.0000617 -0.0001599 0.0000756 0.0000533 0.0000912 0.0002088 -0.0107568 0.0261723 -0.0134794 0.0191505 0.0022068 -0.0019327
0.0020221 -0.0105212 -0.0088074 0.0004746 0.0065413 -0.0127565 -0.0001587 -0.0004836 0.0001212 -0.0000821 0.0000802 0.0001815 0.0000857 0.0002489 -0.0061729 0.0214739 0.0005172 0.0097823 -0.0026122 -0.0084830
0.0075885 -0.0153232 0.0001797 -0.0088796 0.0047947 -0.0159962 -0.0002137 -0.0003463 0.0001497 0.0000234 0.0000919 0.0003365 0.0000807 0.0003112 0.0028533 -0.0069921 0.0117958 -0.0131795 -0.0048482 -0.0084136
-0.0043811 0.0104161 0.0053059 -0.0185643 0.0088054 -0.0260166 -0.0001994 -0.0002667 0.0001122 0.0001943 0.0001041 0.0004871 0.0000754 0.0003684 0.0013808 0.0000104 0.0125075 -0.0210653 -0.0018296 0.0091264
-0.0129730 0.0204478 -0.0051508 0.0032137 -0.0050243 -0.0045245 -0.0002191 -0.0004846 0.0000818 0.0002047 0.0001064 0.0003694 0.0000741 0.0003179 -0.0006861 0.0051960 -0.0029157 0.0000063 0.0030876 0.0074990
-0.0066795 0.0061919 -0.0014532 0.0106140 -0.0091403 0.0066473 -0.0002164 -0.0008053 0.0000902 0.0001124 0.0001070 0.0001832 0.0000919 0.0002244 0.0013731 -0.0116149 -0.0174721 0.0073698 0.0081412 -0.0058533
-0.0102742 0.0024175 -0.0008066 0.0089150 0.0035172 -0.0127054 -0.0001184 -0.0007678 0.0001353 0.0001094 0.0001111 0.0002129 0.0001132 0.0002183 0.0011323 -0.0097751 0.0030559 -0.0162308 0.0081958 -0.0197633
0.0042011 -0.0042250 0.0018271 -0.0020353 0.0065219 -0.0365804 -0.0000700 -0.0004658 0.0001688 0.0001794 0.0001093 0.0003072 0.0001144 0.0002639 -0.0038273 0.0122949 0.0030955 0.0007210 -0.0046664 -0.0044576
0.0034879 0.0034870 0.0167880 -0.0493252 0.0040233 -0.0271519 -0.0001158 -0.0001021 0.0001688 0.0003182 0.0001038 0.0004417 0.0001069 0.0003175 0.0027475 -0.0019711 0.0034693 -0.0016685 -0.0145638 0.0118694
-0.0140581 0.0235443 0.0094534 -0.0297202 0.0070389 -0.0141300 -0.0001180 0.0000733 0.0001767 0.0003582 0.0000949 0.0004027 0.0000896 0.0002987 0.0189318 -0.0488285 0.0131682 -0.0182059 0.0019196 -0.0129923
-0.0182339 0.0269560 0.0003300 -0.0034717 0.0028147 -0.0021525 -0.0000564 0.0001273 0.0001432 0.0002755 0.0000864 0.0001530 0.0000776 0.0001915 0.0070478 -0.0183872 0.0104203 -0.0093576 0.0089418 -0.0139234
-0.0038965 0.0112211 0.0024150 -0.0061549 0.0060207 -0.0098947 0.0000525 0.0000473 0.0001057 0.0001966 0.0000795 0.0000204 0.0000858 0.0001166 0.0005830 -0.0031000 0.0044859 -0.0023914 0.0027487 0.0011631
0.0137931 -0.0199311 0.0095757 -0.0237431 0.0088974 -0.0192497 0.0001314 -0.0001286 0.0000945 0.0001822 0.0000750 0.0000537 0.0001007 0.0001077 0.0014938 0.0000217 -0.0049008 0.0073554 0.0007303 0.0052902
0.0135795 -0.0218377 0.0035424 -0.0076758 -0.0070723 0.0101452 0.0000494 -0.0003638 0.0000894 0.0001624 0.0000564 0.0001473 0.0000852 0.0001257 0.0021282 -0.0040220 -0.0105777 0.0019958 0.0003429 0.0031461
0.0022469 -0.0018389 0.0091002 -0.0163649 -0.0016797 0.0050907 -0.0001142 -0.0005423 0.0001087 0.0002984 0.0000409 0.0003039 0.0000561 0.0001812 -0.0025126 0.0082588 -0.0085059 0.0152771 -0.0134524 0.0165330
0.0096065 -0.0151740 0.0110473 -0.0325215 -0.0017767 0.0033584 -0.0002123 -0.0005455 0.0001383 0.0003853 0.0000454 0.0002040 0.0000557 0.0001483 0.0002704 0.0109258 -0.0034358 0.0210541 -0.0159357 0.0198812
0.0079913 -0.0050909 0.0046700 -0.0118421 0.0015354 -0.0000655 -0.0002113 -0.0005791 0.0001548 0.0002623 0.0000487 -0.0000395 0.0000620 0.0000294 0.0093002 -0.0217097 0.0025043 0.0018729 -0.0001146 0.0009894
-0.0093456 0.0127498 -0.0003068 0.0046726 0.0049364 -0.0004067 -0.0001729 -0.0006470 0.0001649 0.0002329 0.0000574 -0.0000631 0.0000700 -0.0000100 0.0069722 -0.0243017 -0.0007248 -0.0063829 -0.0018338 0.0096507
-0.0119403 -0.0070945 -0.0098271 0.0120842 -0.0044743 0.0059527 -0.0000945 -0.0005786 0.0001427 0.0003460 0.0000656 0.0000307 0.0000837 0.0000296 0.0020073 -0.0006642 -0.0053070 0.0002036 -0.0036811 0.0197233
0.0026652 -0.0158516 -0.0138929 0.0099745 -0.0010724 -0.0105059 0.0000040 -0.0004142 0.0001303 0.0004456 0.0000674 0.0001653 0.0000987 0.0000930 0.0089246 -0.0184799 -0.0122284 0.0063175 0.0013504 0.0107751
-0.0112180 0.0095525 0.0026428 -0.0074055 -0.0006248 -0.0022953 0.0000526 -0.0003699 0.0001631 0.0005016 0.0000634 0.0002695 0.0001033 0.0001232 0.0239522 -0.0611092 0.0002703 -0.0107766 0.0071123 -0.0157643
-0.0205982 0.0306304 0.0181702 -0.0352057 0.0047652 -0.0123861 -0.0000161 -0.0004541 0.0002171 0.0004087 0.0000576 0.0001110 0.0001073 0.0000540 0.0065069 -0.0161300 0.0184656 -0.0384203 -0.0003981 -0.0100011
-0.0091222 0.0224264 0.0093961 -0.0154548 0.0060453 -0.0127242 -0.0000719 -0.0004287 0.0002257 0.0002391 0.0000652 -0.0001004 0.0001245 -0.0000013 -0.0025443 0.0027691 0.0151192 -0.0321670 -0.0121427 0.0160810
-0.0014807 0.0057287 0.0006504 -0.0053117 -0.0024957 0.0084986 -0.0000392 -0.0003179 0.0002161 0.0002335 0.0000743 -0.0000978 0.0001263 0.0000023 0.0004526 -0.0039133 0.0025456 -0.0013469 0.0012062 0.0033795
-0.0053314 0.0126434 0.0021169 -0.0127935 -0.0062578 0.0144886 0.0000406 -0.0002576 0.0001983 0.0003193 0.0000781 -0.0000102 0.0001209 0.0000252 0.0107814 -0.0248444 -0.0009852 0.0024713 0.0147727 -0.0190557
-0.0086659 0.0140901 -0.0037329 -0.0007525 0.0006663 0.0021997 0.0001502 -0.0001853 0.0002039 0.0003861 0.0000775 0.0001482 0.0001286 0.0000966 0.0024358 -0.0034818 -0.0039780 -0.0021842 0.0121067 -0.0184436
-0.0045593 0.0008376 -0.0149016 0.0145059 -0.0023110 0.0057513 0.0002136 -0.0000164 0.0002227 0.0004548 0.0000757 0.0001914 0.0001412 0.0001224 -0.0060218 0.0172706 0.0012465 -0.0062054 -0.0031281 0.0050774
0.0100383 -0.0249621 -0.0052682 0.0116765 -0.0104506 0.0225739 0.0002312 0.0000285 0.0002215 0.0003566 0.0000727 -0.0000022 0.0001371 0.0000257 -0.0016621 0.0053214 0.0107116 -0.0179308 -0.0189237 0.0197325
0.0050971 -0.0151672 0.0020308 0.0029988 -0.0074936 0.0170542 0.0001832 -0.0000703 0.0002589 0.0001597 0.0000694 -0.0001500 0.0001153 -0.0000686 0.0009403 0.0055062 0.0042415 -0.0053170 -0.0358092 0.0335629
-0.0071473 0.0170259 0.0054987 -0.0053981 -0.0023359 -0.0014432 0.0000927 -0.0000212 0.0002464 0.0001360 0.0000599 -0.0001110 0.0000954 -0.0000708 -0.0001788 0.0128109 -0.0008273 0.0119451 -0.0131183 0.0202297
-0.0028356 0.0178539 0.0103503 -0.0128398 0.0054627 -0.0131818 0.0000797 0.0000579 0.0002088 0.0001765 0.0000501 -0.0000170 0.0000799 -0.0000310 -0.0024471 0.0064950 0.0021751 0.0039946 0.0029561 0.0023262
0.0033772 0.0009903 0.0114424 -0.0212342 0.0066968 -0.0065352 0.0001405 0.0000926 0.0001767 0.0002408 0.0000426 0.0001247 0.0000781 0.0000231 -0.0081464 0.0106823 0.0012637 -0.0134748 0.0040917 0.0015192
-0.0037554 0.0113277 0.0063323 -0.0188351 0.0098581 -0.0147838 0.0002198 0.0001033 0.0001450 0.0002645 0.0000319 0.0000975 0.0000773 0.0000209 -0.0083431 0.0103202 -0.0127320 -0.0045028 0.0033894 0.0032118
-0.0094072 0.0133390 -0.0029441 -0.0042599 -0.0049107 -0.0009428 0.0002006 0.0001325 0.0001470 0.0002054 0.0000276 -0.0000918 0.0000670 -0.0000474 -0.0137622 0.0187152 -0.0240959 0.0181815 -0.0061979 0.0149376
-0.0075970 0.0095339 -0.0157539 0.0226437 -0.0118185 0.0193265 0.0001762 0.0002405 0.0001757 0.0001686 0.0000284 -0.0001273 0.0000566 -0.0000889 0.0002884 -0.0009435 0.0006594 0.0022136 -0.0243791 0.0272688
-0.0078305 0.0168060 -0.0098512 0.0145423 -0.0020287 0.0100428 0.0002956 0.0006178 0.0001898 0.0001649 0.0000225 -0.0000400 0.0000436 -0.0000591 0.0126624 -0.0218701 0.0162582 -0.0216126 -0.0099012 0.0075395
0.0056690 -0.0029073 0.0073683 -0.0185147 -0.0017949 -0.0008761 0.0005359 0.0012905 0.0001342 0.0002262 0.0000199 0.0000831 0.0000436 0.0000232 0.0034937 -0.0032211 0.0112014 -0.0114086 -0.0003503 0.0012948
0.0196047 -0.0338719 0.0082113 -0.0109317 -0.0097015 0.0067224 0.0007308 0.0018288 0.0000669 0.0003236 0.0000288 0.0002429 0.0000503 0.0001167 0.0014723 -0.0027479 0.0014867 -0.0008077 0.0012521 0.0047539
0.0104809 -0.0127172 0.0039704 -0.0037346 -0.0133632 0.0168662 0.0007836 0.0019177 0.0000386 0.0002540 0.0000245 0.0001447 0.0000644 0.0000931 -0.0024020 -0.0028557 -0.0107394 0.0061245 0.0108583 -0.0142209
0.0108860 -0.0080910 -0.0030672 0.0107085 -0.0028385 0.0045265 0.0008370 0.0017933 0.0000528 0.0000803 0.0000161 -0.0000743 0.0000872 0.0000528 -0.0081265 -0.0035745 -0.0187104 0.0110622 0.0020322 0.0013582
0.0163527 -0.0176194 -0.0048774 0.0174988 0.0082591 -0.0203188 0.0008793 0.0017293 0.0000261 0.0000060 -0.0000006 -0.0001275 0.0001184 0.0001780 -0.0022062 -0.0026616 -0.0019773 0.0007627 -0.0144885 0.0219300
0.0087533 -0.0020630 -0.0078900 0.0141566 -0.0040934 0.0070931 0.0007887 0.0015468 -0.0000069 -0.0000567 -0.0000210 -0.0000915 0.0001538 0.0003588 0.0033990 0.0008925 0.0085749 -0.0079465 -0.0281925 0.0187162
0.0074911 -0.0069055 -0.0067290 0.0072412 -0.0058754 0.0180233 0.0006414 0.0013440 -0.0000079 -0.0000625 -0.0000165 0.0000269 0.0001644 0.0004666 0.0063387 -0.0022852 0.0045606 -0.0013871 -0.0162532 0.0089063
0.0024360 -0.0009010 -0.0096461 0.0076366 -0.0054851 0.0099945 0.0005166 0.0012589 -0.0000382 -0.0000105 -0.0000005 0.0000265 0.0001721 0.0004572 0.0075111 -0.0083218 0.0022858 -0.0009863 0.0001500 0.0031741
-0.0046924 0.0158503 -0.0040195 0.0070887 -0.0000435 0.0026673 0.0004593 0.0011540 -0.0000596 -0.0000975 0.0000139 -0.0000956 0.0001897 0.0003944 -0.0018023 0.0073406 -0.0028155 -0.0022700 0.0041121 0.0004566
-0.0120444 0.0174111 -0.0052684 0.0161400 0.0074700 -0.0055603 0.0004900 0.0010289 -0.0000632 -0.0002097 0.0000218 -0.0001143 0.0002018 0.0003552 -0.0049305 0.0130573 -0.0163675 0.0129496 0.0101668 -0.0178205
-0.0063530 0.0064545 -0.0125982 0.0157057 -0.0013597 0.0068882 0.0004882 0.0008836 -0.0000464 -0.0002540 0.0000239 -0.0000248 0.0001964 0.0003727 0.0032430 -0.0077838 -0.0057946 -0.0075177 0.0133903 -0.0411299
0.0022235 0.0027355 -0.0063402 0.0102371 -0.0045182 0.0140387 0.0004030 0.0008588 -0.0000547 -0.0002157 0.0000241 0.0001231 0.0001753 0.0004458 -0.0005516 0.0007589 -0.0010704 -0.0073217 -0.0161174 0.0106457
-0.0087730 0.0172454 -0.0005921 0.0028688 0.0051969 -0.0007863 0.0003087 0.0009268 -0.0000692 -0.0001262 0.0000322 0.0002952 0.0001667 0.0005164 0.0047672 -0.0020566 0.0036886 0.0009485 -0.0114001 0.0176186
-0.0206958 0.0272371 0.0195295 -0.0393529 0.0014904 -0.0007165 0.0002011 0.0007341 -0.0000501 -0.0002487 0.0000399 0.0001925 0.0001698 0.0004783 0.0197032 -0.0359974 0.0126539 -0.0123986 -0.0012526 0.0025218
-0.0179732 0.0234252 0.0076273 -0.0093586 -0.0065455 0.0063083 0.0000422 0.0000032 -0.0000356 -0.0004580 0.0000476 0.0000022 0.0001718 0.0004312 0.0066352 -0.0102766 0.0045161 0.0013785 0.0052651 -0.0068405
-0.0005268 -0.0028067 -0.0042529 0.0113594 -0.0025665 -0.0007250 -0.0000948 -0.0006238 -0.0000228 -0.0004696 0.0000549 0.0000273 0.0001878 0.0005104 -0.0026318 0.0051958 -0.0041581 0.0085033 0.0089228 -0.0076680
-0.0060837 0.0151228 -0.0048602 0.0116557 0.0061556 -0.0194250 -0.0001523 -0.0006183 -0.0000042 -0.0003512 0.0000535 0.0001019 0.0002005 0.0006292 -0.0093543 0.0136498 -0.0027352 -0.0008017 0.0074635 -0.0067445
-0.0132307 0.0313706 -0.0023115 0.0046240 0.0062030 -0.0133355 -0.0001584 -0.0004376 0.0000808 -0.0002050 0.0000551 0.0002335 0.0001804 0.0007070 -0.0063001 0.0091220 -0.0046509 -0.0093124 0.0020414 -0.0049785
-0.0057052 0.0157609 0.0052602 -0.0080165 0.0027894 -0.0121236 -0.0001977 -0.0004077 0.0001840 -0.0000868 0.0000535 0.0001962 0.0001339 0.0006603 -0.0023391 0.0007454 0.0000715 -0.0129550 -0.0075060 0.0049971
0.0046676 -0.0038755 0.0109093 -0.0225777 0.0018376 -0.0104770 -0.0002618 -0.0004349 0.0002433 0.0000050 0.0000446 -0.0000144 0.0000737 0.0005469 -0.0059381 0.0048526 0.0031557 -0.0016701 -0.0084013 0.0116626
-0.0040607 0.0049234 0.0006861 -0.0101863 0.0051707 -0.0037192 -0.0002197 -0.0003533 0.0002451 0.0001755 0.0000467 -0.0000949 0.0000481 0.0005027 -0.0030456 -0.0037860 0.0063286 -0.0144731 -0.0001088 -0.0003994
-0.0212210 0.0292459 -0.0032774 0.0066076 0.0068706 -0.0134441 -0.0001069 -0.0003029 0.0002529 0.0003263 0.0000603 -0.0000510 0.0000614 0.0005504 0.0071234 -0.0224815 0.0015922 -0.0120291 0.0173122 -0.0282271
-0.0241415 0.0284476 -0.0041368 0.0122654 -0.0034788 0.0049889 -0.0001105 -0.0002487 0.0002903 0.0004185 0.0000712 0.0000730 0.0000784 0.0006515 0.0051441 -0.0082533 -0.0216685 0.0222145 0.0136265 -0.0167747
-0.0075476 0.0015907 -0.0049867 0.0140530 -0.0027850 0.0143757 -0.0001235 -0.0002734 0.0003115 0.0003920 0.0000715 0.0000235 0.0000931 0.0006485 -0.0048556 0.0194581 -0.0116217 0.0200495 -0.0018796 0.0042952
0.0145850 -0.0307781 -0.0027754 0.0103166 -0.0051055 0.0129589 -0.0001025 -0.0005382 0.0003417 0.0001796 0.0000811 -0.0002086 0.0001026 0.0005203 -0.0002594 0.0096207 0.0041687 0.0036736 -0.0013667 -0.0067223
0.0159352 -0.0274160 -0.0033287 0.0016587 -0.0089590 0.0139280 -0.0002252 -0.0007236 0.0003503 0.0000273 0.0000877 -0.0003129 0.0000886 0.0004427 0.0098176 -0.0224846 0.0058065 0.0012948 -0.0059384 0.0021840
-0.0007737 0.0123899 0.0004408 -0.0077860 -0.0062789 0.0127938 -0.0003520 -0.0006970 0.0003183 -0.0000364 0.0000817 -0.0003158 0.0000791 0.0004522 0.0017610 0.0016618 0.0026962 0.0046890 -0.0049216 0.0168556
-0.0080327 0.0165737 0.0030171 -0.0032027 0.0025999 -0.0059749 -0.0003637 -0.0006952 0.0002735 -0.0000815 0.0000868 -0.0002614 0.0001041 0.0005297 0.0050105 -0.0035551 0.0031585 0.0047916 0.0036917 0.0047577
-0.0022997 0.0105829 0.0020016 0.0011282 0.0021458 -0.0023518 -0.0002617 -0.0008326 0.0002200 -0.0001085 0.0000888 -0.0002950 0.0001242 0.0005363 0.0051365 -0.0109712 0.0008945 0.0083815 0.0149443 -0.0179890
-0.0030662 0.0178411 -0.0069054 0.0093781 -0.0034836 0.0103304 -0.0001628 -0.0010216 0.0001968 -0.0002299 0.0000864 -0.0005154 0.0001373 0.0003898 0.0025257 -0.0036844 -0.0104215 0.0159354 0.0154553 -0.0225782
-0.0036500 0.0168753 -0.0085056 0.0002313 0.0014513 -0.0008250 -0.0002043 -0.0010920 0.0002158 -0.0003856 0.0000870 -0.0006609 0.0001393 0.0002753 -0.0010587 0.0035919 -0.0156256 0.0264070 0.0028539 -0.0087754
0.0038999 0.0036026 -0.0001938 0.0000857 0.0054196 -0.0098882 -0.0003238 -0.0011342 0.0002691 -0.0005046 0.0000913 -0.0006497 0.0001306 0.0002430 -0.0070388 0.0077144 0.0003821 0.0049643 -0.0039137 -0.0094954
0.0119703 -0.0264570 0.0024834 -0.0053391 0.0026587 -0.0057816 -0.0004194 -0.0011794 0.0002662 -0.0006188 0.0000866 -0.0006227 0.0001175 0.0003150 0.0036979 -0.0127243 0.0128949 -0.0183080 0.0172330 -0.0489583
0.0049359 -0.0161611 -0.0040721 0.0036448 -0.0077805 0.0116611 -0.0005414 -0.0012458 0.0001491 -0.0007475 0.0000761 -0.0006083 0.0000656 0.0003572 0.0030807 0.0014820 0.0073279 -0.0048755 0.0083814 -0.0172765
0.0000181 0.0079976 -0.0080744 0.0171608 -0.0060959 0.0094651 -0.0005998 -0.0014671 0.0000175 -0.0009848 0.0000845 -0.0007480 0.0000427 0.0002545 -0.0013544 0.0031237 0.0046481 -0.0022856 -0.0018244 -0.0019823
-0.0076737 0.0127740 -0.0036082 0.0009154 0.0004747 0.0010297 -0.0005277 -0.0016758 -0.0000319 -0.0012630 0.0000956 -0.0009013 0.0000610 0.0001681 0.0013723 -0.0158035 -0.0075996 0.0064814 0.0076932 -0.0195507
-0.0232593 0.0215645 -0.0035493 -0.0022934 0.0011360 0.0034001 -0.0005263 -0.0016687 -0.0000399 -0.0013463 0.0000847 -0.0008666 0.0000539 0.0001171 -0.0083051 0.0040925 -0.0215072 0.0213647 0.0039471 -0.0056021
-0.0060774 0.0090347 0.0019139 -0.0100256 0.0039386 0.0007614 -0.0005491 -0.0016714 -0.0000227 -0.0012780 0.0000802 -0.0007109 0.0000482 0.0001135 -0.0066973 0.0163827 -0.0039425 0.0121461 -0.0002880 0.0024308
0.0053057 -0.0084251 -0.0069961 0.0084377 0.0034134 0.0000621 -0.0006151 -0.0018117 0.0000270 -0.0012102 0.0001017 -0.0004724 0.0000592 0.0001806 0.0048297 -0.0019792 0.0134124 -0.0186745 0.0045097 -0.0152115
0.0027167 0.0029546 -0.0090762 0.0110167 0.0025653 -0.0001728 -0.0007672 -0.0019776 0.0000457 -0.0012618 0.0001171 -0.0004977 0.0000881 0.0001913 0.0129980 -0.0251696 0.0248012 -0.0488743 -0.0109020 -0.0048248
-0.0004280 0.0093771 -0.0002003 0.0067383 0.0015328 -0.0024180 -0.0008754 -0.0021164 0.0000388 -0.0013716 0.0001295 -0.0006825 0.0001154 0.0001300 0.0146264 -0.0244777 0.0138644 -0.0307418 -0.0138832 0.0161356
-0.0045139 0.0005013 -0.0070828 0.0165608 -0.0019860 0.0006137 -0.0008982 -0.0021987 0.0000110 -0.0013586 0.0001463 -0.0006699 0.0001427 0.0001440 0.0056339 -0.0051743 0.0011852 -0.0045751 0.0029657 0.0015408
0.0139205 -0.0309290 -0.0062878 0.0058561 0.0069151 -0.0127161 -0.0007642 -0.0022408 -0.0000142 -0.0012480 0.0001434 -0.0005689 0.0001673 0.0001896 -0.0097708 0.0207087 -0.0051343 0.0106593 0.0077861 -0.0088280
0.0109233 -0.0154259 -0.0031333 -0.0036857 0.0122599 -0.0299604 -0.0006489 -0.0021997 0.0000004 -0.0011103 0.0001427 -0.0004259 0.0001726 0.0002304 -0.0096539 0.0162933 0.0019661 -0.0037080 0.0066431 -0.0108854
-0.0040075 0.0150202 -0.0073107 0.0011471 -0.0063252 0.0082858 -0.0006342 -0.0020403 0.0000243 -0.0010280 0.0001456 -0.0003605 0.0001897 0.0002490 -0.0076304 0.0130936 0.0009097 -0.0044246 0.0011152 -0.0079152
-0.0022947 0.0181973 -0.0017208 -0.0041399 -0.0051463 0.0160590 -0.0006526 -0.0018835 0.0000667 -0.0010501 0.0001564 -0.0004443 0.0002284 0.0001907 -0.0011443 -0.0009649 -0.0067363 0.0056624 -0.0103217 -0.0034590
-0.0062071 0.0195891 0.0006378 -0.0055675 0.0011148 -0.0011765 -0.0006353 -0.0018285 0.0001320 -0.0010295 0.0001782 -0.0004482 0.0002492 0.0001731 0.0131123 -0.0299998 0.0077180 -0.0148623 -0.0006779 -0.0112928
-0.0104739 0.0226633 -0.0071579 0.0095422 0.0115402 -0.0309540 -0.0006070 -0.0017098 0.0001486 -0.0008993 0.0001922 -0.0003414 0.0002607 0.0002670 0.0023576 -0.0033973 0.0113552 -0.0146304 -0.0007043 0.0057011
-0.0049655 0.0082276 -0.0130347 0.0163458 0.0098259 -0.0156836 -0.0005733 -0.0016101 0.0001116 -0.0007489 0.0002112 -0.0002049 0.0002981 0.0004504 0.0002256 -0.0037144 0.0086466 -0.0132016 -0.0045036 0.0081747
-0.0001600 -0.0156600 -0.0110971 0.0152048 0.0060045 -0.0076305 -0.0004681 -0.0015285 0.0000888 -0.0006108 0.0002334 -0.0000291 0.0003429 0.0005957 0.0069754 -0.0248579 0.0104267 -0.0272478 0.0049543 -0.0104481
0.0069693 -0.0124377 -0.0049863 0.0032156 0.0055132 -0.0094556 -0.0004318 -0.0014060 0.0000908 -0.0005679 0.0002374 -0.0000479 0.0003600 0.0005838 -0.0019657 -0.0057660 -0.0100969 0.0038719 0.0088751 -0.0064635
0.0059668 -0.0039455 0.0010798 0.0042657 0.0031571 0.0002376 -0.0004004 -0.0013854 0.0001405 -0.0006165 0.0002277 -0.0001763 0.0003583 0.0005182 -0.0027371 0.0119088 -0.0157876 0.0190969 0.0012019 0.0084549
-0.0070177 0.0086636 -0.0005223 0.0021698 0.0038089 -0.0013985 -0.0003813 -0.0013813 0.0001988 -0.0006079 0.0002310 -0.0001512 0.0003618 0.0004908 -0.0020920 0.0124539 0.0009714 -0.0012686 -0.0010947 -0.0028639
-0.0042718 0.0120004 0.0092717 -0.0293118 0.0061403 -0.0039021 -0.0004844 -0.0013919 0.0002066 -0.0005453 0.0002425 -0.0000374 0.0003389 0.0004946 -0.0005578 -0.0013417 0.0104685 -0.0175250 -0.0047169 -0.0006439
0.0095011 -0.0111183 0.0102186 -0.0198928 0.0005758 0.0085838 -0.0006339 -0.0014332 0.0001755 -0.0004397 0.0002522 0.0001240 0.0003009 0.0005494 0.0024756 -0.0048741 0.0090683 -0.0082682 -0.0121826 0.0237216
0.0161177 -0.0372402 0.0049231 -0.0184683 -0.0004018 0.0023756 -0.0006376 -0.0013872 0.0001493 -0.0002916 0.0002583 0.0002570 0.0003036 0.0006201 -0.0027283 0.0110410 0.0084177 -0.0076089 -0.0060196 0.0148834
0.0091971 -0.0137482 0.0128377 -0.0383200 0.0033187 -0.0022342 -0.0004684 -0.0013729 0.0001574 -0.0002627 0.0002640 0.0001850 0.0003320 0.0006144 -0.0099625 0.0171618 0.0008480 -0.0012530 0.0083086 -0.0097882
0.0031247 0.0049033 0.0011618 -0.0138198 -0.0043522 0.0082472 -0.0003053 -0.0013092 0.0001520 -0.0002284 0.0002711 0.0000890 0.0003655 0.0006141 -0.0124572 0.0138682 -0.0090825 0.0032291 0.0089396 -0.0070177
-0.0030670 0.0128334 -0.0104996 0.0161547 -0.0065562 -0.0020619 -0.0002779 -0.0010637 0.0001384 -0.0001047 0.0002704 0.0001483 0.0003939 0.0006437 -0.0157745 0.0233304 -0.0112304 0.0044955 0.0037552 -0.0026316
-0.0033774 0.0151308 -0.0052486 0.0185760 -0.0010237 0.0016340 -0.0003097 -0.0008476 0.0001794 -0.0000427 0.0002689 0.0002603 0.0003936 0.0006773 -0.0152921 0.0185038 -0.0025195 -0.0032673 0.0010912 -0.0117697
-0.0040174 0.0147623 0.0029080 0.0023653 0.0042675 -0.0033965 -0.0003238 -0.0007017 0.0002341 0.0000325 0.0002719 0.0004159 0.0003784 0.0007474 0.0013307 -0.0160240 0.0117812 -0.0206820 0.0034121 -0.0208980
0.0014364 0.0025284 -0.0051024 0.0007546 0.0044662 -0.0020603 -0.0003049 -0.0005925 0.0002281 0.0001094 0.0002729 0.0004011 0.0003797 0.0007422 0.0016358 -0.0053609 0.0086758 -0.0044322 -0.0017027 -0.0000625
0.0011343 0.0011292 -0.0076686 0.0096330 -0.0006038 0.0094625 -0.0002752 -0.0005941 0.0001734 0.0000987 0.0002794 0.0002461 0.0003887 0.0006713 0.0030270 -0.0033795 0.0068918 -0.0024057 -0.0008465 -0.0058723
-0.0060027 0.0053381 0.0037070 -0.0074677 0.0042481 -0.0082926 -0.0002281 -0.0006567 0.0001364 0.0000803 0.0002860 0.0002226 0.0003793 0.0006440 0.0138335 -0.0415337 0.0063489 -0.0143941 0.0066742 -0.0218759
-0.0055946 0.0095721 -0.0066814 0.0114415 0.0052494 -0.0016879 -0.0001927 -0.0006087 0.0001403 0.0001261 0.0002834 0.0003146 0.0003675 0.0006775 -0.0067517 -0.0008481 -0.0176074 0.0089753 0.0026320 -0.0040324
0.0029064 -0.0021183 -0.0088067 0.0144029 0.0070698 0.0003830 -0.0001571 -0.0005305 0.0001364 0.0001422 0.0002778 0.0004406 0.0003773 0.0007836 -0.0105677 0.0215120 -0.0192122 0.0240195 0.0058276 -0.0075721
0.0060861 -0.0160007 -0.0039527 0.0077781 0.0100130 -0.0186640 -0.0001334 -0.0004731 0.0001129 0.0000939 0.0002695 0.0005431 0.0003860 0.0008889 0.0001357 0.0028280 -0.0006170 0.0106223 0.0048823 -0.0130957
0.0024200 -0.0060434 0.0018150 0.0050801 0.0013294 -0.0052762 -0.0002133 -0.0004658 0.0000995 0.0000014 0.0002613 0.0004383 0.0003790 0.0008385 0.0053876 -0.0147471 0.0087360 -0.0128156 -0.0132540 0.0053425
0.0061777 -0.0140069 0.0066196 -0.0150297 -0.0049518 0.0094143 -0.0003006 -0.0005063 0.0001112 -0.0001267 0.0002630 0.0002878 0.0003676 0.0007225 -0.0003423 0.0120516 0.0110228 -0.0162901 -0.0064550 0.0071055
-0.0029197 -0.0141518 0.0003968 -0.0105130 -0.0061896 0.0077154 -0.0002940 -0.0005276 0.0001110 -0.0001230 0.0002608 0.0003133 0.0003461 0.0006694 0.0041822 0.0037107 0.0156065 -0.0223292 0.0062073 -0.0047279
-0.0220061 -0.0035489 0.0062014 -0.0117539 0.0021451 -0.0007326 -0.0001901 -0.0005995 0.0000797 -0.0000268 0.0002588 0.0004194 0.0003255 0.0006852 0.0007763 -0.0061340 0.0137376 -0.0273439 0.0085503 -0.0124793
-0.0139168 0.0043554 0.0008219 0.0152152 0.0015732 0.0023454 -0.0001378 -0.0005530 0.0000442 0.0000997 0.0002609 0.0005687 0.0003284 0.0007691 -0.0069603 0.0044888 -0.0072238 0.0015182 0.0109721 -0.0172889
-0.0052438 0.0061554 -0.0043582 0.0209147 0.0034992 -0.0100946 -0.0001388 -0.0004656 0.0000421 0.0001697 0.0002616 0.0005849 0.0003530 0.0008155 -0.0059506 0.0056403 -0.0276074 0.0210547 0.0115811 -0.0137375
0.0046823 -0.0087164 -0.0035387 0.0072901 0.0093492 -0.0194470 -0.0001742 -0.0004954 0.0001208 0.0000109 0.0002659 0.0004464 0.0003623 0.0007649 -0.0026488 -0.0038211 -0.0232016 0.0241555 0.0049821 -0.0065749
-0.0003400 -0.0018188 -0.0124841 0.0078087 0.0104144 -0.0220459 -0.0002233 -0.0004926 0.0001764 -0.0000966 0.0002665 0.0004111 0.0003491 0.0007098 0.0056909 -0.0157642 -0.0000291 0.0127033 -0.0051529 0.0038324
0.0003444 0.0021898 -0.0190340 0.0196211 0.0104537 -0.0127203 -0.0002276 -0.0003741 0.0001359 0.0000241 0.0002705 0.0004869 0.0003367 0.0007262 0.0049886 -0.0044707 0.0109337 -0.0031268 -0.0127218 0.0145811
0.0043247 -0.0038149 -0.0002311 0.0082826 0.0102272 -0.0118954 -0.0002432 -0.0002319 0.0001065 0.0001785 0.0002795 0.0005971 0.0003297 0.0007730 0.0055911 -0.0090562 0.0131325 -0.0194753 -0.0195542 0.0164031
-0.0081218 0.0094623 0.0027649 -0.0039258 0.0068721 -0.0154361 -0.0002023 -0.0000781 0.0001058 0.0003615 0.0002752 0.0007384 0.0003008 0.0008033 0.0004716 -0.0096039 0.0082347 -0.0116200 -0.0006691 -0.0007308
-0.0114020 0.0106445 0.0001317 -0.0012472 0.0046777 -0.0066302 -0.0001492 0.0000560 0.0001474 0.0004642 0.0002429 0.0006402 0.0002442 0.0007094 -0.0094472 -0.0018026 -0.0025436 0.0105559 0.0035896 -0.0018224
-0.0008126 -0.0050579 0.0025668 0.0005892 0.0024254 -0.0003122 -0.0000349 0.0000097 0.0001984 0.0005136 0.0002008 0.0004119 0.0001774 0.0005503 -0.0029787 -0.0101793 -0.0119607 0.0218162 0.0001335 -0.0053468
0.0043554 -0.0145050 -0.0053666 0.0084443 -0.0030688 0.0045209 0.0000989 0.0000453 0.0002489 0.0006591 0.0001650 0.0003336 0.0001110 0.0004899 0.0085316 -0.0128482 -0.0110969 0.0203258 0.0018912 -0.0148101
-0.0068513 0.0094753 -0.0001592 -0.0042225 -0.0047817 0.0063916 0.0000806 0.0001906 0.0002634 0.0007795 0.0001289 0.0003253 0.0000086 0.0005497 -0.0002793 0.0100623 -0.0101177 0.0138028 -0.0217536 0.0208494
-0.0067332 0.0108359 0.0042577 -0.0107978 0.0044596 -0.0078753 -0.0000311 0.0002803 0.0002621 0.0008392 0.0000961 0.0003812 -0.0001255 0.0006177 0.0003859 0.0063586 0.0007049 -0.0023480 -0.0113420 0.0154973
-0.0033590 -0.0093583 -0.0003722 -0.0022922 0.0047529 -0.0142040 -0.0000718 0.0003665 0.0002622 0.0008534 0.0000856 0.0003742 -0.0002200 0.0005860 0.0099156 -0.0077242 0.0084968 -0.0129859 0.0023301 -0.0045955
0.0043946 -0.0288815 -0.0014489 0.0018724 -0.0046747 -0.0016072 -0.0000046 0.0004735 0.0002159 0.0007689 0.0000817 0.0001951 -0.0002730 0.0004867 0.0038527 0.0017380 0.0048870 -0.0125723 0.0008823 -0.0034573
-0.0057417 -0.0188382 -0.0090022 0.0163395 0.0050710 -0.0162864 0.0001551 0.0008732 0.0001469 0.0007139 0.0000703 0.0000621 -0.0003085 0.0003942 0.0004582 0.0027640 -0.0030773 -0.0022850 0.0039191 -0.0043573
-0.0045773 -0.0134580 -0.0074482 0.0063531 -0.0025077 -0.0047753 0.0002923 0.0012044 0.0000823 0.0006570 0.0000808 0.0001164 -0.0003355 0.0004053 0.0036756 -0.0130587 -0.0102843 -0.0056635 0.0034606 -0.0019807
-0.0104373 0.0116877 0.0122243 -0.0313152 0.0004373 -0.0079066 0.0003450 0.0011824 0.0000163 0.0004935 0.0001134 0.0002810 -0.0003178 0.0005247 0.0022019 -0.0137469 -0.0236211 -0.0004886 0.0035451 0.0044777
-0.0148947 0.0121275 0.0086527 -0.0223008 0.0015920 -0.0021725 0.0003088 0.0011012 -0.0000523 0.0003690 0.0001407 0.0004968 -0.0002347 0.0007421 -0.0051371 0.0081378 -0.0174500 0.0069334 -0.0012365 0.0067595
0.0135951 -0.0285176 -0.0042655 -0.0028228 -0.0058252 0.0218156 0.0001899 0.0007571 -0.0001328 0.0000546 0.0001704 0.0004697 -0.0001358 0.0009062 0.0039161 -0.0080399 -0.0077805 0.0011486 -0.0092379 0.0009832
0.0093236 -0.0092214 -0.0005925 -0.0014366 -0.0013179 0.0211156 0.0000428 0.0005230 -0.0002187 -0.0005330 0.0002246 0.0003505 -0.0000568 0.0009909 0.0031795 -0.0034293 -0.0065115 0.0060669 -0.0199557 0.0131855
0.0011832 0.0022836 0.0069427 -0.0120146 0.0000760 0.0147721 -0.0001111 0.0005049 -0.0003449 -0.0009612 0.0002759 0.0004502 -0.0000384 0.0010374 -0.0057616 0.0151681 0.0009603 0.0095737 -0.0162822 0.0163180
-0.0053269 0.0116581 -0.0017402 0.0043341 0.0115616 -0.0060094 -0.0002670 0.0003580 -0.0004250 -0.0010985 0.0002795 0.0005710 -0.0000488 0.0010310 -0.0003872 0.0040175 0.0034606 0.0040097 -0.0019367 -0.0025393
-0.0038235 0.0100135 0.0022995 -0.0002760 0.0164619 -0.0121893 -0.0003783 -0.0000572 -0.0004282 -0.0010081 0.0002599 0.0006896 -0.0000461 0.0010145 -0.0020177 0.0046778 0.0017500 -0.0110823 0.0048502 -0.0067486
0.0096776 -0.0166139 0.0031201 -0.0055010 0.0052358 0.0029499 -0.0004751 -0.0004416 -0.0004795 -0.0008469 0.0002378 0.0006958 -0.0000661 0.0009168 -0.0090661 0.0171393 -0.0148303 0.0073455 0.0044356 -0.0000084
0.0104692 -0.0177221 0.0093104 -0.0159800 0.0015605 -0.0000535 -0.0005152 -0.0006332 -0.0004931 -0.0008277 0.0002177 0.0005066 -0.0000860 0.0007772 -0.0123024 0.0139258 -0.0157891 0.0156972 0.0016119 -0.0032992
0.0124511 -0.0185885 0.0129006 -0.0297250 -0.0007980 0.0084171 -0.0005337 -0.0010335 -0.0003331 -0.0008580 0.0002024 0.0004082 -0.0000861 0.0007168 -0.0017928 -0.0145422 0.0058250 -0.0128685 0.0003623 -0.0122664
0.0071737 -0.0131158 -0.0123210 -0.0010714 -0.0033936 0.0106719 -0.0006646 -0.0013052 -0.0002013 -0.0007026 0.0001838 0.0004623 -0.0000867 0.0007385 0.0063795 -0.0191918 0.0053446 -0.0089766 -0.0159686 0.0067191
-0.0012017 0.0039798 0.0004385 -0.0073929 0.0005254 -0.0025813 -0.0007557 -0.0012091 -0.0001823 -0.0004701 0.0001789 0.0005700 -0.0000884 0.0008059 -0.0028022 0.0040323 -0.0016746 0.0040682 -0.0123661 0.0008468
0.0028854 -0.0003661 0.0016690 -0.0041447 0.0017608 -0.0093387 -0.0007967 -0.0009787 -0.0001595 -0.0002939 0.0001864 0.0007324 -0.0000979 0.0008990 -0.0033997 0.0024981 0.0113785 -0.0166571 0.0114555 -0.0310075
-0.0006715 0.0098324 -0.0015822 0.0009079 0.0000517 -0.0098378 -0.0007923 -0.0009314 -0.0001837 -0.0002122 0.0001865 0.0006375 -0.0001184 0.0008674 0.0028889 -0.0060076 0.0104810 -0.0130192 0.0059174 -0.0056224
-0.0030057 0.0105988 0.0055447 -0.0076175 -0.0008643 -0.0017374 -0.0007053 -0.0010055 -0.0002098 -0.0002001 0.0001848 0.0004416 -0.0001284 0.0007678 -0.0002553 -0.0006787 -0.0017433 0.0083532 -0.0011903 0.0044324
-0.0084521 -0.0045161 0.0072218 -0.0298149 -0.0060011 0.0151561 -0.0006276 -0.0010026 -0.0002107 -0.0001427 0.0001915 0.0004703 -0.0001236 0.0007585 0.0014351 -0.0155185 -0.0095920 0.0052880 0.0046684 -0.0085199
0.0037981 -0.0334667 0.0076557 -0.0431999 -0.0032316 0.0100615 -0.0006238 -0.0009245 -0.0002040 -0.0000312 0.0001925 0.0006010 -0.0001283 0.0007993 0.0007417 -0.0059635 -0.0338684 0.0222467 0.0024698 -0.0011581
0.0048017 -0.0141607 -0.0018327 -0.0042013 -0.0007708 0.0028264 -0.0006391 -0.0008270 -0.0001552 0.0000945 0.0001947 0.0008288 -0.0001471 0.0008637 -0.0020539 0.0152273 -0.0188998 0.0230514 -0.0045048 0.0061097
-0.0049176 0.0029150 -0.0114889 0.0093956 -0.0022049 -0.0078313 -0.0006765 -0.0007987 -0.0000941 0.0001326 0.0001937 0.0008218 -0.0001606 0.0008501 0.0031586 0.0021510 -0.0065365 0.0099909 -0.0034623 -0.0042869
-0.0074200 0.0031837 0.0010298 -0.0148192 0.0080785 -0.0348992 -0.0007326 -0.0008174 -0.0000645 0.0000574 0.0001922 0.0006217 -0.0001676 0.0007745 0.0017837 -0.0060874 0.0008122 0.0021104 -0.0125480 0.0107987
0.0033313 -0.0084527 -0.0006099 -0.0008467 0.0042876 -0.0139710 -0.0007343 -0.0007052 -0.0000802 0.0000797 0.0001923 0.0005964 -0.0001849 0.0007548 0.0010669 0.0016435 0.0039715 -0.0081734 -0.0237970 0.0273414
-0.0007740 -0.0020905 -0.0081565 0.0053967 -0.0094509 0.0154637 -0.0006752 -0.0006632 -0.0000973 0.0001426 0.0001882 0.0006908 -0.0002149 0.0007440 0.0048143 -0.0028925 0.0018700 -0.0095491 -0.0070029 0.0085011
-0.0094876 0.0018846 -0.0127207 0.0067211 -0.0074721 0.0149605 -0.0006525 -0.0009194 -0.0001319 0.0002094 0.0001872 0.0008634 -0.0002574 0.0007527 -0.0010420 -0.0005029 -0.0037995 0.0009566 -0.0034960 0.0095215
0.0014210 -0.0207894 -0.0134091 0.0193420 0.0011114 -0.0061612 -0.0007168 -0.0010208 -0.0001435 0.0003986 0.0002123 0.0009343 -0.0002464 0.0008210 -0.0056759 -0.0013618 -0.0149248 0.0007118 -0.0025049 0.0121252
0.0060164 -0.0034028 -0.0091291 0.0157805 -0.0011956 -0.0017978 -0.0007099 -0.0010111 -0.0001554 0.0003234 0.0003226 0.0010341 -0.0001445 0.0009367 -0.0132583 0.0108569 -0.0178112 0.0001057 0.0048737 0.0045678
0.0068299 -0.0019027 -0.0071504 0.0124870 0.0021439 0.0019514 -0.0005998 -0.0009816 -0.0001706 0.0000909 0.0004081 0.0012297 -0.0000678 0.0010615 -0.0206533 0.0257718 -0.0079145 -0.0094016 -0.0013786 0.0101652
0.0034576 -0.0125095 -0.0113696 0.0180428 0.0020059 0.0066532 -0.0006528 -0.0009059 -0.0001384 0.0001081 0.0003896 0.0012815 -0.0000808 0.0011189 -0.0106692 0.0176105 -0.0044892 -0.0018519 -0.0097025 0.0133904
0.0050778 -0.0043932 -0.0051079 0.0106153 -0.0012358 0.0179628 -0.0006859 -0.0008134 -0.0001359 0.0002562 0.0003568 0.0013172 -0.0000940 0.0011530 -0.0041627 0.0059083 0.0007263 0.0089986 -0.0244129 0.0205762
0.0048318 -0.0048914 0.0063673 -0.0099804 0.0031104 0.0116832 -0.0006611 -0.0004848 -0.0001483 0.0003955 0.0003367 0.0012847 -0.0000787 0.0011877 -0.0077889 0.0111443 0.0096169 -0.0054345 -0.0266831 0.0204162
-0.0103530 0.0016424 -0.0009753 -0.0001967 0.0095813 -0.0093537 -0.0006807 -0.0004234 -0.0001775 0.0003723 0.0003145 0.0010985 -0.0001010 0.0011156 -0.0034009 0.0108517 0.0116962 -0.0212368 -0.0055205 0.0088633
0.0009567 -0.0069248 -0.0062227 0.0057574 0.0094506 -0.0029624 -0.0007139 -0.0006242 -0.0001270 0.0003395 0.0002820 0.0010005 -0.0001635 0.0010202 -0.0036311 0.0107901 -0.0104160 0.0126948 0.0007333 0.0036211
0.0074561 -0.0167998 -0.0049287 0.0025335 0.0066742 0.0018693 -0.0007218 -0.0007661 -0.0000445 0.0005600 0.0002478 0.0010818 -0.0002255 0.0009505 -0.0045170 0.0066011 -0.0128593 0.0126357 0.0067357 -0.0082894
-0.0043713 0.0012803 -0.0055877 -0.0066150 -0.0003404 0.0049558 -0.0006077 -0.0006388 0.0000084 0.0009298 0.0002311 0.0012709 -0.0002927 0.0008814 0.0009962 -0.0055895 -0.0083520 0.0018685 0.0052552 -0.0050880
0.0004072 -0.0017311 -0.0039783 -0.0036134 -0.0020072 0.0035333 -0.0005145 -0.0002582 0.0000716 0.0012396 0.0002246 0.0013494 -0.0003300 0.0008479 -0.0028111 0.0027600 -0.0306099 0.0271417 -0.0066610 0.0099460
-0.0026796 -0.0014481 -0.0075874 0.0159628 -0.0068021 0.0122467 -0.0004456 -0.0001276 0.0001199 0.0011977 0.0002106 0.0011684 -0.0003490 0.0007581 0.0044157 -0.0037452 -0.0067220 0.0068409 -0.0153007 0.0160926
-0.0074522 0.0088050 0.0012265 0.0048568 -0.0103845 0.0214729 -0.0004425 -0.0001502 0.0001280 0.0010239 0.0001956 0.0010625 -0.0003780 0.0006958 0.0130539 -0.0229450 0.0091567 -0.0128680 -0.0271695 0.0177463
-0.0031076 0.0115633 0.0037341 -0.0062503 -0.0067171 0.0141492 -0.0005114 -0.0001654 0.0000832 0.0009708 0.0001934 0.0011791 -0.0003885 0.0007517 -0.0011601 0.0063945 0.0028364 0.0005016 -0.0231645 0.0134507
-0.0030922 0.0063335 0.0000921 0.0006035 -0.0047707 0.0068301 -0.0005466 -0.0001612 0.0000290 0.0010199 0.0001992 0.0013373 -0.0003975 0.0008380 -0.0056335 0.0145798 -0.0006017 0.0105204 0.0016156 0.0002986
0.0070076 -0.0076106 0.0077279 -0.0116621 -0.0048235 0.0058189 -0.0005477 -0.0001086 -0.0000004 0.0011034 0.0001940 0.0014342 -0.0003945 0.0009072 -0.0002235 -0.0023716 -0.0003999 0.0050787 0.0096260 -0.0067348
0.0120236 -0.0113227 0.0066887 -0.0124687 0.0062712 -0.0133529 -0.0004844 -0.0002051 -0.0000385 0.0010364 0.0001836 0.0012746 -0.0003911 0.0008954 0.0004154 -0.0107051 -0.0074020 0.0051183 0.0058010 0.0002514
0.0060672 -0.0086315 -0.0067320 0.0121878 0.0109765 -0.0344258 -0.0004026 -0.0003311 -0.0000616 0.0009571 0.0001712 0.0011245 -0.0003760 0.0008751 0.0052519 -0.0186112 -0.0180027 0.0112854 0.0017587 0.0022557
0.0093070 -0.0167420 -0.0049201 0.0131717 -0.0059641 -0.0046334 -0.0003842 -0.0003243 -0.0000531 0.0009681 0.0001597 0.0011826 -0.0003647 0.0009183 0.0059410 -0.0192210 -0.0079296 -0.0021741 -0.0009895 -0.0061434
0.0140245 -0.0248439 0.0052762 0.0034190 -0.0033634 -0.0060829 -0.0004391 -0.0002370 -0.0000176 0.0009751 0.0001506 0.0013085 -0.0003785 0.0009939 -0.0079624 0.0129983 -0.0055155 0.0099723 -0.0088225 -0.0006699
0.0017485 0.0019199 0.0016301 0.0037744 -0.0035374 -0.0067524 -0.0005388 -0.0000845 -0.0000089 0.0010402 0.0001392 0.0014755 -0.0003833 0.0010733 0.0023067 0.0039969 0.0014840 0.0095903 -0.0064897 -0.0068669
0.0113222 -0.0096458 0.0088898 -0.0078702 -0.0038492 0.0017250 -0.0005684 -0.0000628 -0.0000237 0.0010220 0.0001299 0.0013200 -0.0003805 0.0010185 0.0112243 -0.0160292 0.0065889 0.0024971 0.0033197 -0.0128021
0.0092466 -0.0067614 0.0110078 -0.0077911 -0.0020069 0.0044080 -0.0005027 -0.0001498 -0.0000552 0.0009423 0.0001426 0.0011035 -0.0003766 0.0009250 0.0080399 -0.0091699 0.0038053 0.0052820 0.0020477 0.0042814
-0.0066495 0.0094956 -0.0057559 0.0132544 -0.0016987 -0.0051249 -0.0004764 -0.0001402 -0.0000858 0.0009813 0.0001501 0.0011419 -0.0003859 0.0009408 0.0060900 -0.0043363 0.0004894 0.0033474 0.0066171 -0.0008952
0.0014540 -0.0063077 -0.0057409 0.0020225 0.0016459 -0.0072535 -0.0004704 -0.0001781 -0.0000914 0.0010009 0.0001397 0.0012693 -0.0003849 0.0010343 -0.0008142 -0.0016443 -0.0021262 -0.0088863 0.0065340 -0.0040483
0.0005342 -0.0007932 0.0066258 -0.0334530 -0.0008161 0.0056119 -0.0004772 -0.0002884 -0.0001164 0.0010295 0.0001348 0.0014606 -0.0003682 0.0011498 -0.0081100 0.0077563 -0.0142649 0.0138365 0.0060255 -0.0059032
-0.0107908 0.0187075 0.0001524 -0.0179303 -0.0005107 0.0032580 -0.0005826 -0.0004100 -0.0001600 0.0009511 0.0001356 0.0013591 -0.0003564 0.0011637 -0.0134286 0.0200852 -0.0186307 0.0316342 0.0061548 -0.0062446
-0.0189739 0.0239514 -0.0031220 0.0056852 0.0078610 -0.0064859 -0.0007129 -0.0005913 -0.0001383 0.0007065 0.0001433 0.0011599 -0.0003289 0.0011402 -0.0070957 0.0040780 -0.0121242 0.0183417 0.0023903 -0.0058118
-0.0113408 0.0080863 -0.0048644 0.0069040 0.0045812 0.0035579 -0.0007902 -0.0007307 -0.0001146 0.0004910 0.0001580 0.0012176 -0.0003273 0.0011575 0.0042673 -0.0043576 0.0043422 -0.0064132 0.0029590 -0.0120010
-0.0019465 0.0129069 -0.0000095 0.0047432 -0.0033936 0.0151635 -0.0008237 -0.0006386 -0.0001783 0.0004679 0.0001374 0.0012980 -0.0003779 0.0011268 0.0023846 0.0061669 0.0114204 -0.0104524 -0.0063195 0.0055129
0.0008154 0.0173341 0.0010506 0.0074338 -0.0091719 0.0193322 -0.0006930 -0.0002796 -0.0001977 0.0007635 0.0000855 0.0013504 -0.0004254 0.0010767 0.0045712 -0.0043864 0.0141921 -0.0229741 -0.0092744 0.0060167
0.0017694 0.0070875 0.0081779 -0.0224639 -0.0121587 0.0185061 -0.0003784 0.0002101 -0.0001393 0.0012848 0.0000445 0.0011766 -0.0004511 0.0009102 0.0085293 -0.0174080 0.0089132 -0.0133846 0.0073410 -0.0114923
-0.0068318 -0.0008272 0.0051992 -0.0060991 -0.0008781 0.0113573 -0.0001267 0.0006778 -0.0000897 0.0016570 0.0000119 0.0008658 -0.0005065 0.0005965 0.0006840 -0.0102721 0.0008743 0.0003140 0.0054963 -0.0010422
0.0012112 -0.0159537 0.0005113 0.0090019 0.0044876 0.0035621 0.0000264 0.0008502 -0.0000354 0.0017972 -0.0000033 0.0008292 -0.0005501 0.0004208 -0.0098412 0.0147853 -0.0077585 0.0117422 0.0082817 -0.0056697
0.0182759 -0.0442665 0.0062030 -0.0034252 0.0083260 -0.0179405 0.0001282 0.0008103 0.0000175 0.0020053 -0.0000086 0.0009177 -0.0005706 0.0003970 -0.0083131 0.0185841 -0.0056075 0.0099617 0.0156740 -0.0239143
0.0226530 -0.0502245 0.0044278 -0.0062967 -0.0017866 0.0052096 0.0000988 0.0009799 0.0000346 0.0024585 0.0000032 0.0010854 -0.0005923 0.0004289 -0.0064175 0.0163413 -0.0061015 0.0158164 -0.0015310 0.0013466
0.0157879 -0.0295603 -0.0070577 0.0039830 -0.0057295 0.0125622 0.0000475 0.0013189 0.0000667 0.0027929 0.0000254 0.0013740 -0.0005902 0.0005115 0.0056118 -0.0001108 0.0004107 0.0121693 -0.0160350 0.0186609
0.0040488 -0.0127918 -0.0059207 0.0087627 -0.0052335 0.0058132 0.0002072 0.0016359 0.0001147 0.0031426 0.0000381 0.0013090 -0.0005661 0.0004780 0.0118507 -0.0106145 0.0130197 -0.0110730 -0.0048237 0.0006147
0.0101229 -0.0252986 0.0040751 -0.0047381 -0.0017235 0.0016719 0.0004157 0.0020602 0.0001326 0.0035623 0.0000361 0.0010893 -0.0005542 0.0003880 0.0020001 0.0065931 0.0062159 0.0065652 -0.0106189 0.0106461
-0.0007635 -0.0022218 0.0042165 -0.0056984 -0.0012578 0.0015893 0.0005000 0.0023696 0.0001161 0.0036216 0.0000394 0.0010796 -0.0005407 0.0003873 -0.0011115 0.0034817 0.0012659 0.0107801 -0.0001396 0.0093249
-0.0003429 0.0048985 -0.0094299 0.0078550 -0.0047050 0.0157926 0.0005105 0.0023443 0.0000942 0.0034924 0.0000371 0.0011216 -0.0005373 0.0004190 0.0046541 -0.0155032 -0.0022675 -0.0058230 0.0169912 -0.0167825
0.0016476 0.0054963 0.0055374 -0.0106606 -0.0025610 0.0169193 0.0005030 0.0022056 0.0000513 0.0033914 0.0000246 0.0012207 -0.0005674 0.0004642 0.0017971 -0.0066103 -0.0211506 0.0158819 0.0103004 -0.0085573
-0.0001358 0.0048914 0.0056325 -0.0044953 -0.0028840 0.0109064 0.0005286 0.0022006 -0.0000060 0.0033350 0.0000077 0.0010831 -0.0005273 0.0004650 -0.0076373 0.0140285 -0.0094743 0.0157296 0.0041498 -0.0051666
0.0179410 -0.0302988 0.0016035 0.0074347 -0.0049979 0.0175736 0.0006282 0.0022185 -0.0000503 0.0031909 -0.0000147 0.0007682 -0.0004926 0.0003476 -0.0038497 0.0041970 0.0074917 -0.0057733 0.0085129 -0.0293635
0.0107514 -0.0204183 0.0009579 0.0141542 -0.0049864 0.0176898 0.0005500 0.0020901 -0.0000492 0.0029126 -0.0000301 0.0006621 -0.0005442 0.0002072 -0.0002841 0.0032448 0.0095831 -0.0076801 -0.0060871 0.0064752
0.0050698 -0.0128295 -0.0087761 0.0204694 -0.0009114 0.0050333 0.0003150 0.0019868 -0.0000704 0.0026545 -0.0000482 0.0007027 -0.0005800 0.0001772 -0.0035614 0.0168534 0.0061032 0.0032018 -0.0099611 0.0204519
0.0128980 -0.0196837 0.0030087 0.0043093 0.0101456 -0.0139992 0.0002208 0.0018926 -0.0001429 0.0024825 -0.0000564 0.0007687 -0.0005891 0.0001967 -0.0002403 0.0046662 0.0100967 -0.0063669 0.0030374 0.0021512
0.0053055 -0.0075300 0.0195748 -0.0274735 0.0127502 -0.0179769 0.0002139 0.0018552 -0.0002040 0.0024753 -0.0000537 0.0008960 -0.0006132 0.0002173 0.0076989 -0.0124320 0.0128327 -0.0196144 0.0059688 0.0047090
-0.0024090 -0.0040419 0.0092563 -0.0138215 0.0034315 0.0053482 0.0000892 0.0016917 -0.0002147 0.0023081 -0.0000349 0.0008952 -0.0006344 0.0001679 0.0052332 -0.0026533 0.0005780 0.0051932 0.0052877 0.0079450
-0.0035019 0.0035591 -0.0045618 0.0076488 0.0006335 0.0080285 -0.0001146 0.0008658 -0.0002166 0.0016744 0.0000016 0.0008334 -0.0006572 0.0000707 0.0052625 -0.0135210 -0.0072794 0.0136626 0.0107057 -0.0089205
-0.0039071 0.0079532 0.0001905 -0.0052701 -0.0026971 0.0040401 -0.0003014 0.0000732 -0.0001945 0.0012083 0.0000139 0.0009059 -0.0006814 0.0000233 -0.0010044 -0.0015861 -0.0020917 -0.0035780 0.0134099 -0.0273662
-0.0027595 -0.0010573 -0.0029609 -0.0023951 -0.0008985 0.0023393 -0.0005137 -0.0001246 -0.0001672 0.0011605 0.0000105 0.0010477 -0.0006829 0.0000480 -0.0090493 0.0216058 -0.0044549 0.0077737 0.0034140 -0.0105914
0.0018208 -0.0037526 -0.0035219 0.0024341 0.0073244 -0.0096214 -0.0007190 -0.0002495 -0.0001250 0.0012039 0.0000213 0.0012653 -0.0006441 0.0001841 -0.0040587 0.0084504 -0.0044883 0.0106555 -0.0037211 0.0007997
0.0073907 -0.0140766 0.0018053 -0.0023862 0.0113139 -0.0255988 -0.0008516 -0.0002901 -0.0000910 0.0012773 0.0000526 0.0014954 -0.0005898 0.0003573 0.0099141 -0.0179909 0.0135029 -0.0267586 -0.0083611 0.0036556
0.0106475 -0.0248729 0.0042860 -0.0072404 0.0008650 -0.0016606 -0.0008633 -0.0003129 -0.0001505 0.0011786 0.0000843 0.0013581 -0.0005554 0.0003514 -0.0032764 0.0098841 0.0160827 -0.0304538 -0.0114049 0.0133967
0.0028711 0.0042772 0.0109798 -0.0153474 -0.0008950 0.0101650 -0.0008532 -0.0003766 -0.0002384 0.0010146 0.0000993 0.0010896 -0.0005315 0.0002599 -0.0056731 0.0096402 0.0099485 -0.0176225 -0.0078241 0.0084956
0.0013098 0.0060428 0.0033322 0.0077950 0.0021616 0.0013812 -0.0008237 -0.0003870 -0.0002492 0.0010205 0.0001019 0.0011285 -0.0005279 0.0002719 0.0089083 -0.0219713 0.0026632 -0.0077660 0.0082234 -0.0126522
0.0059267 -0.0105840 0.0004873 0.0150497 0.0030611 0.0005832 -0.0008052 -0.0002903 -0.0002272 0.0010979 0.0000978 0.0012789 -0.0005281 0.0003564 0.0008297 -0.0038406 -0.0040030 0.0005314 0.0137389 -0.0148577
0.0019891 -0.0140909 -0.0014260 0.0096908 -0.0036090 0.0137806 -0.0007557 -0.0001742 -0.0002513 0.0011817 0.0000918 0.0014731 -0.0005121 0.0004954 -0.0037899 0.0144213 -0.0096873 0.0056672 0.0083960 -0.0113486
0.0134838 -0.0381382 0.0025233 -0.0027308 -0.0091746 0.0117413 -0.0006858 -0.0001476 -0.0002872 0.0012514 0.0000823 0.0015833 -0.0005089 0.0005843 -0.0020164 0.0105064 -0.0105010 0.0059768 0.0048704 -0.0131092
0.0019453 -0.0124705 -0.0022959 0.0085329 -0.0032043 -0.0096774 -0.0006866 -0.0001596 -0.0002997 0.0012009 0.0000655 0.0014073 -0.0005180 0.0005439 -0.0012692 0.0002666 -0.0035244 -0.0052492 -0.0018414 -0.0010490
-0.0034505 -0.0028556 -0.0144742 0.0264055 -0.0076749 0.0001347 -0.0006825 -0.0000765 -0.0002441 0.0011379 0.0000355 0.0012097 -0.0005302 0.0004889 0.0011550 -0.0007608 0.0012424 -0.0022507 -0.0100298 0.0046428
0.0059300 -0.0123449 0.0011007 0.0048415 -0.0072491 0.0125683 -0.0006901 -0.0000580 -0.0002163 0.0011330 0.0000182 0.0012354 -0.0005248 0.0005466 0.0100377 -0.0130242 0.0077237 -0.0068644 -0.0082876 0.0038734
0.0104681 -0.0203056 0.0034382 -0.0021317 -0.0019507 0.0125665 -0.0007773 -0.0001335 -0.0003141 0.0012324 0.0000135 0.0012883 -0.0005264 0.0006086 0.0086766 -0.0084057 0.0033511 0.0025216 -0.0112356 0.0095388
0.0024947 -0.0066832 -0.0129576 0.0227818 -0.0043551 0.0130919 -0.0007712 0.0000124 -0.0003924 0.0013952 0.0000002 0.0013761 -0.0005434 0.0006465 -0.0008627 0.0080433 0.0053160 -0.0038300 0.0022065 -0.0092097
-0.0041438 -0.0016903 -0.0141643 0.0209613 -0.0061703 0.0045278 -0.0006975 0.0001196 -0.0004014 0.0013268 -0.0000128 0.0012693 -0.0005320 0.0006187 -0.0049074 0.0084884 0.0150457 -0.0363966 0.0094199 -0.0107489
-0.0059295 -0.0029700 -0.0043012 0.0102918 0.0072110 -0.0218840 -0.0006426 -0.0000416 -0.0004444 0.0011877 -0.0000234 0.0010305 -0.0005293 0.0005201 -0.0033677 0.0013786 -0.0005987 -0.0044794 -0.0015589 0.0107772
-0.0167159 0.0220660 0.0025186 -0.0009055 0.0004220 -0.0111753 -0.0006569 -0.0002059 -0.0004861 0.0011772 -0.0000359 0.0010261 -0.0005398 0.0004804 -0.0013974 0.0029881 -0.0198487 0.0203146 -0.0068019 0.0145956
-0.0048940 0.0112801 0.0097107 -0.0228369 -0.0053884 -0.0039093 -0.0006859 -0.0002253 -0.0004528 0.0012467 -0.0000489 0.0011268 -0.0005630 0.0004469 -0.0046549 0.0092529 -0.0280531 0.0199464 -0.0012783 -0.0002314
0.0039137 -0.0123735 0.0077126 -0.0093117 0.0037841 -0.0079761 -0.0006821 -0.0000781 -0.0003527 0.0013436 -0.0000583 0.0012517 -0.0005884 0.0004566 -0.0033941 0.0128960 -0.0041278 0.0090703 0.0024416 -0.0023117
0.0082971 -0.0255114 0.0035434 -0.0061930 -0.0036360 0.0028782 -0.0006950 0.0001583 -0.0002837 0.0014886 -0.0000522 0.0013530 -0.0005659 0.0005000 0.0023483 0.0066085 0.0070660 -0.0001801 -0.0024237 0.0073506
0.0026544 -0.0077421 0.0104105 -0.0240455 -0.0057357 0.0050867 -0.0006519 0.0001579 -0.0002760 0.0014038 -0.0000479 0.0011728 -0.0005450 0.0003934 0.0050381 -0.0100058 0.0112200 -0.0144652 -0.0097088 0.0071825
0.0100289 -0.0147639 0.0011728 0.0107847 -0.0001912 0.0040369 -0.0006872 0.0000017 -0.0003105 0.0011740 -0.0000491 0.0009881 -0.0005791 0.0002492 0.0061085 -0.0004648 0.0063150 -0.0012953 -0.0094667 0.0139593
0.0068216 -0.0084793 -0.0016369 0.0148742 -0.0058205 0.0109253 -0.0007588 -0.0001482 -0.0003453 0.0011070 -0.0000465 0.0010657 -0.0006061 0.0002375 0.0083186 0.0000394 0.0053370 -0.0038061 0.0009953 0.0065619
-0.0167672 0.0193573 0.0053937 -0.0083742 0.0014305 0.0052594 -0.0006881 -0.0003392 -0.0003586 0.0011291 -0.0000508 0.0012008 -0.0006121 0.0002901 0.0046670 -0.0058142 0.0002747 -0.0068802 0.0058377 -0.0004681
-0.0134649 0.0121686 0.0116044 -0.0159079 0.0024622 0.0053923 -0.0006512 -0.0003733 -0.0003823 0.0012360 -0.0000634 0.0013798 -0.0006215 0.0003332 -0.0010399 0.0048443 -0.0095214 -0.0040783 0.0052579 0.0010116
-0.0063704 0.0099954 0.0075825 -0.0106512 -0.0032692 0.0035335 -0.0007041 -0.0004056 -0.0003906 0.0012110 -0.0000799 0.0012845 -0.0006108 0.0002673 -0.0014961 0.0038505 -0.0405775 0.0314923 0.0132916 -0.0184072
0.0018646 0.0041092 0.0001025 -0.0025576 0.0062734 -0.0182417 -0.0006919 -0.0005706 -0.0003238 0.0010033 -0.0000977 0.0009785 -0.0005838 0.0001578 -0.0011007 0.0001758 -0.0380246 0.0385487 0.0128337 -0.0194851
0.0076300 -0.0070155 -0.0071389 0.0117980 0.0109778 -0.0257621 -0.0007100 -0.0005520 -0.0002834 0.0009292 -0.0001167 0.0008931 -0.0005642 0.0001500 -0.0043773 0.0112036 -0.0062380 0.0140572 -0.0014741 0.0015987
0.0108966 -0.0134482 -0.0114911 0.0230063 -0.0014834 0.0095555 -0.0006978 -0.0005662 -0.0003180 0.0009693 -0.0001298 0.0009497 -0.0005582 0.0001931 0.0022240 -0.0011397 0.0061061 0.0004453 -0.0221924 0.0179828
0.0095104 -0.0029846 -0.0052445 0.0145544 -0.0052291 0.0171029 -0.0007407 -0.0006156 -0.0003437 0.0009996 -0.0001273 0.0010580 -0.0005509 0.0002805 0.0098520 -0.0143088 0.0041675 0.0042995 -0.0331993 0.0267436
-0.0045596 0.0158729 -0.0011131 0.0004708 0.0021588 -0.0019110 -0.0008213 -0.0004435 -0.0003524 0.0010950 -0.0001328 0.0011281 -0.0005230 0.0003661 -0.0004958 0.0067966 0.0012503 0.0146940 -0.0116783 0.0150441
-0.0047174 0.0131543 0.0062835 -0.0124666 0.0107806 -0.0166358 -0.0007577 -0.0003505 -0.0003552 0.0010509 -0.0001539 0.0008461 -0.0004895 0.0002802 -0.0092097 0.0110640 0.0052783 -0.0010628 0.0041817 -0.0042985
0.0053694 0.0006145 0.0067896 -0.0026938 0.0110421 -0.0173524 -0.0006156 -0.0005189 -0.0003964 0.0008808 -0.0001594 0.0005180 -0.0004747 0.0001170 -0.0025643 -0.0014733 0.0190315 -0.0558248 0.0043800 -0.0054145
0.0012452 -0.0124246 0.0069446 -0.0064960 0.0024522 -0.0020392 -0.0005524 -0.0005968 -0.0004403 0.0008790 -0.0001641 0.0004819 -0.0004718 0.0000441 -0.0014707 0.0071965 -0.0028882 -0.0078563 0.0011779 0.0070320
-0.0033663 -0.0102760 0.0070338 -0.0094193 0.0016591 0.0018084 -0.0005552 -0.0005313 -0.0004384 0.0009265 -0.0001676 0.0005506 -0.0004692 0.0000516 -0.0034871 0.0092557 -0.0108571 -0.0003238 0.0042999 -0.0021359
0.0040036 -0.0080939 0.0081233 -0.0031614 0.0045018 -0.0053797 -0.0005097 -0.0004934 -0.0004073 0.0009169 -0.0001642 0.0006964 -0.0004551 0.0001147 -0.0029065 0.0022971 0.0213311 -0.0600891 0.0085860 -0.0230223
0.0069837 -0.0117742 0.0028516 0.0020333 -0.0051596 0.0091105 -0.0005449 -0.0003866 -0.0003940 0.0008975 -0.0001684 0.0006563 -0.0004453 0.0001115 -0.0050292 0.0125610 0.0094656 -0.0157906 -0.0008097 -0.0013695
-0.0014317 0.0050739 -0.0010888 0.0089422 -0.0094680 0.0187093 -0.0006292 -0.0003621 -0.0003691 0.0007695 -0.0001613 0.0003917 -0.0004381 -0.0000171 0.0001757 0.0050967 0.0041476 0.0029662 -0.0101630 0.0077823
-0.0005093 0.0070538 0.0064030 -0.0027900 0.0026927 -0.0017726 -0.0006456 -0.0004620 -0.0003276 0.0006219 -0.0001446 0.0002691 -0.0004413 -0.0001056 0.0066542 -0.0098217 0.0087532 -0.0025033 0.0011527 -0.0147621
0.0074583 -0.0072532 0.0069254 -0.0132069 0.0063593 -0.0097809 -0.0006631 -0.0004691 -0.0003568 0.0006298 -0.0001364 0.0003147 -0.0004491 -0.0000979 0.0005956 0.0033104 0.0053660 -0.0000012 -0.0022427 0.0019762
0.0013993 -0.0021797 0.0036289 -0.0110879 0.0025137 0.0015089 -0.0006529 -0.0004065 -0.0004128 0.0007032 -0.0001217 0.0004022 -0.0004468 -0.0000511 -0.0019438 0.0029017 0.0075886 -0.0136801 -0.0061461 0.0054695
-0.0192662 0.0204186 0.0067206 -0.0210440 0.0066171 -0.0072118 -0.0005987 -0.0003814 -0.0004364 0.0007809 -0.0001064 0.0005360 -0.0004348 0.0000254 0.0053679 -0.0156922 0.0048013 -0.0182831 0.0063115 -0.0112700
-0.0123572 0.0184450 -0.0049705 0.0030046 0.0044150 0.0042964 -0.0006126 -0.0003416 -0.0004476 0.0007724 -0.0001025 0.0003973 -0.0004157 -0.0000047 0.0000340 -0.0048437 -0.0201002 0.0237095 0.0032157 0.0025832
-0.0068021 0.0155508 0.0025929 -0.0007360 0.0047644 0.0022647 -0.0005405 -0.0004741 -0.0004444 0.0006399 -0.0001020 0.0001140 -0.0003887 -0.0001319 -0.0031881 0.0032469 -0.0239691 0.0286125 0.0031166 0.0042660
-0.0089064 0.0073096 0.0100568 -0.0234822 0.0027652 -0.0071661 -0.0004637 -0.0006096 -0.0004328 0.0005585 -0.0001020 0.0000473 -0.0003791 -0.0002179 -0.0001463 -0.0033408 -0.0070956 0.0008902 0.0062093 -0.0106388
-0.0026418 -0.0005352 0.0022388 -0.0183296 -0.0135515 0.0148645 -0.0005477 -0.0005472 -0.0004309 0.0005752 -0.0001009 0.0001020 -0.0003894 -0.0002347 -0.0006616 0.0031757 -0.0046916 -0.0010569 -0.0063734 0.0075880
-0.0083059 0.0062911 -0.0004710 -0.0024805 -0.0147182 0.0192115 -0.0006487 -0.0005051 -0.0004077 0.0005825 -0.0000924 0.0002201 -0.0004157 -0.0002068 0.0066825 -0.0035491 0.0064250 0.0007739 -0.0122618 0.0106020
0.0007370 -0.0062362 -0.0007206 0.0022401 -0.0058944 0.0114530 -0.0007071 -0.0005536 -0.0003718 0.0005514 -0.0000828 0.0002701 -0.0004363 -0.0001861 0.0071637 -0.0052799 0.0138582 -0.0103443 -0.0049957 -0.0016732
0.0078881 -0.0133990 0.0043664 -0.0031414 0.0004009 -0.0058049 -0.0007526 -0.0007206 -0.0003796 0.0004931 -0.0000756 0.0000830 -0.0004282 -0.0002595 -0.0037194 0.0122288 0.0133719 -0.0158670 -0.0095081 0.0088160
0.0006744 -0.0030844 -0.0016933 0.0037389 0.0023517 -0.0092342 -0.0007659 -0.0008135 -0.0003780 0.0004300 -0.0000661 -0.0001057 -0.0004297 -0.0003764 -0.0037799 0.0101336 0.0011482 0.0079183 0.0036428 -0.0038886
-0.0115967 0.0193013 -0.0137476 0.0104919 0.0001562 0.0012621 -0.0007446 -0.0008073 -0.0003640 0.0004294 -0.0000655 -0.0001091 -0.0004341 -0.0004295 -0.0016449 0.0049676 -0.0020695 0.0107937 0.0124217 -0.0150167
-0.0070117 0.0157067 0.0005168 -0.0018851 0.0054842 -0.0040204 -0.0006647 -0.0008127 -0.0004037 0.0005363 -0.0000711 -0.0000401 -0.0004284 -0.0004150 -0.0040986 0.0083260 -0.0014499 0.0060362 0.0066674 -0.0057103
0.0062469 -0.0044070 0.0078353 -0.0090196 0.0015275 -0.0028236 -0.0006112 -0.0007670 -0.0004290 0.0006293 -0.0000701 0.0000894 -0.0004149 -0.0003494 -0.0016087 0.0061542 -0.0203264 0.0212008 0.0036646 -0.0015108
0.0057934 -0.0079813 -0.0026290 0.0018745 -0.0044808 0.0055868 -0.0006111 -0.0007495 -0.0004238 0.0005844 -0.0000656 0.0000129 -0.0004029 -0.0003581 -0.0018371 0.0019950 -0.0258997 0.0211704 -0.0053569 -0.0014083
0.0051778 -0.0095394 0.0021648 -0.0056419 -0.0013519 0.0090697 -0.0005820 -0.0008154 -0.0003583 0.0004338 -0.0000708 -0.0002468 -0.0003900 -0.0004761 -0.0110244 0.0193188 -0.0109455 0.0190852 -0.0054679 0.0000679
-0.0059915 0.0089364 0.0023879 -0.0055175 0.0006853 0.0010437 -0.0005942 -0.0007874 -0.0002774 0.0003729 -0.0000720 -0.0003349 -0.0003799 -0.0005717 -0.0075436 0.0179024 0.0022879 0.0032494 0.0001685 -0.0066514
-0.0124991 0.0210570 -0.0104420 0.0008829 -0.0026984 -0.0016350 -0.0006656 -0.0006618 -0.0002649 0.0005146 -0.0000534 -0.0002416 -0.0003703 -0.0005698 -0.0028255 0.0071281 0.0069245 -0.0053137 -0.0107540 0.0049548
-0.0040415 0.0055591 -0.0021596 -0.0109778 -0.0063659 0.0106483 -0.0007456 -0.0005482 -0.0002620 0.0006918 -0.0000257 -0.0000821 -0.0003731 -0.0004953 0.0026730 0.0030247 0.0028539 0.0042465 -0.0129648 0.0192306
-0.0068314 0.0060921 -0.0023655 0.0035746 -0.0000519 0.0025633 -0.0007718 -0.0005559 -0.0002669 0.0007192 -0.0000074 0.0001119 -0.0003849 -0.0004054 0.0084128 -0.0099498 0.0120463 -0.0166647 -0.0003285 0.0092812
-0.0035897 0.0104292 0.0013636 0.0083816 -0.0004533 0.0035719 -0.0006986 -0.0006906 -0.0002979 0.0006544 0.0000027 0.0000247 -0.0003700 -0.0003928 0.0029016 -0.0106347 0.0100947 -0.0147929 0.0000750 0.0039481
0.0043773 -0.0040143 0.0048856 -0.0017200 -0.0034469 -0.0005260 -0.0006340 -0.0007394 -0.0003031 0.0005823 0.0000124 -0.0002535 -0.0003307 -0.0004724 -0.0082314 0.0047247 -0.0116807 0.0165455 -0.0003288 0.0068659
0.0119188 -0.0220030 -0.0009982 -0.0027938 0.0104009 -0.0349409 -0.0006164 -0.0008101 -0.0003162 0.0004892 0.0000194 -0.0003481 -0.0002984 -0.0005017 -0.0152716 0.0138667 -0.0319698 0.0273512 0.0074177 -0.0010128
0.0042622 -0.0128387 -0.0009812 0.0075897 0.0075707 -0.0078504 -0.0005756 -0.0008768 -0.0003514 0.0004151 0.0000132 -0.0003095 -0.0002968 -0.0004776 -0.0130258 0.0144452 -0.0262958 0.0206059 0.0039042 0.0026487
-0.0001065 -0.0014284 0.0011756 0.0056082 -0.0031730 0.0086792 -0.0006282 -0.0009588 -0.0003401 0.0003894 0.0000183 -0.0001417 -0.0002997 -0.0004690 -0.0072332 0.0112991 -0.0104089 0.0173295 -0.0075046 0.0104308
0.0142035 -0.0204775 -0.0031236 0.0110216 -0.0082384 0.0070561 -0.0006746 -0.0010117 -0.0002963 0.0004767 0.0000373 0.0000314 -0.0002787 -0.0003911 0.0051109 -0.0137839 0.0034177 0.0020997 -0.0168867 0.0100164
0.0269180 -0.0518232 -0.0003743 0.0021091 -0.0011781 -0.0054438 -0.0006934 -0.0009098 -0.0002304 0.0004853 0.0000487 -0.0001039 -0.0002488 -0.0003685 -0.0035331 0.0086973 0.0025262 0.0013513 -0.0165594 0.0120964
0.0172479 -0.0325051 0.0039209 -0.0156032 0.0026729 -0.0133938 -0.0007160 -0.0008683 -0.0001876 0.0003943 0.0000600 -0.0003203 -0.0002186 -0.0004359 -0.0019525 0.0146110 0.0023881 0.0039534 -0.0022213 0.0059969
-0.0003182 -0.0062408 0.0061805 -0.0164965 0.0046339 -0.0059905 -0.0007073 -0.0008048 -0.0001441 0.0004240 0.0000648 -0.0003429 -0.0002147 -0.0004788 0.0077019 -0.0114091 0.0107676 -0.0101399 0.0022194 -0.0019735
-0.0156993 0.0222136 0.0034175 -0.0205292 0.0025623 0.0050284 -0.0006368 -0.0006518 -0.0001550 0.0005645 0.0000681 -0.0002744 -0.0002163 -0.0004902 0.0046568 -0.0080594 0.0101080 -0.0117580 -0.0079977 0.0090258
-0.0119568 0.0228929 -0.0021217 -0.0264677 -0.0018985 0.0122019 -0.0005094 -0.0004994 -0.0001915 0.0007464 0.0000785 -0.0000991 -0.0002182 -0.0004197 -0.0034424 0.0101176 -0.0004783 0.0042643 -0.0046357 0.0080494
-0.0029372 0.0032538 -0.0002534 -0.0204709 -0.0006118 0.0068616 -0.0004024 -0.0004048 -0.0001741 0.0009253 0.0000957 0.0000898 -0.0002271 -0.0003676 -0.0083981 0.0159064 -0.0048111 0.0056887 0.0069218 -0.0117488
0.0004751 -0.0098776 -0.0117412 0.0037885 0.0051803 -0.0078173 -0.0003622 -0.0004247 -0.0001577 0.0009173 0.0001140 -0.0000099 -0.0002078 -0.0004429 -0.0089824 0.0120224 -0.0084913 0.0030275 0.0156516 -0.0266102
0.0005818 -0.0175023 -0.0254113 0.0195225 -0.0009187 0.0021427 -0.0003725 -0.0004829 -0.0001177 0.0008292 0.0001258 -0.0001644 -0.0001888 -0.0005069 -0.0108490 0.0077633 -0.0108720 0.0084848 0.0144082 -0.0258508
0.0024956 -0.0197182 0.0000772 -0.0101143 0.0008158 -0.0005779 -0.0004135 -0.0004398 -0.0000317 0.0008361 0.0001324 -0.0001081 -0.0001827 -0.0004878 -0.0039607 -0.0068267 -0.0044309 0.0062688 0.0023476 -0.0075239
-0.0086765 0.0116345 0.0186591 -0.0479303 0.0077651 -0.0121181 -0.0004847 -0.0003111 0.0000372 0.0008703 0.0001377 0.0000041 -0.0001755 -0.0004246 -0.0004780 -0.0036353 0.0057167 -0.0091433 -0.0128483 0.0131166
-0.0043836 0.0119656 0.0048560 -0.0204356 -0.0014806 0.0099672 -0.0004520 -0.0002282 0.0000556 0.0009876 0.0001475 0.0001852 -0.0001682 -0.0003130 0.0059370 -0.0033275 0.0099207 -0.0165732 -0.0201714 0.0223899
0.0002961 0.0007658 -0.0019510 0.0016754 -0.0017853 0.0038956 -0.0004717 -0.0001320 0.0000523 0.0011255 0.0001637 0.0003150 -0.0001572 -0.0002264 0.0048016 0.0012475 0.0070899 -0.0097714 -0.0174462 0.0197880
-0.0062376 0.0108258 -0.0003336 -0.0020913 -0.0001993 -0.0039062 -0.0004887 -0.0001033 0.0000450 0.0011161 0.0001742 0.0001637 -0.0001389 -0.0002764 0.0025582 0.0002854 0.0035585 -0.0008863 -0.0071134 0.0107051
-0.0000725 0.0028605 0.0162887 -0.0277560 -0.0037242 0.0115263 -0.0004451 -0.0001311 0.0000533 0.0010317 0.0001846 0.0000108 -0.0001239 -0.0003454 0.0046815 -0.0135827 -0.0018787 0.0087700 0.0057769 -0.0024878
-0.0050514 -0.0006064 0.0105394 -0.0104817 0.0032017 -0.0074710 -0.0003894 -0.0001960 0.0000176 0.0010759 0.0001886 0.0000605 -0.0001121 -0.0003491 0.0050084 -0.0095605 -0.0014276 -0.0021143 0.0033733 0.0023587
-0.0148602 0.0122344 0.0005247 0.0034782 0.0120468 -0.0349894 -0.0003344 -0.0001963 -0.0000024 0.0011790 0.0001809 0.0001445 -0.0001047 -0.0003284 -0.0007193 0.0074941 -0.0067422 -0.0031237 0.0023423 0.0055974
-0.0022670 -0.0043008 0.0083188 -0.0090677 0.0067915 -0.0134897 -0.0003228 -0.0000606 0.0000225 0.0012909 0.0001833 0.0002825 -0.0001023 -0.0002544 -0.0067367 0.0126277 -0.0155001 0.0111130 0.0110614 -0.0120836
0.0136435 -0.0341886 0.0108950 -0.0158964 -0.0007111 0.0011667 -0.0002716 -0.0000666 0.0000681 0.0012817 0.0001812 0.0002535 -0.0000796 -0.0002437 0.0010904 -0.0146021 -0.0035636 0.0074085 0.0181532 -0.0431620
0.0104180 -0.0300280 -0.0085844 0.0071370 0.0008626 -0.0059009 -0.0002834 -0.0001115 0.0001090 0.0011670 0.0001735 0.0000659 -0.0000583 -0.0003212 -0.0071062 0.0059971 0.0029593 0.0019018 -0.0004034 -0.0053006
-0.0025739 -0.0202886 -0.0135701 0.0223069 0.0069624 -0.0123844 -0.0004001 -0.0000744 0.0001266 0.0011149 0.0001733 0.0000085 -0.0000601 -0.0003679 -0.0027801 0.0053061 0.0111374 -0.0230112 -0.0110612 0.0111010
-0.0075031 -0.0040427 -0.0004818 0.0124296 0.0081456 -0.0119994 -0.0004536 -0.0001080 0.0001581 0.0010874 0.0001764 0.0000661 -0.0000675 -0.0003468 0.0165168 -0.0344766 0.0110047 -0.0164622 -0.0011369 -0.0210337
0.0068355 -0.0082295 -0.0027571 0.0075316 0.0002435 0.0062166 -0.0004430 -0.0000936 0.0001515 0.0011609 0.0001804 0.0001741 -0.0000718 -0.0002725 0.0061430 -0.0109880 0.0050322 0.0039886 0.0069421 -0.0162824
0.0134795 -0.0174960 -0.0042670 0.0102534 -0.0040533 0.0190958 -0.0004333 0.0000075 0.0001108 0.0012884 0.0001902 0.0003315 -0.0000676 -0.0001671 0.0034925 -0.0084618 0.0075074 -0.0040346 0.0022077 -0.0012393
0.0038122 -0.0134099 0.0042757 -0.0019047 -0.0003049 0.0077601 -0.0003858 -0.0000625 0.0000837 0.0012637 0.0001994 0.0002350 -0.0000551 -0.0001939 0.0091945 -0.0218383 0.0005744 0.0017490 0.0085098 -0.0089668
0.0034208 -0.0075603 0.0089613 -0.0200936 0.0065647 -0.0043145 -0.0003832 -0.0001375 0.0000745 0.0011604 0.0001976 -0.0000046 -0.0000477 -0.0003183 -0.0072395 0.0141469 -0.0134058 0.0217552 0.0112489 -0.0046707
0.0046575 -0.0028531 0.0035761 -0.0118805 0.0061233 0.0046841 -0.0003326 -0.0002104 0.0000853 0.0011208 0.0001882 -0.0000255 -0.0000362 -0.0003704 -0.0099094 0.0233649 -0.0142742 0.0206377 0.0058801 0.0014449
-0.0021799 0.0040756 0.0044105 0.0041605 0.0037899 0.0027620 -0.0002585 -0.0003128 0.0001121 0.0011135 0.0001833 0.0000613 -0.0000152 -0.0003523 -0.0047072 0.0070055 -0.0062178 0.0011370 -0.0014812 0.0041021
0.0054065 -0.0087192 0.0017796 0.0089309 0.0012612 -0.0016258 -0.0003074 -0.0002767 0.0000975 0.0011788 0.0001866 0.0001929 -0.0000045 -0.0002835 -0.0042437 0.0076638 -0.0027172 -0.0091935 -0.0034463 0.0059921
0.0079893 -0.0185544 -0.0070859 0.0111837 -0.0088580 0.0183446 -0.0003716 -0.0001611 0.0001217 0.0012122 0.0001845 0.0003694 -0.0000108 -0.0001879 0.0030548 0.0023222 0.0082721 -0.0221340 -0.0062359 0.0058017
-0.0041824 -0.0105217 -0.0065611 0.0021407 -0.0129817 0.0163188 -0.0004086 -0.0002403 0.0001532 0.0010897 0.0001854 0.0002800 -0.0000120 -0.0002042 0.0030720 -0.0033711 0.0073976 -0.0090671 -0.0180696 0.0120237
0.0067393 -0.0196424 -0.0077011 -0.0020963 0.0007049 -0.0140102 -0.0005063 -0.0003967 0.0001399 0.0009591 0.0001998 0.0000735 0.0000081 -0.0002873 -0.0002663 -0.0016090 0.0018438 0.0035483 -0.0128558 0.0082475
0.0050906 -0.0031545 -0.0058227 0.0028348 -0.0030372 0.0076082 -0.0005759 -0.0004243 0.0001293 0.0009001 0.0002164 0.0000678 0.0000210 -0.0002857 0.0042318 -0.0053607 0.0031418 -0.0020124 0.0035669 -0.0073888
0.0029855 0.0028794 0.0000274 0.0029356 -0.0079675 0.0160787 -0.0005874 -0.0004348 0.0001195 0.0008648 0.0002214 0.0001701 0.0000254 -0.0002264 0.0041606 -0.0027503 0.0036279 -0.0026413 0.0032312 0.0021900
0.0023951 0.0009227 0.0007446 0.0008111 0.0024829 -0.0135381 -0.0005467 -0.0003824 0.0000925 0.0009630 0.0002228 0.0003372 0.0000293 -0.0001640 0.0000059 0.0033459 0.0143487 -0.0290808 -0.0022319 0.0068377
-0.0081446 0.0148674 -0.0066415 0.0004464 0.0019100 -0.0195266 -0.0004752 -0.0003079 0.0000441 0.0011194 0.0002221 0.0004745 0.0000347 -0.0001289 -0.0024155 -0.0034123 0.0057015 -0.0285145 0.0053618 -0.0130938
-0.0173846 0.0265120 0.0008998 -0.0070986 0.0014397 -0.0031836 -0.0004598 -0.0003371 0.0000371 0.0010594 0.0002199 0.0003160 0.0000424 -0.0001919 -0.0019134 -0.0038589 -0.0332464 0.0264195 0.0009912 -0.0020750
-0.0107701 0.0225000 0.0048845 -0.0077386 0.0012971 0.0111325 -0.0004477 -0.0004243 0.0000766 0.0008971 0.0002148 0.0000989 0.0000490 -0.0002913 -0.0066396 0.0189310 -0.0210250 0.0259727 -0.0033887 0.0022695
-0.0025569 0.0084048 -0.0003238 -0.0073825 -0.0003069 0.0090872 -0.0004482 -0.0004789 0.0001221 0.0008149 0.0002104 0.0001034 0.0000501 -0.0002987 -0.0033553 0.0092314 -0.0025199 0.0030303 -0.0013651 -0.0084647
0.0041741 -0.0072881 0.0047404 -0.0180485 -0.0033588 0.0031482 -0.0004951 -0.0005083 0.0001010 0.0008680 0.0002107 0.0001770 0.0000478 -0.0002681 0.0022872 -0.0117240 0.0035413 0.0012779 -0.0128921 0.0122847
0.0079073 -0.0125752 0.0013589 0.0003338 -0.0097282 0.0152768 -0.0005545 -0.0004159 0.0000774 0.0009476 0.0002070 0.0003314 0.0000330 -0.0002102 0.0062446 -0.0092469 0.0093647 -0.0049716 -0.0056460 0.0120219
0.0094158 -0.0240023 -0.0046295 0.0085759 -0.0066228 0.0176796 -0.0005878 -0.0003783 0.0000972 0.0008667 0.0001973 0.0003038 0.0000243 -0.0002282 0.0145917 -0.0225846 0.0177456 -0.0278855 0.0038963 -0.0054765
0.0066331 -0.0160760 0.0022252 -0.0111899 -0.0030391 0.0144079 -0.0005900 -0.0005444 0.0000658 0.0007045 0.0001911 0.0000851 0.0000341 -0.0003558 0.0044489 -0.0058658 -0.0000556 0.0031827 -0.0014589 0.0005609
-0.0015669 0.0052301 0.0034670 -0.0087664 0.0021104 -0.0022734 -0.0006272 -0.0006289 0.0000305 0.0006329 0.0001973 -0.0000001 0.0000411 -0.0004234 -0.0026292 0.0032905 -0.0094493 0.0157138 0.0038740 0.0031940
-0.0121695 0.0232963 -0.0008143 -0.0010723 0.0011152 -0.0071794 -0.0006410 -0.0006261 0.0000574 0.0006804 0.0001949 0.0000382 0.0000499 -0.0003919 0.0012525 -0.0099623 -0.0060339 0.0069698 0.0132255 -0.0137093
-0.0109852 0.0258183 0.0011933 0.0047899 -0.0014960 0.0033902 -0.0005113 -0.0006100 0.0000919 0.0007791 0.0001849 0.0001200 0.0000653 -0.0003063 -0.0082731 0.0107054 -0.0134388 0.0169846 0.0119050 -0.0118255
-0.0085531 0.0138496 0.0040664 0.0024434 0.0047067 -0.0061473 -0.0004431 -0.0004867 0.0000918 0.0009425 0.0001792 0.0002741 0.0000863 -0.0001967 -0.0042037 0.0083006 -0.0098860 0.0167966 0.0046538 0.0007345
-0.0021885 -0.0022967 0.0006118 -0.0008563 0.0075889 -0.0078427 -0.0004331 -0.0004764 0.0001035 0.0009766 0.0001792 0.0001545 0.0001038 -0.0002219 0.0104253 -0.0240449 -0.0029233 0.0016703 0.0021428 -0.0033901
0.0051715 -0.0115509 -0.0027269 0.0079849 0.0015353 0.0063045 -0.0004353 -0.0005358 0.0001675 0.0008207 0.0001822 -0.0001345 0.0001131 -0.0003409 0.0032513 -0.0019850 -0.0018394 0.0075286 0.0052893 -0.0095894
0.0031240 -0.0014574 -0.0051490 0.0046376 -0.0030435 0.0101731 -0.0005020 -0.0004850 0.0002011 0.0007535 0.0001774 -0.0001802 0.0001142 -0.0003742 0.0010417 0.0074491 0.0008196 0.0148551 -0.0031124 0.0044799
-0.0055023 0.0049688 -0.0041882 0.0042480 0.0055925 -0.0120275 -0.0005496 -0.0004333 0.0001960 0.0007801 0.0001768 -0.0001024 0.0001144 -0.0003401 -0.0043037 0.0063195 0.0018400 0.0084460 -0.0060972 0.0046946
0.0022129 -0.0198941 -0.0058532 0.0106103 0.0085078 -0.0118406 -0.0005787 -0.0003507 0.0001690 0.0008630 0.0001841 0.0000308 0.0001083 -0.0002630 0.0007139 -0.0015188 0.0088054 -0.0194654 -0.0040801 0.0026094
0.0216479 -0.0501453 -0.0184679 0.0076341 -0.0001650 -0.0008174 -0.0005650 -0.0002552 0.0001245 0.0009942 0.0001853 0.0002040 0.0001039 -0.0001730 0.0078599 -0.0059667 0.0075653 -0.0133452 0.0006152 0.0032358
0.0141487 -0.0310493 0.0057014 -0.0324545 0.0040089 -0.0157826 -0.0004369 -0.0003989 0.0001138 0.0009540 0.0001853 0.0000800 0.0001098 -0.0002239 0.0004217 -0.0010120 0.0028781 -0.0021136 0.0058744 -0.0043890
0.0107810 -0.0241032 0.0007214 -0.0134066 0.0036962 -0.0021250 -0.0003682 -0.0005656 0.0001174 0.0008465 0.0001860 -0.0001759 0.0001207 -0.0003733 0.0014151 -0.0140685 -0.0119679 0.0110263 0.0087629 -0.0057201
0.0001625 0.0111724 -0.0075130 0.0066742 -0.0049393 0.0062279 -0.0004024 -0.0005279 0.0001487 0.0008364 0.0001826 -0.0001861 0.0001230 -0.0004283 0.0011697 -0.0044956 -0.0173093 0.0169928 0.0099979 -0.0070705
-0.0019991 0.0169414 -0.0012206 0.0068581 0.0017229 -0.0036892 -0.0003843 -0.0004929 0.0002153 0.0008568 0.0001768 -0.0000828 0.0001156 -0.0003926 -0.0191139 0.0261605 -0.0142295 0.0157314 -0.0021694 0.0070174
0.0028006 0.0012033 -0.0038107 0.0015202 0.0033936 -0.0006885 -0.0004093 -0.0003765 0.0002437 0.0009531 0.0001732 0.0000841 0.0001137 -0.0003054 -0.0136225 0.0171324 -0.0094126 0.0211377 -0.0167051 0.0160274
-0.0021008 0.0054505 -0.0089602 0.0171779 -0.0048112 0.0213276 -0.0004170 -0.0002695 0.0002341 0.0010499 0.0001799 0.0002680 0.0001173 -0.0002043 0.0049595 -0.0081947 0.0012952 0.0103638 -0.0169098 -0.0015479
-0.0099486 0.0111601 -0.0063628 0.0177661 -0.0019985 0.0194937 -0.0004513 -0.0002872 0.0002256 0.0009641 0.0001878 0.0001505 0.0001235 -0.0002210 -0.0065029 0.0146366 0.0062586 0.0003343 -0.0172898 0.0072838
-0.0080871 -0.0008722 -0.0024231 0.0038492 0.0020626 -0.0000149 -0.0005891 -0.0003213 0.0001695 0.0007345 0.0001862 -0.0000931 0.0001221 -0.0002857 -0.0036496 0.0121963 0.0065811 0.0014320 -0.0161683 0.0190090
-0.0022179 -0.0292314 0.0033248 -0.0050030 0.0102213 -0.0138272 -0.0006700 -0.0004337 0.0001112 0.0004975 0.0001818 -0.0001189 0.0001131 -0.0002953 0.0079323 -0.0173591 0.0127252 -0.0173580 -0.0023310 -0.0025533
0.0035213 -0.0259734 0.0127725 -0.0297262 0.0138279 -0.0219774 -0.0006446 -0.0006259 0.0000344 0.0004076 0.0001905 -0.0000361 0.0001161 -0.0002551 0.0082836 -0.0189441 0.0073993 -0.0147872 0.0057077 -0.0102968
-0.0026300 -0.0086347 0.0094068 -0.0231088 0.0040265 -0.0130030 -0.0006810 -0.0006904 -0.0000403 0.0004161 0.0002088 0.0001468 0.0001313 -0.0000912 0.0014360 0.0028653 -0.0143091 0.0226027 0.0034550 0.0068306
0.0058582 -0.0111832 0.0051644 -0.0097285 -0.0003477 -0.0042304 -0.0007795 -0.0008710 -0.0001224 0.0002822 0.0002426 0.0004131 0.0001565 0.0001313 -0.0012873 -0.0005258 -0.0172236 0.0174663 0.0041539 -0.0031650
0.0042956 -0.0114669 0.0011704 -0.0112738 0.0041431 -0.0114599 -0.0008218 -0.0012573 -0.0001902 -0.0000478 0.0002763 0.0003801 0.0001906 0.0001808 0.0054574 -0.0131413 0.0070476 -0.0283725 0.0084582 -0.0240666
-0.0149681 0.0123109 -0.0025827 -0.0281036 0.0007755 -0.0025124 -0.0008706 -0.0013863 -0.0001419 -0.0001888 0.0002817 0.0001351 0.0001895 0.0000267 -0.0002917 0.0041371 -0.0093797 0.0132387 -0.0007884 -0.0075635
-0.0051044 0.0102434 -0.0005224 -0.0021920 -0.0035286 0.0103373 -0.0009414 -0.0012723 -0.0000535 -0.0000710 0.0002732 0.0001201 0.0001906 -0.0000240 -0.0106289 0.0094923 -0.0096589 0.0181043 -0.0076829 -0.0046461
0.0088713 -0.0145890 0.0029797 -0.0021032 -0.0057135 0.0136714 -0.0009510 -0.0011217 -0.0000267 0.0000214 0.0002719 0.0002203 0.0001937 0.0000436 -0.0092227 0.0109779 0.0116033 -0.0205473 -0.0025772 -0.0044450
0.0169731 -0.0301614 0.0097613 -0.0157581 -0.0070960 0.0171803 -0.0009414 -0.0009814 -0.0000629 0.0001492 0.0002777 0.0004104 0.0001843 0.0001583 -0.0039020 0.0150567 0.0090276 -0.0152234 -0.0069962 0.0126906
0.0051236 0.0002525 0.0135851 -0.0135175 0.0006035 0.0020519 -0.0009698 -0.0008920 -0.0000888 0.0003148 0.0002910 0.0006101 0.0001900 0.0002823 0.0005373 -0.0011973 0.0109444 -0.0140595 -0.0122797 0.0140720
0.0012215 0.0070567 0.0194958 -0.0331510 0.0033812 -0.0114537 -0.0009319 -0.0008850 -0.0001176 0.0003067 0.0002927 0.0004572 0.0001917 0.0002182 0.0008488 -0.0090835 0.0081940 -0.0087252 -0.0041742 0.0036933
0.0031548 0.0012082 0.0114502 -0.0161023 0.0044984 -0.0009099 -0.0008628 -0.0008031 -0.0001481 0.0001636 0.0002862 0.0001954 0.0001965 0.0000821 -0.0060904 0.0099731 -0.0084798 0.0127121 0.0031068 0.0063742
0.0031716 -0.0058279 0.0102037 -0.0137342 0.0061530 -0.0017716 -0.0007579 -0.0007426 -0.0001778 0.0001627 0.0002894 0.0001954 0.0002081 0.0000487 -0.0037111 0.0062519 -0.0031898 -0.0070920 0.0068751 -0.0019996
0.0016072 -0.0052899 -0.0020641 -0.0062348 0.0039529 -0.0179465 -0.0006486 -0.0007539 -0.0001681 0.0002742 0.0002889 0.0003032 0.0002094 0.0000869 -0.0009485 0.0046407 -0.0020886 -0.0162883 0.0066073 -0.0117807
0.0111021 -0.0123917 -0.0135945 0.0176812 0.0027799 -0.0217483 -0.0006563 -0.0006545 -0.0001302 0.0004055 0.0002795 0.0004807 0.0001997 0.0001625 -0.0047180 0.0089268 -0.0020571 -0.0133271 -0.0020708 0.0031630
0.0058148 0.0017182 -0.0088540 0.0162818 -0.0017895 0.0023916 -0.0006783 -0.0005193 -0.0000597 0.0005176 0.0002703 0.0006914 0.0001967 0.0002576 0.0028576 -0.0150412 0.0125708 -0.0297269 -0.0037833 0.0024628
0.0040166 -0.0000936 -0.0032472 -0.0040127 -0.0069810 0.0124450 -0.0006475 -0.0005398 -0.0000042 0.0005075 0.0002615 0.0005887 0.0001930 0.0002337 0.0136009 -0.0261520 0.0084510 -0.0081673 -0.0180616 0.0157118
0.0200786 -0.0379045 -0.0000624 -0.0020270 -0.0058687 0.0027184 -0.0007042 -0.0005649 0.0000055 0.0004547 0.0002632 0.0003688 0.0002049 0.0001404 0.0092579 -0.0187765 0.0022115 0.0075130 -0.0175921 0.0194283
0.0052798 -0.0137447 0.0066791 -0.0009267 0.0032519 -0.0093045 -0.0007623 -0.0005031 0.0000402 0.0005147 0.0002786 0.0004031 0.0002201 0.0001592 0.0036755 -0.0165091 0.0027753 0.0061976 0.0056674 -0.0056140
-0.0085529 0.0100711 0.0066584 -0.0012432 -0.0127322 0.0199150 -0.0007753 -0.0004886 0.0000971 0.0007031 0.0002797 0.0005216 0.0002150 0.0002264 -0.0010624 0.0022469 0.0019363 0.0051157 0.0038049 0.0005007
-0.0048805 0.0099164 0.0019266 0.0023070 -0.0130402 0.0171430 -0.0007361 -0.0004437 0.0000832 0.0008888 0.0002709 0.0006778 0.0002009 0.0002957 0.0018612 -0.0074172 0.0016725 0.0013365 -0.0040516 0.0098365
0.0083752 -0.0108940 0.0011078 -0.0117122 -0.0037328 0.0012757 -0.0007137 -0.0004065 -0.0000290 0.0008648 0.0002691 0.0008462 0.0001980 0.0004045 0.0048526 -0.0228702 0.0026015 -0.0188430 0.0047328 -0.0068450
-0.0023457 0.0053687 -0.0021677 -0.0023207 -0.0116356 0.0186405 -0.0007971 -0.0004796 -0.0001179 0.0006735 0.0002677 0.0007506 0.0001992 0.0004355 -0.0134649 0.0089872 -0.0322401 0.0215949 0.0073213 -0.0109106
-0.0071082 0.0108884 0.0011251 -0.0025251 -0.0029128 0.0068781 -0.0008357 -0.0006674 -0.0001448 0.0004749 0.0002656 0.0005907 0.0001880 0.0004130 -0.0155995 0.0260962 -0.0213029 0.0292099 0.0047501 -0.0050776
0.0003211 -0.0013600 0.0015270 -0.0191572 -0.0007209 -0.0011030 -0.0008635 -0.0007924 -0.0001428 0.0004546 0.0002576 0.0006241 0.0001729 0.0004146 0.0003385 0.0075705 -0.0103909 0.0172242 -0.0003955 -0.0055398
-0.0057542 0.0108582 0.0207048 -0.0498174 -0.0099011 0.0145490 -0.0009064 -0.0006914 -0.0001426 0.0006397 0.0002475 0.0007051 0.0001579 0.0004429 0.0019365 0.0000441 -0.0075929 0.0079703 -0.0143888 0.0004464
-0.0029914 0.0086918 0.0076338 -0.0183433 0.0002050 0.0060900 -0.0009490 -0.0003966 -0.0001314 0.0008179 0.0002407 0.0008664 0.0001446 0.0005545 -0.0020128 0.0093442 0.0017069 -0.0066059 -0.0119909 0.0079708
-0.0021577 0.0057598 0.0053395 -0.0149400 -0.0028376 0.0091463 -0.0009398 -0.0002063 -0.0000846 0.0008943 0.0002309 0.0009458 0.0001380 0.0005788 0.0104043 -0.0215044 0.0138667 -0.0288214 -0.0067103 0.0065183
0.0040150 -0.0079286 0.0049221 -0.0138161 -0.0117863 0.0161262 -0.0009090 -0.0003378 -0.0000980 0.0008327 0.0002216 0.0007851 0.0001252 0.0004572 0.0058614 -0.0175451 0.0062700 -0.0037427 -0.0088559 0.0083453
0.0071604 -0.0204576 -0.0088905 0.0087232 0.0029087 -0.0125977 -0.0009643 -0.0005674 -0.0001293 0.0007023 0.0002202 0.0006686 0.0001019 0.0003418 -0.0027259 0.0102664 -0.0007790 0.0057897 0.0029138 -0.0025303
0.0032149 0.0023250 -0.0070203 0.0088335 -0.0015081 -0.0022346 -0.0009981 -0.0007206 -0.0001243 0.0006578 0.0002143 0.0007364 0.0000811 0.0002963 -0.0013428 0.0049724 0.0017274 -0.0165860 0.0127025 -0.0184209
0.0022780 0.0112350 0.0001060 -0.0111381 0.0001567 0.0011671 -0.0009314 -0.0007885 -0.0001065 0.0007210 0.0001972 0.0008373 0.0000723 0.0003253 0.0004754 -0.0007994 -0.0012838 -0.0089873 0.0057592 -0.0031109
0.0031019 -0.0006958 0.0038433 -0.0205202 -0.0043383 0.0019351 -0.0009022 -0.0007086 -0.0001013 0.0008580 0.0001826 0.0009910 0.0000756 0.0004192 -0.0041625 0.0124395 -0.0075162 0.0111507 -0.0013817 0.0106373
0.0105646 -0.0239823 -0.0010095 0.0023480 -0.0098537 0.0172548 -0.0009224 -0.0006495 -0.0001031 0.0008585 0.0001724 0.0008946 0.0000953 0.0004255 0.0006076 0.0010399 -0.0098623 0.0128998 -0.0058567 0.0091150
0.0010920 -0.0184737 0.0047791 -0.0025524 -0.0019515 0.0079522 -0.0009430 -0.0007071 -0.0000692 0.0006937 0.0001620 0.0005913 0.0001026 0.0002955 0.0012593 0.0022996 -0.0130535 0.0221820 -0.0078141 0.0087374
0.0006346 -0.0168735 0.0044561 -0.0034427 -0.0005943 -0.0003438 -0.0009695 -0.0006785 -0.0000486 0.0006067 0.0001432 0.0004738 0.0000984 0.0002098 0.0007278 0.0080339 0.0004251 0.0142605 -0.0135222 0.0116718
0.0121411 -0.0262337 0.0090854 -0.0159071 0.0007300 0.0003897 -0.0009252 -0.0005585 -0.0000236 0.0006611 0.0001271 0.0004950 0.0001162 0.0002608 0.0071759 -0.0087150 0.0082046 -0.0060877 -0.0192171 0.0057449
0.0004761 -0.0027786 0.0035271 -0.0085378 -0.0018050 0.0038165 -0.0008864 -0.0004651 -0.0000660 0.0007700 0.0001253 0.0005968 0.0001179 0.0003363 0.0076527 -0.0092464 0.0062589 -0.0084752 -0.0066333 0.0049473
-0.0042283 0.0053748 -0.0076070 0.0200219 -0.0017195 0.0017227 -0.0009400 -0.0004469 -0.0001464 0.0008042 0.0001235 0.0007973 0.0000895 0.0003769 0.0061448 -0.0072468 0.0023191 0.0047472 0.0031049 -0.0031612
0.0082381 -0.0199686 0.0017355 0.0078771 0.0045861 -0.0037110 -0.0009488 -0.0006507 -0.0001814 0.0006859 0.0001153 0.0006957 0.0000571 0.0002693 0.0032553 -0.0101866 -0.0013701 0.0081571 0.0030990 0.0033335
0.0007653 -0.0034861 0.0079318 -0.0124346 0.0025158 -0.0031247 -0.0009190 -0.0009385 -0.0001995 0.0005375 0.0001091 0.0004292 0.0000341 0.0000886 -0.0017293 0.0057090 -0.0082096 0.0056068 0.0056578 -0.0019281
-0.0151024 0.0292499 0.0034890 0.0003095 0.0037594 -0.0233598 -0.0009207 -0.0010936 -0.0001918 0.0004893 0.0001060 0.0004173 0.0000293 0.0000325 -0.0054786 0.0159778 -0.0321177 0.0187591 0.0147976 -0.0284551
-0.0076195 0.0210662 0.0009003 0.0042515 0.0003505 -0.0114187 -0.0009547 -0.0011143 -0.0001360 0.0004612 0.0001028 0.0005177 0.0000207 0.0000469 -0.0098120 0.0175157 -0.0385103 0.0294724 0.0022939 -0.0040475
0.0116882 -0.0257177 -0.0018093 -0.0028440 -0.0088862 0.0090341 -0.0010234 -0.0009820 -0.0001131 0.0005131 0.0000961 0.0006819 -0.0000049 0.0001124 -0.0073789 0.0132008 -0.0096701 0.0149247 -0.0143104 0.0095780
0.0091400 -0.0289145 -0.0023714 -0.0007310 -0.0094135 0.0163561 -0.0010148 -0.0007991 -0.0001223 0.0006420 0.0000940 0.0008254 -0.0000164 0.0001813 -0.0016027 -0.0012742 -0.0005514 0.0078079 -0.0358692 0.0149358
0.0060642 -0.0198084 0.0021371 -0.0058482 -0.0072384 0.0158672 -0.0009836 -0.0006798 -0.0001011 0.0006059 0.0000794 0.0005572 -0.0000168 0.0000807 0.0038490 -0.0163782 -0.0003861 0.0006216 -0.0301004 0.0126682
0.0017919 -0.0016712 0.0015925 -0.0135320 -0.0030425 0.0014477 -0.0009618 -0.0006434 -0.0000891 0.0005284 0.0000594 0.0001663 -0.0000397 -0.0001009 -0.0021422 0.0095251 0.0077928 -0.0098602 -0.0074941 0.0064421
-0.0020671 0.0104661 -0.0036337 -0.0042979 0.0116691 -0.0191569 -0.0009423 -0.0006315 -0.0000897 0.0005243 0.0000507 0.0001185 -0.0001010 -0.0002498 -0.0063736 0.0168286 0.0135826 -0.0233162 -0.0027341 0.0031620
-0.0064168 0.0097048 0.0054745 -0.0087467 0.0064794 -0.0028887 -0.0008681 -0.0006448 -0.0001240 0.0006512 0.0000406 0.0001935 -0.0001492 -0.0003423 0.0020511 -0.0024543 0.0083801 -0.0402272 -0.0057717 0.0109328
-0.0204943 0.0271324 -0.0021527 0.0070703 0.0022942 0.0004269 -0.0008008 -0.0004102 -0.0001624 0.0008845 0.0000338 0.0003616 -0.0001507 -0.0002832 0.0022189 -0.0035415 -0.0307294 0.0210281 0.0048236 0.0023671
-0.0217650 0.0234619 -0.0087427 0.0107583 0.0073154 -0.0131751 -0.0007045 -0.0001450 -0.0001187 0.0010584 0.0000325 0.0005418 -0.0001719 -0.0002562 -0.0033797 -0.0069371 -0.0186303 0.0143897 0.0197975 -0.0334513
-0.0104708 0.0119477 -0.0032731 -0.0001608 -0.0018768 0.0021187 -0.0005835 -0.0003260 -0.0000384 0.0010041 0.0000229 0.0003623 -0.0001930 -0.0004248 0.0110510 -0.0422921 -0.0034014 -0.0044005 0.0193267 -0.0410246
-0.0003472 0.0024992 -0.0050667 0.0123377 -0.0046855 0.0054622 -0.0005977 -0.0004069 -0.0000218 0.0008740 0.0000120 0.0000925 -0.0001870 -0.0005638 0.0009233 -0.0093884 -0.0089921 0.0140841 0.0014679 -0.0074097
0.0029824 -0.0078331 -0.0097454 0.0143175 -0.0013873 0.0038854 -0.0006445 -0.0001803 0.0000167 0.0008563 0.0000090 0.0000731 -0.0001901 -0.0005450 0.0023148 -0.0120919 -0.0021255 -0.0044928 -0.0131298 0.0073755
0.0002680 -0.0024906 -0.0240462 0.0235427 0.0013413 -0.0007326 -0.0006282 -0.0000524 0.0000604 0.0008754 0.0000010 0.0001389 -0.0002107 -0.0005127 0.0171654 -0.0426368 0.0112175 -0.0240770 -0.0024679 -0.0113309
-0.0018298 -0.0018599 -0.0115411 0.0181844 -0.0000401 -0.0005193 -0.0005742 0.0000699 0.0000194 0.0010151 -0.0000080 0.0002909 -0.0002276 -0.0004385 0.0057608 -0.0145135 -0.0011792 0.0121441 -0.0022258 0.0008838
-0.0058966 0.0010524 0.0030337 -0.0054272 0.0003334 0.0045712 -0.0004791 0.0002954 -0.0000568 0.0012242 -0.0000175 0.0004084 -0.0002307 -0.0003730 0.0092667 -0.0253074 0.0018411 0.0014313 -0.0111055 0.0109450
-0.0025619 0.0028360 -0.0043516 -0.0002759 0.0011818 -0.0037451 -0.0003923 0.0002608 -0.0000693 0.0011824 -0.0000238 0.0002195 -0.0002357 -0.0004607 0.0127645 -0.0298230 0.0114791 -0.0304519 0.0045146 -0.0082589
-0.0067303 0.0130787 -0.0111147 0.0144669 0.0092448 -0.0189064 -0.0004461 0.0001186 -0.0000551 0.0010228 -0.0000242 0.0000190 -0.0002397 -0.0005525 -0.0017560 0.0041678 -0.0095530 0.0084157 0.0063008 -0.0028242
0.0012656 -0.0056968 0.0043750 -0.0025960 0.0056543 -0.0043542 -0.0004591 0.0000131 -0.0000681 0.0010002 -0.0000338 0.0000902 -0.0002479 -0.0005780 -0.0020285 0.0120449 -0.0200091 0.0201314 0.0046776 -0.0032874
0.0061259 -0.0257268 0.0020927 -0.0041700 -0.0011332 -0.0033670 -0.0004264 -0.0002025 -0.0000401 0.0009798 -0.0000421 0.0002467 -0.0002585 -0.0005674 0.0017035 -0.0006674 -0.0201847 0.0159270 0.0054299 -0.0082284
-0.0067194 -0.0075440 -0.0084964 0.0152632 -0.0063965 0.0027727 -0.0005096 -0.0001921 0.0000197 0.0010916 -0.0000408 0.0004684 -0.0002734 -0.0004436 -0.0023257 0.0039196 -0.0090060 0.0090321 -0.0060267 0.0062611
-0.0043399 -0.0139465 -0.0063020 0.0193399 -0.0105146 0.0099407 -0.0006002 -0.0001098 0.0000881 0.0012029 -0.0000402 0.0005576 -0.0002747 -0.0003683 -0.0018213 0.0074989 0.0057210 -0.0087807 -0.0170452 0.0169486
-0.0114996 -0.0087542 -0.0094941 0.0131157 -0.0036704 0.0008870 -0.0005970 -0.0003116 0.0001501 0.0010815 -0.0000373 0.0003645 -0.0002625 -0.0004335 -0.0022169 -0.0001615 0.0112414 -0.0145821 -0.0225913 0.0173494
-0.0084345 0.0055134 -0.0118828 0.0068601 0.0034263 -0.0081696 -0.0006350 -0.0004511 0.0001503 0.0009553 -0.0000389 0.0002085 -0.0002500 -0.0004425 -0.0070221 0.0110628 0.0079731 -0.0062801 -0.0112774 0.0081888
-0.0004820 -0.0013722 -0.0128459 0.0005813 0.0016827 -0.0070773 -0.0006869 -0.0002917 0.0001190 0.0009506 -0.0000395 0.0002322 -0.0002377 -0.0003434 0.0000081 -0.0034917 0.0027654 -0.0062350 0.0087350 -0.0214339
0.0037642 -0.0089698 -0.0207049 0.0082856 -0.0003852 -0.0018781 -0.0006417 -0.0001477 0.0000959 0.0010056 -0.0000339 0.0003265 -0.0002283 -0.0002386 0.0047402 -0.0142050 -0.0054512 0.0038667 0.0109946 -0.0190979
-0.0077224 0.0073643 -0.0208848 0.0228860 0.0049711 -0.0090784 -0.0005421 -0.0001054 0.0000617 0.0011149 -0.0000350 0.0005080 -0.0002211 -0.0001332 0.0005844 -0.0012921 -0.0025205 0.0036849 0.0007238 -0.0043410
-0.0155937 0.0102486 -0.0208703 0.0205638 0.0026959 -0.0087695 -0.0004700 -0.0000544 0.0000411 0.0011602 -0.0000428 0.0005177 -0.0002063 -0.0001079 0.0080469 -0.0202239 -0.0040966 -0.0020668 -0.0005931 -0.0106705
-0.0064168 -0.0073581 -0.0109186 -0.0069964 0.0065242 -0.0168608 -0.0004615 -0.0001088 0.0000440 0.0010635 -0.0000509 0.0002964 -0.0001889 -0.0001966 0.0052685 -0.0149587 -0.0179882 0.0154671 -0.0026724 0.0022899
-0.0038986 -0.0071732 -0.0124720 0.0020904 0.0016879 0.0020573 -0.0004555 -0.0002065 0.0000967 0.0009620 -0.0000540 0.0001943 -0.0001802 -0.0002543 -0.0092026 0.0223774 -0.0134250 0.0146365 -0.0002290 0.0034851
-0.0128115 0.0098132 -0.0234309 0.0117188 -0.0036167 0.0135277 -0.0004751 -0.0001884 0.0001359 0.0009743 -0.0000549 0.0002764 -0.0001878 -0.0002523 -0.0033363 0.0177833 0.0122306 -0.0247463 -0.0008488 -0.0104412
-0.0212945 0.0127323 -0.0197669 0.0179106 0.0008506 0.0019507 -0.0005364 -0.0001664 0.0000893 0.0010690 -0.0000553 0.0004393 -0.0001966 -0.0002154 0.0120169 -0.0224421 0.0097595 -0.0160272 -0.0237674 0.0058444
-0.0020213 -0.0088279 -0.0162045 0.0227032 0.0012382 0.0002848 -0.0006067 -0.0000597 0.0000913 0.0011663 -0.0000489 0.0006461 -0.0002093 -0.0001137 0.0097677 -0.0148395 0.0040662 0.0051757 -0.0199625 0.0175803
0.0057515 -0.0149250 -0.0071208 -0.0075082 -0.0001766 -0.0032263 -0.0005925 0.0000200 0.0001237 0.0011846 -0.0000489 0.0006672 -0.0002170 -0.0000723 0.0033051 0.0029825 0.0097590 -0.0023499 -0.0074352 0.0066885
0.0084672 -0.0310803 0.0037485 -0.0222592 0.0033936 -0.0054787 -0.0005103 -0.0001579 0.0001082 0.0010673 -0.0000522 0.0004831 -0.0002123 -0.0001417 -0.0046919 0.0142742 0.0031028 -0.0001509 -0.0030740 0.0062405
0.0010892 -0.0159418 -0.0024738 -0.0005274 0.0032757 0.0020225 -0.0005198 -0.0002699 0.0000761 0.0010009 -0.0000502 0.0004323 -0.0002102 -0.0001805 -0.0079826 0.0212860 -0.0161725 0.0193939 0.0002334 0.0033530
-0.0086944 0.0072223 -0.0042902 0.0024205 -0.0027624 0.0037264 -0.0005404 -0.0002557 0.0000633 0.0010653 -0.0000458 0.0005379 -0.0002084 -0.0001418 -0.0106952 0.0191226 -0.0273097 0.0202829 0.0078529 -0.0110463
0.0005849 -0.0090071 0.0036388 -0.0098733 -0.0051086 0.0067683 -0.0004455 -0.0002674 0.0001201 0.0011347 -0.0000453 0.0006771 -0.0002114 -0.0000625 -0.0094273 0.0052194 -0.0147720 0.0082689 0.0003448 0.0013949
0.0024772 -0.0064175 0.0049773 -0.0196670 -0.0092127 0.0144315 -0.0004397 -0.0001280 0.0001539 0.0012594 -0.0000541 0.0008711 -0.0002096 0.0000478 0.0047513 -0.0134236 -0.0051409 0.0088695 -0.0117102 0.0175540
-0.0127809 0.0238027 -0.0071328 0.0074341 -0.0058571 0.0153342 -0.0004598 -0.0000971 0.0001566 0.0012555 -0.0000619 0.0007928 -0.0002029 0.0000570 0.0098540 -0.0211628 0.0076065 -0.0103162 -0.0065318 0.0100101
-0.0074260 0.0152077 -0.0125313 0.0258465 0.0049017 0.0035255 -0.0005132 -0.0001870 0.0001938 0.0011298 -0.0000638 0.0005558 -0.0002050 -0.0000173 0.0063306 -0.0104525 0.0055238 -0.0021232 -0.0087682 0.0111894
0.0046699 -0.0145776 -0.0092580 0.0173458 0.0074017 -0.0089979 -0.0006013 -0.0001407 0.0002213 0.0011192 -0.0000628 0.0005565 -0.0002149 -0.0000107 0.0032469 0.0067928 0.0059674 0.0026647 -0.0128632 0.0201231
-0.0038115 0.0014286 -0.0030450 0.0008875 0.0063547 -0.0094423 -0.0006110 -0.0000828 0.0002210 0.0011753 -0.0000691 0.0006678 -0.0002141 0.0000462 -0.0002382 0.0098969 0.0201681 -0.0348443 -0.0059773 0.0084435
-0.0018858 0.0026072 0.0035016 -0.0075784 0.0064285 -0.0095055 -0.0006236 -0.0000441 0.0001807 0.0012930 -0.0000670 0.0008016 -0.0002117 0.0001306 0.0022055 -0.0028861 0.0108448 -0.0221339 -0.0070531 0.0105146
0.0074221 -0.0202049 0.0015651 -0.0082624 0.0000971 -0.0054589 -0.0006294 -0.0000062 0.0001468 0.0013854 -0.0000656 0.0008275 -0.0002141 0.0001775 0.0044750 -0.0048735 -0.0073858 0.0134678 0.0020222 0.0063463
0.0078972 -0.0302348 -0.0153244 0.0075243 -0.0002357 -0.0036504 -0.0005803 -0.0001475 0.0001103 0.0012646 -0.0000692 0.0006207 -0.0002088 0.0001011 -0.0033389 0.0038683 -0.0037035 0.0002344 0.0067135 -0.0073386
-0.0064694 -0.0094033 -0.0191833 0.0055310 -0.0010364 -0.0039128 -0.0005165 -0.0004396 0.0000750 0.0010098 -0.0000765 0.0004977 -0.0002102 0.0000277 -0.0094209 0.0075677 -0.0040310 -0.0093614 0.0018896 -0.0042282
-0.0037487 -0.0089515 -0.0103329 -0.0054755 0.0008711 -0.0046458 -0.0005652 -0.0004896 0.0000756 0.0009322 -0.0000870 0.0005735 -0.0002212 0.0000222 -0.0056463 0.0083012 -0.0082590 0.0046042 0.0027597 0.0019080
0.0043913 -0.0180705 -0.0069418 -0.0099687 0.0041276 -0.0010973 -0.0006275 -0.0003951 0.0001159 0.0010068 -0.0000897 0.0006963 -0.0002244 0.0000716 -0.0026323 -0.0007466 -0.0027834 -0.0066704 -0.0025757 0.0040699
-0.0043194 0.0076455 -0.0061134 0.0048464 0.0081290 -0.0150457 -0.0006302 -0.0002937 0.0001602 0.0011403 -0.0000961 0.0008380 -0.0002217 0.0002115 0.0030345 -0.0141643 -0.0006254 0.0000988 -0.0150726 0.0081020
-0.0045464 0.0128246 -0.0066669 0.0086014 0.0097504 -0.0142222 -0.0006360 -0.0002363 0.0001724 0.0011501 -0.0001030 0.0006549 -0.0002086 0.0001979 0.0001948 -0.0052590 0.0002233 0.0097250 -0.0156000 0.0123101
0.0022567 -0.0097228 -0.0044242 0.0000458 0.0082378 -0.0066558 -0.0006791 -0.0003274 0.0001683 0.0010140 -0.0000997 0.0003850 -0.0002087 0.0000449 -0.0013426 0.0055330 0.0002071 0.0069321 -0.0155605 0.0160708
0.0134922 -0.0388845 0.0002564 -0.0037635 0.0087680 -0.0109406 -0.0007191 -0.0004494 0.0001307 0.0009670 -0.0000945 0.0004010 -0.0002254 0.0000059 -0.0000337 0.0091096 0.0014559 0.0058748 -0.0036767 0.0075632
-0.0004334 -0.0139627 0.0071526 -0.0133235 0.0092441 -0.0043003 -0.0007419 -0.0004621 0.0000982 0.0009728 -0.0000922 0.0005180 -0.0002323 0.0000370 -0.0035841 0.0106712 -0.0065452 0.0083072 0.0055480 -0.0027216
-0.0181298 0.0047012 0.0147861 -0.0308228 0.0125886 -0.0135625 -0.0006799 -0.0005190 0.0000482 0.0009836 -0.0000924 0.0006782 -0.0002325 0.0001014 -0.0025173 0.0033251 -0.0287334 0.0166776 0.0065792 -0.0097631
0.0001751 -0.0141518 0.0001579 -0.0182100 0.0096096 -0.0265247 -0.0006761 -0.0006781 -0.0000113 0.0008416 -0.0001024 0.0005780 -0.0002355 0.0000589 -0.0039092 0.0015412 -0.0243591 0.0180527 -0.0008108 0.0069802
-0.0093575 0.0061037 0.0018553 -0.0074923 0.0121444 -0.0377429 -0.0007136 -0.0008753 -0.0000209 0.0006435 -0.0001090 0.0002905 -0.0002351 -0.0001057 0.0006841 -0.0126593 -0.0162287 0.0068977 -0.0027178 0.0078083
-0.0211462 0.0235238 0.0095697 -0.0175759 -0.0023344 0.0015924 -0.0006704 -0.0010196 -0.0000090 0.0005121 -0.0001096 0.0002087 -0.0002287 -0.0001598 0.0238495 -0.0685042 -0.0029160 -0.0168891 0.0078718 -0.0305899
-0.0150414 0.0192573 -0.0013619 -0.0032166 -0.0099961 0.0098722 -0.0006763 -0.0009227 -0.0000144 0.0005207 -0.0001154 0.0002811 -0.0002277 -0.0001124 0.0018007 -0.0081533 0.0041845 -0.0044117 -0.0081180 -0.0084192
-0.0022063 -0.0003954 -0.0030770 0.0049855 -0.0071311 0.0055488 -0.0007516 -0.0007083 0.0000197 0.0006734 -0.0001163 0.0004152 -0.0002211 -0.0000512 -0.0028477 0.0032503 0.0039349 0.0016715 -0.0210557 0.0126065
0.0062222 -0.0245865 0.0002205 -0.0053026 -0.0077934 0.0090117 -0.0007712 -0.0006004 0.0000713 0.0007794 -0.0001122 0.0005097 -0.0002142 -0.0000082 0.0030213 -0.0053506 0.0061558 -0.0180173 -0.0063904 0.0000785
-0.0120908 -0.0004925 0.0034265 -0.0208849 -0.0027200 0.0037258 -0.0007383 -0.0007105 0.0000764 0.0007108 -0.0001075 0.0002870 -0.0002165 -0.0000967 -0.0020178 0.0075509 0.0042356 -0.0086339 -0.0047128 0.0018364
-0.0130557 0.0140135 -0.0022065 -0.0020079 -0.0001901 0.0073203 -0.0006717 -0.0008644 0.0000165 0.0006153 -0.0001037 0.0000225 -0.0002132 -0.0002384 -0.0002983 -0.0029235 0.0053701 -0.0004158 -0.0013248 0.0018356
-0.0064293 0.0129334 0.0005633 -0.0080165 -0.0007860 0.0043616 -0.0006005 -0.0009803 -0.0000307 0.0005722 -0.0001004 0.0000285 -0.0002128 -0.0003236 0.0167241 -0.0364936 0.0005044 -0.0013156 0.0141199 -0.0192538
-0.0033008 0.0030970 0.0003384 -0.0026770 0.0033889 0.0007671 -0.0006505 -0.0010354 -0.0000386 0.0005567 -0.0000934 0.0001622 -0.0002236 -0.0003311 0.0029800 0.0010247 -0.0157927 0.0199902 0.0113617 -0.0131179
-0.0063383 0.0084545 -0.0092872 0.0171635 0.0043368 0.0001070 -0.0006908 -0.0009615 -0.0000517 0.0005463 -0.0000887 0.0003531 -0.0002224 -0.0002465 -0.0045957 0.0170663 -0.0115268 0.0218188 0.0012093 0.0031003
-0.0128777 0.0181091 -0.0108865 0.0083885 -0.0053862 -0.0002081 -0.0006233 -0.0009636 -0.0000296 0.0004763 -0.0000910 0.0002835 -0.0001951 -0.0002490 0.0027190 -0.0012726 0.0037464 -0.0032721 -0.0057453 0.0020994
-0.0065080 -0.0016417 0.0059505 -0.0155371 -0.0053289 -0.0034907 -0.0005961 -0.0010254 0.0000058 0.0004665 -0.0000900 0.0000040 -0.0001824 -0.0003623 0.0089234 -0.0199203 -0.0014423 0.0088514 -0.0144074 0.0118753
0.0011371 -0.0140318 0.0005606 -0.0105154 0.0020926 -0.0001969 -0.0006614 -0.0009333 0.0000583 0.0004740 -0.0000868 -0.0000948 -0.0001872 -0.0004247 0.0118808 -0.0213023 -0.0013645 0.0099263 -0.0119385 0.0227384
-0.0137258 0.0129692 -0.0171096 0.0016794 0.0015759 0.0042190 -0.0006578 -0.0008746 0.0001122 0.0004618 -0.0000834 -0.0000378 -0.0001806 -0.0004179 0.0077562 -0.0121381 0.0196168 -0.0301477 -0.0095934 0.0148519
-0.0116762 0.0118110 -0.0101790 0.0029297 0.0004013 -0.0006539 -0.0005586 -0.0009111 0.0000858 0.0005264 -0.0000745 0.0000869 -0.0001809 -0.0003505 -0.0011055 -0.0025103 0.0070027 0.0008921 -0.0041135 0.0025115
-0.0138139 0.0058351 -0.0003328 -0.0042103 -0.0032647 0.0040005 -0.0005243 -0.0007759 0.0000380 0.0006702 -0.0000632 0.0002732 -0.0001791 -0.0002508 0.0030349 -0.0106894 -0.0044462 0.0173372 0.0011442 0.0041406
-0.0196932 0.0056650 0.0150079 -0.0330360 -0.0076253 0.0118112 -0.0005467 -0.0007094 0.0000524 0.0006617 -0.0000570 0.0001604 -0.0001627 -0.0003020 -0.0007461 -0.0016621 -0.0072288 0.0070414 0.0091498 -0.0143428
-0.0062821 0.0011216 0.0154785 -0.0235545 -0.0012713 0.0026706 -0.0004606 -0.0008609 0.0000774 0.0005308 -0.0000539 -0.0001146 -0.0001523 -0.0004402 -0.0032826 0.0041616 -0.0128098 0.0067686 0.0067882 -0.0139779
-0.0038713 -0.0027904 0.0050203 0.0046854 0.0000439 -0.0014449 -0.0003837 -0.0008844 0.0000775 0.0005134 -0.0000502 -0.0001441 -0.0001424 -0.0004913 -0.0001239 0.0063210 -0.0073706 0.0044045 -0.0029545 0.0026441
-0.0038832 0.0046633 -0.0091494 0.0189105 -0.0066595 0.0155717 -0.0003767 -0.0008137 0.0000751 0.0005510 -0.0000499 -0.0000483 -0.0001373 -0.0004582 0.0011300 -0.0008226 -0.0044381 -0.0003347 -0.0153903 0.0136816
-0.0079809 0.0133685 -0.0090383 0.0061304 0.0014011 0.0046885 -0.0004171 -0.0007139 0.0000922 0.0005537 -0.0000413 0.0001143 -0.0001395 -0.0003537 -0.0043252 0.0137083 -0.0017260 0.0050413 -0.0138337 0.0110643
-0.0019500 -0.0044355 0.0043852 -0.0155641 0.0089518 -0.0201204 -0.0004692 -0.0005426 0.0001100 0.0006243 -0.0000303 0.0003019 -0.0001366 -0.0002586 0.0000340 0.0096050 0.0022341 0.0047482 -0.0014870 -0.0009064
0.0014423 -0.0110077 0.0069858 -0.0255553 0.0053013 -0.0075493 -0.0004861 -0.0005208 0.0001282 0.0005763 -0.0000271 0.0001643 -0.0001360 -0.0003138 0.0115073 -0.0202804 0.0101938 -0.0131992 -0.0016649 0.0037585
-0.0051025 -0.0010129 -0.0015747 -0.0119789 0.0011328 0.0058756 -0.0004918 -0.0006034 0.0000790 0.0004458 -0.0000213 -0.0000759 -0.0001322 -0.0004230 0.0100235 -0.0101935 0.0146798 -0.0220620 -0.0046327 0.0089061
0.0039237 -0.0166618 -0.0061985 -0.0023650 -0.0017609 -0.0019466 -0.0004527 -0.0006259 0.0000356 0.0004671 -0.0000133 -0.0000622 -0.0001321 -0.0004276 0.0075624 -0.0027047 0.0031444 -0.0029501 0.0044455 -0.0025139
0.0118301 -0.0340438 0.0021741 -0.0234981 0.0043394 -0.0065106 -0.0003372 -0.0006745 0.0000582 0.0005469 -0.0000114 0.0000410 -0.0001348 -0.0003784 0.0028022 -0.0084409 -0.0034546 -0.0047798 0.0082628 -0.0095493
0.0006580 -0.0074746 -0.0030773 0.0090304 -0.0013324 0.0098066 -0.0003037 -0.0006337 0.0000732 0.0006939 -0.0000091 0.0002048 -0.0001139 -0.0002737 -0.0075214 -0.0066876 -0.0060989 -0.0041393 0.0004160 -0.0026074
0.0056273 -0.0159979 -0.0022353 0.0095542 -0.0036929 0.0036372 -0.0003499 -0.0005880 0.0000875 0.0007525 0.0000042 0.0001685 -0.0000868 -0.0002234 -0.0052193 0.0035863 -0.0108814 0.0093247 -0.0019930 -0.0011490
0.0162309 -0.0466562 0.0011309 -0.0190573 0.0050859 -0.0079208 -0.0004063 -0.0006896 0.0001025 0.0005183 0.0000161 -0.0000430 -0.0000823 -0.0002869 0.0011602 -0.0085650 -0.0232112 0.0188927 -0.0030045 -0.0052789
0.0056355 -0.0261448 -0.0031685 -0.0049520 0.0046286 -0.0056116 -0.0005034 -0.0008342 0.0000830 0.0002641 0.0000402 -0.0000642 -0.0000792 -0.0002275 -0.0007460 -0.0029482 -0.0084535 0.0080757 -0.0174998 0.0042349
0.0106173 -0.0230755 -0.0050152 0.0071450 -0.0021490 0.0158317 -0.0006134 -0.0010453 -0.0000231 0.0000394 0.0001008 0.0001534 -0.0000251 0.0000724 0.0034213 0.0003999 0.0091860 -0.0135459 -0.0598421 0.0408821
0.0061290 -0.0028518 -0.0017575 0.0108171 0.0044500 0.0056387 -0.0008156 -0.0011537 -0.0001396 -0.0001818 0.0001844 0.0004944 0.0000839 0.0004721 0.0019819 -0.0002115 0.0098483 -0.0164490 -0.0237341 0.0170919
0.0040561 0.0018364 0.0026579 0.0034258 0.0085153 -0.0165176 -0.0009102 -0.0010339 -0.0002322 -0.0001749 0.0002362 0.0007384 0.0001883 0.0007708 -0.0018735 0.0069291 -0.0030011 0.0149590 -0.0062696 0.0061998
0.0021311 0.0015704 0.0062467 -0.0070759 0.0047484 -0.0002963 -0.0008336 -0.0009116 -0.0002410 -0.0002019 0.0002386 0.0005801 0.0002247 0.0007415 -0.0013721 0.0085687 -0.0045051 0.0181483 0.0016680 0.0022518
0.0011044 -0.0034842 0.0068158 -0.0037932 0.0039694 0.0099172 -0.0006761 -0.0010127 -0.0002331 -0.0002042 0.0002278 0.0003131 0.0002263 0.0005731 -0.0052520 0.0117650 -0.0022738 0.0004805 0.0039360 -0.0015641
-0.0094855 0.0123446 0.0005822 -0.0002386 0.0000290 0.0095224 -0.0005956 -0.0010023 -0.0002917 -0.0000354 0.0002152 0.0002606 0.0002153 0.0005142 -0.0051587 0.0159264 -0.0153408 0.0122449 0.0068813 -0.0030349
-0.0122057 0.0170070 -0.0081229 0.0060881 0.0073313 -0.0170010 -0.0006071 -0.0008556 -0.0003079 0.0000715 0.0002130 0.0003661 0.0001799 0.0004949 -0.0037292 0.0096954 -0.0232077 0.0199876 0.0075650 -0.0047251
0.0074807 -0.0256649 -0.0028473 0.0067965 0.0028272 -0.0023075 -0.0005931 -0.0008501 -0.0002438 0.0000762 0.0002193 0.0006030 0.0001566 0.0005247 0.0049197 -0.0149664 -0.0007074 -0.0088440 0.0065435 -0.0170497
0.0065112 -0.0158316 -0.0020483 -0.0015691 -0.0058711 0.0145851 -0.0006189 -0.0008223 -0.0002054 0.0000300 0.0002177 0.0006091 0.0001364 0.0004934 0.0024964 -0.0018584 0.0095339 -0.0149732 -0.0028534 -0.0037756
0.0037944 -0.0062072 0.0018505 -0.0026119 0.0029058 -0.0020209 -0.0007309 -0.0008281 -0.0002135 -0.0000611 0.0002178 0.0004028 0.0001211 0.0003578 0.0007318 0.0028298 0.0091257 -0.0098880 -0.0202044 0.0212236
0.0104557 -0.0267674 0.0059932 -0.0061424 0.0142985 -0.0213871 -0.0007760 -0.0009270 -0.0001839 -0.0001147 0.0002328 0.0003533 0.0001127 0.0003224 0.0071593 -0.0181983 0.0157076 -0.0244992 -0.0113328 0.0058957
0.0124281 -0.0193831 0.0002294 -0.0057875 0.0015142 -0.0035612 -0.0007635 -0.0009054 -0.0001686 -0.0000194 0.0002372 0.0003892 0.0001316 0.0004294 0.0039602 -0.0023804 0.0065898 -0.0030983 -0.0021853 0.0054163
0.0028715 0.0091072 0.0020804 -0.0036242 0.0032056 -0.0039611 -0.0007317 -0.0007150 -0.0002255 0.0002813 0.0002083 0.0003572 0.0001483 0.0005138 0.0073057 -0.0072947 0.0042884 -0.0029398 0.0030695 0.0031527
-0.0040797 0.0172594 -0.0016004 0.0135765 0.0090158 -0.0140305 -0.0006856 -0.0006104 -0.0003009 0.0004632 0.0001824 0.0003158 0.0001344 0.0004990 0.0150743 -0.0387300 0.0098149 -0.0306964 0.0153747 -0.0254975
-0.0022612 0.0026610 -0.0121817 0.0253719 0.0046539 -0.0017754 -0.0006825 -0.0006624 -0.0003087 0.0003308 0.0001733 0.0001687 0.0001624 0.0004642 -0.0037792 -0.0022318 -0.0111595 0.0009569 0.0072382 -0.0047620
0.0045271 -0.0138930 -0.0087279 0.0061423 0.0050742 -0.0001587 -0.0005377 -0.0006742 -0.0002516 0.0002862 0.0001409 -0.0000499 0.0002007 0.0004266 -0.0070854 0.0141045 -0.0121560 0.0108171 0.0037962 0.0005223
0.0080271 -0.0143423 0.0032305 -0.0153280 0.0048433 -0.0072839 -0.0004436 -0.0005530 -0.0002312 0.0005065 0.0001087 -0.0001138 0.0001722 0.0003547 -0.0050412 0.0096565 -0.0018715 -0.0007608 0.0021370 -0.0120867
0.0075275 -0.0200662 -0.0023253 -0.0138202 0.0024050 -0.0000274 -0.0004665 -0.0003806 -0.0002453 0.0008488 0.0000927 -0.0000368 0.0001058 0.0003098 -0.0063186 0.0058969 -0.0040269 0.0062211 -0.0210463 0.0092750
0.0013206 -0.0120575 0.0033039 -0.0186076 -0.0054089 0.0079835 -0.0004473 -0.0001309 -0.0002147 0.0011082 0.0000705 0.0001134 0.0000530 0.0003086 -0.0007332 0.0092595 0.0061445 -0.0002162 -0.0207814 0.0211135
0.0014787 0.0042734 0.0072487 -0.0142006 -0.0040906 0.0032356 -0.0004566 -0.0000538 -0.0001734 0.0010123 0.0000579 0.0000117 0.0000285 0.0002062 0.0013427 0.0048000 0.0233276 -0.0350693 -0.0046942 0.0055389
-0.0006340 0.0129641 0.0055251 -0.0044009 0.0008174 0.0063295 -0.0004881 -0.0002112 -0.0001813 0.0007539 0.0000622 -0.0001536 0.0000002 0.0000536 -0.0026003 0.0125699 0.0118834 -0.0132314 -0.0011431 0.0037838
-0.0046048 0.0155960 0.0139445 -0.0229389 0.0005454 0.0037437 -0.0004743 -0.0002086 -0.0002153 0.0007317 0.0000793 -0.0000863 -0.0000035 0.0000452 -0.0022517 0.0166115 0.0023452 -0.0000128 0.0029557 0.0098055
-0.0037108 0.0203903 0.0121262 -0.0335907 0.0061694 -0.0086921 -0.0003938 -0.0001390 -0.0002098 0.0007981 0.0000927 0.0000460 0.0000142 0.0000945 0.0036247 0.0006466 0.0019460 -0.0061563 0.0094660 0.0014280
-0.0109800 0.0297396 0.0005496 0.0022106 0.0115131 -0.0189148 -0.0002336 -0.0000448 -0.0001753 0.0009091 0.0000968 0.0002218 0.0000107 0.0000865 0.0052640 -0.0026523 0.0037356 -0.0051691 0.0061032 0.0053994
-0.0112245 0.0165703 0.0010872 0.0089830 0.0205295 -0.0539541 -0.0000857 0.0000938 -0.0001850 0.0010070 0.0001028 0.0001732 0.0000263 -0.0000226 0.0012609 0.0008394 -0.0034213 0.0059366 0.0051437 0.0010967
-0.0031923 0.0068246 -0.0063369 0.0024310 0.0117516 -0.0282580 -0.0000043 0.0000536 -0.0002116 0.0008548 0.0001087 -0.0000582 0.0000526 -0.0001803 -0.0018870 -0.0052165 -0.0076533 0.0087077 0.0051310 -0.0079824
0.0032529 0.0125090 -0.0112215 0.0037923 0.0022352 -0.0045982 -0.0000790 -0.0000705 -0.0001822 0.0006018 0.0001107 -0.0001483 0.0000589 -0.0002729 -0.0052108 0.0139160 -0.0036389 0.0174996 -0.0021507 0.0012968
0.0101518 0.0014219 -0.0009798 -0.0072118 -0.0026011 0.0000741 -0.0002194 -0.0001933 -0.0001943 0.0004332 0.0001089 -0.0000996 0.0000535 -0.0002986 0.0007897 0.0146308 0.0048502 0.0114220 -0.0113410 0.0100688
0.0071762 -0.0007618 0.0200141 -0.0351258 0.0084016 -0.0118646 -0.0003107 -0.0002964 -0.0002702 0.0003747 0.0001164 0.0000069 0.0000506 -0.0002650 0.0064050 0.0001634 0.0167842 -0.0196297 -0.0052730 0.0075694
0.0084884 -0.0061929 0.0150352 -0.0173355 0.0094901 -0.0107984 -0.0004116 -0.0002951 -0.0003423 0.0003729 0.0001339 0.0000092 0.0000503 -0.0002587 0.0065463 -0.0010971 0.0147040 -0.0207057 0.0057040 0.0059346
0.0066860 -0.0007717 -0.0008921 0.0106512 0.0056685 -0.0045025 -0.0004418 -0.0004411 -0.0003952 0.0001648 0.0001516 -0.0001419 0.0000601 -0.0003688 0.0041645 0.0015235 0.0071374 -0.0003177 0.0133828 -0.0045259
0.0023236 0.0062437 0.0011466 0.0050732 0.0026983 -0.0061839 -0.0003669 -0.0007091 -0.0004598 -0.0001283 0.0001720 -0.0002204 0.0000731 -0.0004759 -0.0022901 0.0063335 0.0052779 -0.0004386 0.0158572 -0.0121510
0.0101318 -0.0169927 0.0078333 -0.0125089 -0.0050399 0.0023307 -0.0003204 -0.0007597 -0.0005177 -0.0002584 0.0001745 -0.0001841 0.0000854 -0.0005214 -0.0045291 0.0059842 -0.0060122 0.0096138 0.0123899 -0.0063106
-0.0004821 0.0092356 0.0036696 -0.0104804 -0.0028922 0.0024650 -0.0002771 -0.0007570 -0.0005385 -0.0003040 0.0001675 -0.0001166 0.0000875 -0.0005218 0.0002879 -0.0050351 -0.0109864 0.0153305 0.0169530 -0.0189868
-0.0029289 0.0184880 0.0004046 -0.0033517 0.0022560 -0.0069738 -0.0003142 -0.0007919 -0.0005107 -0.0003777 0.0001625 -0.0000031 0.0000760 -0.0004679 -0.0017641 -0.0012280 -0.0060188 0.0032218 0.0103855 -0.0057114
0.0007027 0.0115007 0.0034137 0.0046216 0.0017315 0.0013399 -0.0004660 -0.0008721 -0.0005113 -0.0005653 0.0001514 -0.0001552 0.0000658 -0.0005423 0.0003472 0.0035240 -0.0032358 0.0145983 -0.0052498 0.0112775
0.0028913 0.0132873 -0.0009589 0.0182309 -0.0015027 0.0109440 -0.0004957 -0.0010613 -0.0005362 -0.0007852 0.0001381 -0.0004679 0.0000615 -0.0007059 0.0039963 0.0003771 0.0053638 0.0065737 -0.0079636 0.0024707
0.0074429 0.0093097 -0.0035174 0.0209025 0.0014441 0.0071161 -0.0005661 -0.0011897 -0.0005186 -0.0008923 0.0001237 -0.0005764 0.0000480 -0.0007747 0.0032337 0.0005325 0.0011040 0.0138419 -0.0033407 -0.0028896
0.0033323 0.0057054 -0.0005634 0.0125241 0.0029376 0.0016893 -0.0007455 -0.0012831 -0.0004828 -0.0008926 0.0001239 -0.0005411 0.0000231 -0.0007489 0.0021968 0.0051438 0.0003473 0.0151309 0.0006386 0.0041319
0.0045963 0.0018270 0.0026027 0.0040772 0.0033598 -0.0003775 -0.0009414 -0.0014429 -0.0004363 -0.0008417 0.0001344 -0.0003953 0.0000038 -0.0006604 0.0003121 0.0041386 0.0078021 -0.0032173 0.0075109 -0.0011782
-0.0011217 0.0108593 0.0134053 -0.0219790 0.0082543 -0.0125781 -0.0009952 -0.0016952 -0.0004522 -0.0007491 0.0001540 -0.0003430 0.0000384 -0.0005860 0.0038729 -0.0112864 0.0047737 -0.0082702 0.0016741 0.0032680
-0.0105762 0.0051250 0.0138958 -0.0283166 0.0130929 -0.0289546 -0.0010087 -0.0019187 -0.0004698 -0.0007771 0.0001771 -0.0004576 0.0000913 -0.0005927 0.0019462 -0.0102567 -0.0090549 0.0047336 -0.0066969 0.0131532
0.0004150 -0.0104408 0.0015819 -0.0014295 0.0037195 -0.0078235 -0.0010337 -0.0020791 -0.0004330 -0.0008084 0.0001885 -0.0004952 0.0000913 -0.0006484 -0.0025949 -0.0002805 -0.0228394 0.0132149 -0.0013012 0.0055096
-0.0014616 0.0033785 -0.0062727 0.0075102 -0.0012143 -0.0043339 -0.0009525 -0.0021252 -0.0003413 -0.0007681 0.0001821 -0.0003938 0.0000737 -0.0006420 0.0004364 -0.0078464 -0.0029383 -0.0124326 0.0044314 -0.0120867
0.0003021 -0.0008712 0.0033712 -0.0197598 -0.0077746 0.0058332 -0.0009369 -0.0018601 -0.0002654 -0.0004892 0.0001656 -0.0002426 0.0000461 -0.0005746 -0.0036210 0.0062402 -0.0016350 0.0053831 -0.0135110 0.0027346
-0.0015107 -0.0016233 0.0095895 -0.0184295 -0.0026238 -0.0026678 -0.0010028 -0.0013560 -0.0002298 0.0000856 0.0001566 -0.0000492 0.0000246 -0.0004566 -0.0040376 0.0078786 -0.0066972 0.0104750 -0.0321438 0.0203673
-0.0022470 0.0018825 0.0070577 -0.0060508 0.0089313 -0.0221493 -0.0009912 -0.0010559 -0.0002175 0.0003065 0.0001537 -0.0001612 0.0000198 -0.0004619 0.0083556 -0.0230186 0.0041372 -0.0102004 -0.0020572 -0.0159494
0.0018920 -0.0113851 0.0071927 -0.0122574 0.0054043 -0.0100084 -0.0008691 -0.0009296 -0.0002295 0.0003513 0.0001418 -0.0004246 -0.0000024 -0.0005804 0.0007544 -0.0035143 0.0057052 -0.0042137 0.0113967 -0.0231050
0.0030913 -0.0121390 0.0098287 -0.0164839 0.0017608 -0.0017712 -0.0007533 -0.0007604 -0.0002783 0.0005459 0.0001405 -0.0004029 -0.0000083 -0.0005950 -0.0071103 0.0097024 0.0059346 -0.0068569 0.0078863 -0.0135368
-0.0029765 0.0054621 0.0165652 -0.0279258 -0.0018458 0.0047422 -0.0006374 -0.0006596 -0.0003214 0.0006530 0.0001491 -0.0002605 0.0000057 -0.0005417 -0.0001953 -0.0010239 0.0112172 -0.0282393 0.0148088 -0.0256649
-0.0039714 0.0120203 0.0016642 0.0019631 0.0023696 0.0002736 -0.0005096 -0.0004362 -0.0003036 0.0007807 0.0001445 -0.0000911 0.0000171 -0.0004296 -0.0030907 0.0130663 -0.0053312 0.0002533 0.0097716 -0.0094324
-0.0063030 0.0198499 -0.0082348 0.0200978 0.0080566 -0.0101316 -0.0003815 -0.0002098 -0.0002810 0.0008648 0.0001311 0.0000265 0.0000353 -0.0003539 -0.0058580 0.0219865 -0.0242560 0.0337084 0.0024469 0.0003634
-0.0032615 0.0101530 0.0013421 0.0038609 0.0093997 -0.0159932 -0.0003048 -0.0003411 -0.0002541 0.0006925 0.0001270 -0.0000854 0.0000457 -0.0004004 0.0035202 0.0051466 -0.0088158 0.0144942 0.0055447 -0.0130939
0.0042400 -0.0130911 0.0109927 -0.0201074 0.0026849 0.0006426 -0.0004364 -0.0006129 -0.0002605 0.0003952 0.0001407 -0.0001928 0.0000391 -0.0004482 0.0045133 0.0039051 0.0020893 -0.0004468 -0.0104381 0.0108242
0.0023023 -0.0103959 0.0050479 -0.0075246 -0.0021438 0.0014714 -0.0006819 -0.0008134 -0.0002698 0.0000832 0.0001606 -0.0000921 0.0000208 -0.0004106 0.0040417 0.0066295 0.0035862 0.0046860 -0.0062695 0.0163740
0.0098097 -0.0281716 0.0036506 -0.0018902 -0.0019319 -0.0058135 -0.0007580 -0.0009552 -0.0002824 -0.0000546 0.0001812 0.0000366 0.0000369 -0.0002860 0.0060131 -0.0039800 0.0163046 -0.0253230 0.0053499 -0.0053550
0.0037035 -0.0059417 0.0108971 -0.0211966 -0.0034257 0.0049994 -0.0007472 -0.0009657 -0.0003411 0.0000460 0.0001811 0.0001492 0.0000628 -0.0001475 0.0016015 0.0060687 0.0099255 -0.0131603 -0.0016821 -0.0000819
-0.0006917 0.0125259 -0.0003658 -0.0015903 -0.0079243 0.0166066 -0.0007461 -0.0007651 -0.0003431 0.0003717 0.0001548 -0.0000279 0.0000755 -0.0001308 -0.0022487 0.0104684 -0.0017236 -0.0014735 0.0000251 0.0074640
0.0020201 0.0044952 0.0003941 0.0011326 -0.0103343 0.0188740 -0.0007218 -0.0006590 -0.0002952 0.0005796 0.0001485 -0.0002250 0.0000455 -0.0002600 -0.0055343 0.0012661 -0.0067817 -0.0117975 0.0094446 -0.0074035
0.0095639 -0.0199931 0.0160112 -0.0288089 -0.0029808 0.0010127 -0.0006746 -0.0007098 -0.0002599 0.0005579 0.0001563 -0.0000713 -0.0000209 -0.0003528 -0.0032379 0.0031059 -0.0024158 -0.0174287 0.0061411 -0.0025439
0.0075110 -0.0141908 0.0026545 -0.0140847 0.0039566 -0.0158433 -0.0006503 -0.0006046 -0.0002552 0.0006855 0.0001561 0.0001522 -0.0000345 -0.0002785 -0.0032566 0.0051123 -0.0097531 0.0033468 0.0018178 0.0009641
