-0.0000000 -0.0000000 -0.0000000 -0.0000000 -0.0000000 -0.0000000 -0.0000000 -0.0000000 -0.0000000 -0.0000000 -0.0000000 -0.0000000 -0.0000000 -0.0000000 -0.0000000 -0.0000000 -0.0000000 -0.0000000 -0.0000000 -0.0000000
-0.0000000 -0.0000000 -0.0000000 -0.0000000 -0.0000000 -0.0000000 -0.0000000 -0.0000000 -0.0000000 -0.0000000 -0.0000000 -0.0000000 -0.0000000 -0.0000000 -0.0000000 -0.0000000 -0.0000000 -0.0000000 -0.0000000 -0.0000000
-0.0006071 0.0003429 0.0004981 -0.0003153 0.0006018 -0.0003655 0.0006925 -0.0005436 0.0000098 0.0000307 0.0000130 0.0000047 0.0000161 0.0000217 0.0000113 0.0000447 0.0000214 0.0000508 0.0000322 0.0000753
-0.0017180 0.0012158 -0.0010650 0.0008095 -0.0008813 0.0006964 0.0012138 -0.0007594 0.0000112 0.0001100 0.0000180 0.0000502 0.0000284 0.0000938 0.0000133 0.0001408 0.0000171 0.0001676 0.0000437 0.0002058
0.0000571 -0.0000502 -0.0016935 0.0010973 -0.0013034 0.0009139 0.0014346 -0.0007056 0.0000016 0.0002239 0.0000149 0.0001194 0.0000328 0.0001732 0.0000064 0.0001843 0.0000247 0.0001668 0.0000277 0.0002214
0.0012581 -0.0005967 -0.0030329 0.0022035 -0.0044574 0.0033611 0.0010544 -0.0005163 -0.0000093 0.0000929 0.0000115 0.0000340 0.0000342 0.0000700 0.0000091 -0.0000018 0.0000127 -0.0000295 -0.0000072 -0.0000080
0.0017869 -0.0006629 -0.0051180 0.0037767 -0.0081205 0.0056973 -0.0000578 0.0000832 -0.0000041 -0.0002351 0.0000181 -0.0001832 0.0000394 -0.0001665 0.0000200 -0.0002395 0.0000193 -0.0002232 -0.0000121 -0.0001856
0.0030499 -0.0016869 -0.0031954 0.0021507 -0.0050242 0.0029457 -0.0005126 0.0003024 0.0000110 -0.0002668 0.0000319 -0.0002161 0.0000439 -0.0001950 0.0000364 -0.0002303 0.0000266 -0.0001807 0.0000104 -0.0000953
0.0023435 -0.0013789 -0.0005465 0.0009801 -0.0017848 0.0010956 -0.0017629 0.0012243 0.0000171 -0.0001401 0.0000425 -0.0001390 0.0000648 -0.0001096 0.0000485 -0.0001014 0.0000338 -0.0000316 0.0000292 0.0000773
0.0008577 -0.0002744 0.0019564 -0.0005633 0.0014121 -0.0004424 -0.0027969 0.0019344 0.0000109 0.0000416 0.0000449 -0.0000231 0.0000695 0.0000364 0.0000448 0.0000862 0.0000535 0.0001289 0.0000365 0.0002643
0.0001366 0.0000939 0.0031168 -0.0022701 0.0034203 -0.0020909 -0.0011782 0.0009928 0.0000051 0.0002561 0.0000404 0.0001171 0.0000562 0.0002166 0.0000266 0.0002963 0.0000211 0.0003482 0.0000100 0.0004672
-0.0021125 0.0019700 0.0025965 -0.0016801 0.0026897 -0.0013969 -0.0002857 0.0008710 -0.0000133 0.0004859 0.0000302 0.0002397 0.0000475 0.0003424 0.0000121 0.0003296 -0.0000047 0.0003237 -0.0000364 0.0004039
-0.0018641 0.0016071 0.0010582 -0.0005943 0.0008369 -0.0000150 0.0004699 0.0001786 -0.0000386 0.0003579 0.0000168 0.0001609 0.0000385 0.0002505 0.0000012 0.0001155 -0.0000265 0.0000403 -0.0000761 0.0000777
-0.0006062 0.0002579 -0.0001511 -0.0001102 0.0004943 -0.0002224 0.0019634 -0.0014244 -0.0000364 0.0000520 0.0000122 -0.0000008 0.0000369 0.0000987 0.0000018 -0.0000185 -0.0000466 -0.0000599 -0.0000751 -0.0000365
-0.0000697 0.0002584 -0.0031862 0.0023080 -0.0034458 0.0025527 0.0021148 -0.0012542 -0.0000259 0.0000665 0.0000177 0.0000049 0.0000426 0.0001091 0.0000091 0.0000316 -0.0000191 -0.0000042 -0.0000494 0.0000399
0.0008409 -0.0006356 -0.0031343 0.0018663 -0.0039822 0.0029147 0.0013398 -0.0005387 -0.0000257 0.0001889 0.0000260 0.0000861 0.0000414 0.0002111 0.0000001 0.0001698 0.0000139 0.0001044 -0.0000454 0.0001913
0.0005297 -0.0007623 -0.0024764 0.0009795 -0.0025318 0.0019118 0.0009245 -0.0004281 -0.0000286 0.0003618 0.0000308 0.0002043 0.0000371 0.0003609 -0.0000129 0.0003529 -0.0000037 0.0002883 -0.0000652 0.0004131
0.0001239 -0.0003589 -0.0015003 0.0007748 -0.0023893 0.0023399 -0.0009402 0.0010163 -0.0000433 0.0003817 0.0000268 0.0002161 0.0000132 0.0003844 -0.0000189 0.0002686 -0.0000220 0.0001572 -0.0000871 0.0002597
0.0013969 -0.0012508 0.0007010 -0.0007867 0.0012133 -0.0005047 -0.0014934 0.0010963 -0.0000544 0.0001742 0.0000296 0.0000800 0.0000016 0.0002463 -0.0000113 0.0000088 -0.0000298 -0.0001489 -0.0000817 -0.0000672
0.0006268 -0.0011966 0.0006096 -0.0010215 0.0012363 -0.0011800 -0.0013657 0.0008920 -0.0000277 0.0001200 0.0000190 -0.0000737 0.0000402 0.0002585 0.0000781 0.0002126 -0.0000583 -0.0002412 0.0000010 0.0000459
-0.0008008 -0.0001882 0.0002119 0.0000588 0.0008178 -0.0007555 -0.0014513 0.0012333 -0.0000066 0.0002858 -0.0000495 -0.0002679 0.0000872 0.0004814 0.0001916 0.0007454 -0.0000226 -0.0000552 0.0000566 0.0002693
0.0000642 0.0014132 0.0026992 -0.0010494 0.0033137 -0.0022835 -0.0003344 0.0004772 0.0000003 0.0005035 -0.0001036 -0.0003279 0.0001044 0.0006512 0.0002266 0.0011229 0.0000572 0.0003733 0.0000361 0.0004350
0.0010759 0.0029841 0.0010665 0.0009631 0.0012404 -0.0003714 0.0002729 0.0001560 0.0000065 0.0009142 -0.0001109 -0.0001808 0.0001226 0.0008586 0.0002416 0.0014562 0.0000762 0.0007094 0.0000125 0.0007031
0.0021442 0.0035631 -0.0013319 0.0033234 -0.0006848 0.0018348 0.0006057 0.0001932 0.0000464 0.0014878 -0.0000832 0.0000290 0.0001512 0.0010732 0.0002020 0.0012674 0.0000148 0.0004448 -0.0000129 0.0006051
0.0021588 0.0020897 -0.0007375 0.0018261 0.0006929 0.0008520 0.0011771 -0.0003322 0.0000780 0.0015733 -0.0000439 0.0000743 0.0001546 0.0009469 0.0001364 0.0006045 -0.0000122 -0.0000532 -0.0000347 0.0001722
0.0013136 0.0003911 -0.0008956 0.0011513 -0.0011212 0.0013535 0.0005169 -0.0002461 0.0000501 0.0012225 -0.0000391 -0.0000570 0.0001298 0.0006568 0.0001078 0.0002569 0.0000245 -0.0000052 -0.0000367 0.0000528
0.0015430 0.0005711 0.0003999 0.0007087 -0.0005318 0.0005281 -0.0000626 0.0001918 0.0000188 0.0010103 -0.0000253 -0.0000557 0.0000891 0.0005217 0.0000595 0.0001479 0.0000539 0.0001580 -0.0000190 0.0001924
0.0000051 0.0019066 0.0016936 0.0002821 0.0019145 -0.0012553 -0.0006754 0.0006815 -0.0000354 0.0008433 0.0000005 0.0000700 0.0000534 0.0005269 0.0000161 0.0001777 0.0000798 0.0002929 -0.0000012 0.0003523
-0.0015443 0.0022995 0.0014459 -0.0000674 0.0021714 -0.0014816 -0.0013222 0.0009631 -0.0000951 0.0007588 0.0000306 0.0002863 0.0000257 0.0006081 -0.0000188 0.0003019 0.0000522 0.0004547 -0.0000125 0.0005033
-0.0007696 0.0006239 0.0014206 -0.0009950 0.0023693 -0.0014144 -0.0003676 0.0004451 -0.0001402 0.0007176 0.0000500 0.0004507 0.0000014 0.0006224 -0.0000557 0.0002114 -0.0000128 0.0003534 -0.0000759 0.0003731
-0.0012592 0.0003091 -0.0011456 0.0005992 -0.0001195 0.0004710 0.0001982 0.0000274 -0.0001706 0.0004411 0.0000582 0.0003991 -0.0000070 0.0004467 -0.0000680 -0.0000865 -0.0000442 0.0000851 -0.0001087 0.0000482
-0.0014959 -0.0000978 -0.0028413 0.0014141 -0.0023069 0.0014736 0.0002928 -0.0003067 -0.0001754 0.0001756 0.0000619 0.0003037 -0.0000001 0.0003069 -0.0000634 -0.0001750 -0.0000523 0.0000750 -0.0000906 0.0000367
0.0005656 -0.0018500 -0.0006822 -0.0002743 -0.0010633 0.0005249 0.0010475 -0.0006494 -0.0001676 0.0002143 0.0000573 0.0003183 0.0000007 0.0003469 -0.0000654 -0.0000610 -0.0000404 0.0002086 -0.0000882 0.0002416
0.0015822 -0.0022542 -0.0022761 0.0013370 -0.0033598 0.0023819 0.0002217 0.0002699 -0.0001665 0.0003945 0.0000449 0.0003953 -0.0000008 0.0004770 -0.0000711 0.0001449 -0.0000355 0.0003973 -0.0000957 0.0004913
0.0014346 -0.0018935 -0.0033222 0.0018511 -0.0023498 0.0017980 -0.0009817 0.0012005 -0.0001815 0.0006253 0.0000234 0.0005103 -0.0000252 0.0006545 -0.0000872 0.0003702 -0.0000395 0.0005805 -0.0001278 0.0006907
0.0018760 -0.0024623 -0.0001559 -0.0009569 0.0016724 -0.0010628 -0.0004027 0.0006781 -0.0002058 0.0005392 0.0000005 0.0004469 -0.0000584 0.0005875 -0.0001055 0.0002012 -0.0000634 0.0003755 -0.0001868 0.0004488
0.0005171 -0.0013690 0.0018845 -0.0020896 0.0034673 -0.0023704 -0.0009802 0.0009499 -0.0002142 0.0002258 -0.0000036 0.0002384 -0.0000550 0.0003623 -0.0000868 -0.0001488 -0.0000637 0.0000267 -0.0002039 0.0000589
-0.0002296 -0.0010031 0.0025730 -0.0023293 0.0047316 -0.0032438 -0.0011990 0.0008067 -0.0002017 0.0001162 0.0000083 0.0001623 -0.0000454 0.0003028 -0.0000651 -0.0001794 -0.0000304 -0.0000033 -0.0001680 0.0000617
-0.0021904 0.0005710 0.0027492 -0.0025892 0.0042470 -0.0028786 0.0001946 -0.0001391 -0.0001887 0.0001734 0.0000166 0.0002018 -0.0000437 0.0003401 -0.0000666 -0.0000653 -0.0000490 0.0001612 -0.0001193 0.0002359
-0.0040005 0.0023321 0.0000850 -0.0007626 0.0015215 -0.0007281 0.0008872 -0.0003660 -0.0001918 0.0003260 0.0000144 0.0002950 -0.0000465 0.0004496 -0.0000735 0.0001328 -0.0000594 0.0004120 -0.0001091 0.0004901
-0.0020020 0.0006938 -0.0007316 -0.0002499 0.0004110 -0.0000235 0.0011838 -0.0005056 -0.0002094 0.0005372 0.0000018 0.0004193 -0.0000656 0.0006056 -0.0000981 0.0003643 -0.0000523 0.0006524 -0.0001400 0.0007620
-0.0004398 -0.0003627 -0.0033136 0.0022536 -0.0043362 0.0033041 0.0013497 -0.0005718 -0.0002425 0.0005142 -0.0000153 0.0004094 -0.0000928 0.0005630 -0.0001148 0.0002295 -0.0000543 0.0004930 -0.0001945 0.0005823
0.0007650 -0.0010692 -0.0055861 0.0039217 -0.0088612 0.0061065 0.0005928 -0.0002241 -0.0002589 0.0002176 -0.0000210 0.0002373 -0.0000905 0.0003645 -0.0000966 -0.0000958 -0.0000791 0.0001559 -0.0002225 0.0001845
0.0026381 -0.0026440 -0.0029316 0.0015703 -0.0049939 0.0032493 0.0003849 -0.0002216 -0.0002327 0.0000675 -0.0000062 0.0001467 -0.0000621 0.0002923 -0.0000649 -0.0001299 -0.0001008 0.0001790 -0.0001943 0.0001524
0.0019482 -0.0019534 -0.0009053 0.0005768 -0.0016383 0.0013756 -0.0011438 0.0010918 -0.0002061 0.0001323 0.0000063 0.0001836 -0.0000510 0.0003114 -0.0000550 -0.0000194 -0.0000964 0.0003521 -0.0001772 0.0003123
0.0003837 -0.0006233 0.0012672 -0.0009176 0.0010315 -0.0004542 -0.0026535 0.0023269 -0.0002109 0.0002816 0.0000070 0.0002704 -0.0000647 0.0004072 -0.0000746 0.0001682 -0.0000854 0.0005695 -0.0001785 0.0005467
0.0000163 -0.0006546 0.0038009 -0.0029785 0.0045401 -0.0029351 -0.0017487 0.0017036 -0.0002329 0.0004891 -0.0000029 0.0003932 -0.0000894 0.0005541 -0.0001071 0.0003972 -0.0001012 0.0008138 -0.0001939 0.0007812
-0.0019269 0.0008266 0.0034237 -0.0023265 0.0046032 -0.0027736 -0.0007310 0.0011188 -0.0002631 0.0006962 -0.0000228 0.0004997 -0.0001109 0.0006319 -0.0001317 0.0004322 -0.0001219 0.0007722 -0.0002396 0.0007365
-0.0018117 0.0009256 0.0011932 -0.0007544 0.0017406 -0.0009167 0.0002176 0.0004203 -0.0002920 0.0005416 -0.0000410 0.0004103 -0.0001261 0.0005081 -0.0001448 0.0002313 -0.0001309 0.0005177 -0.0002734 0.0004633
-0.0009117 0.0002637 0.0001135 -0.0006494 -0.0007970 0.0001805 0.0015631 -0.0010087 -0.0002663 0.0003260 -0.0000374 0.0002885 -0.0001015 0.0004428 -0.0001326 0.0001913 -0.0001476 0.0005010 -0.0002700 0.0003743
-0.0007944 -0.0007802 -0.0028867 0.0010694 -0.0040959 0.0028714 0.0015423 -0.0008700 -0.0002226 0.0004064 -0.0000200 0.0003683 -0.0000650 0.0005463 -0.0001098 0.0003304 -0.0001549 0.0005906 -0.0002602 0.0004189
0.0009026 -0.0019786 -0.0032918 0.0014097 -0.0023081 0.0017583 0.0008389 -0.0001208 -0.0002174 0.0004686 0.0000030 0.0004929 -0.0000290 0.0007186 -0.0001135 0.0004577 -0.0001257 0.0007195 -0.0002343 0.0006883
0.0011468 0.0002285 -0.0019468 0.0015703 -0.0014590 0.0011523 0.0003902 0.0005574 -0.0001607 0.0007447 0.0000196 0.0005962 0.0000553 0.0010736 -0.0001058 0.0005714 -0.0001450 0.0007124 -0.0002348 0.0008309
0.0010158 0.0025069 -0.0004827 0.0015197 -0.0001267 0.0010272 -0.0006609 0.0017424 -0.0000890 0.0007936 0.0000153 0.0004690 0.0000919 0.0011321 -0.0001007 0.0004018 -0.0002096 0.0004033 -0.0002586 0.0004774
0.0020328 0.0011880 0.0021401 -0.0014467 0.0031707 -0.0015192 -0.0004938 0.0009860 -0.0000715 0.0004391 0.0000063 0.0001386 0.0000440 0.0007650 -0.0001136 0.0001026 -0.0002145 0.0001736 -0.0002470 0.0001762
0.0002653 0.0012048 0.0021256 -0.0019482 0.0014008 -0.0006881 -0.0008575 0.0007956 -0.0000893 0.0001932 0.0000133 0.0000072 0.0000049 0.0004905 -0.0000986 0.0000486 -0.0001893 0.0001489 -0.0002080 0.0001762
-0.0013327 0.0023398 0.0010840 -0.0006709 0.0008177 -0.0000559 -0.0009609 0.0012785 -0.0001342 0.0000813 0.0000357 0.0000926 0.0000018 0.0004362 -0.0000951 0.0001679 -0.0001896 0.0002865 -0.0001563 0.0003808
-0.0000325 0.0005560 0.0018119 -0.0020128 0.0031335 -0.0014913 0.0002588 0.0004825 -0.0001559 0.0001382 0.0000483 0.0002098 0.0000090 0.0005100 -0.0001009 0.0003296 -0.0002028 0.0004442 -0.0001299 0.0005596
0.0005118 0.0003910 -0.0006430 -0.0009837 -0.0001186 0.0005838 0.0001266 0.0004439 -0.0001628 -0.0000003 0.0000488 0.0001309 0.0000249 0.0003684 -0.0000938 0.0001463 -0.0002158 0.0002357 -0.0001602 0.0003032
0.0018041 0.0002778 -0.0032186 0.0012822 -0.0038369 0.0029758 -0.0000429 0.0004571 -0.0001448 -0.0002816 0.0000584 -0.0000522 0.0000525 0.0001462 -0.0000614 -0.0001092 -0.0002231 -0.0000077 -0.0001806 0.0000114
0.0029520 -0.0003176 -0.0010813 0.0002264 -0.0022215 0.0017746 0.0010117 -0.0004838 -0.0000878 -0.0002645 0.0000773 -0.0000693 0.0000838 0.0001628 -0.0000056 -0.0000424 -0.0001999 0.0000581 -0.0001305 0.0000995
0.0023898 0.0002535 0.0004660 -0.0010881 0.0003234 -0.0002042 0.0003136 -0.0000412 -0.0000308 0.0000134 0.0000561 -0.0000798 0.0001294 0.0003630 0.0001267 0.0005770 -0.0002074 0.0001312 -0.0000064 0.0005210
0.0021873 0.0004495 0.0014281 -0.0015385 0.0027282 -0.0015684 -0.0005053 0.0009373 0.0000146 0.0004257 -0.0000511 -0.0001947 0.0001321 0.0006869 0.0003133 0.0016398 -0.0001836 0.0003611 0.0000761 0.0009630
-0.0010534 0.0032416 0.0025263 -0.0021873 0.0035552 -0.0015013 -0.0002892 0.0011439 0.0000673 0.0007328 -0.0001041 -0.0001768 0.0001229 0.0007751 0.0003180 0.0017549 -0.0001592 0.0003537 0.0000103 0.0007012
-0.0039753 0.0037888 0.0017622 -0.0038445 0.0026887 -0.0005472 -0.0005562 0.0011838 0.0001489 0.0008084 -0.0000648 -0.0001279 0.0001439 0.0006481 0.0002394 0.0012934 -0.0001964 0.0000889 -0.0000526 0.0002115
-0.0032569 -0.0007057 0.0006912 -0.0058541 0.0030151 -0.0004004 0.0005699 0.0006494 0.0002331 0.0009339 -0.0000460 -0.0001125 0.0001755 0.0006791 0.0002417 0.0013550 -0.0001722 0.0000947 -0.0000504 0.0001877
-0.0036169 -0.0020531 -0.0048944 -0.0010549 -0.0014136 0.0033698 0.0014329 0.0005195 0.0002643 0.0011735 -0.0000240 0.0000635 0.0002189 0.0008684 0.0002446 0.0015400 -0.0001479 0.0002319 -0.0000341 0.0003822
-0.0019192 -0.0028398 -0.0109063 0.0029073 -0.0063749 0.0065571 0.0008713 0.0008862 0.0002363 0.0013437 -0.0000150 0.0002469 0.0002234 0.0010268 0.0002200 0.0017118 -0.0001822 0.0004916 -0.0000385 0.0006209
0.0017619 -0.0045729 -0.0063336 -0.0001916 -0.0043285 0.0046170 0.0009715 0.0007998 0.0001879 0.0012958 -0.0000242 0.0002446 0.0002123 0.0009857 0.0001936 0.0016042 -0.0001918 0.0004051 -0.0000888 0.0004474
0.0029378 -0.0039692 -0.0046403 0.0004449 -0.0028842 0.0039444 -0.0003318 0.0018856 0.0001863 0.0011213 -0.0000178 0.0000870 0.0002300 0.0008030 0.0002037 0.0013358 -0.0001992 0.0000706 -0.0000818 0.0000579
0.0022294 -0.0045819 -0.0038602 -0.0014539 0.0002282 0.0016422 -0.0017873 0.0027502 0.0002252 0.0011206 0.0000081 0.0000375 0.0002520 0.0007699 0.0002186 0.0013147 -0.0002046 0.0000017 -0.0000263 0.0000655
0.0015141 -0.0062042 0.0012855 -0.0071298 0.0046395 -0.0015262 -0.0014442 0.0024198 0.0002286 0.0012089 0.0000316 0.0001440 0.0002590 0.0008859 0.0002192 0.0014285 -0.0001796 0.0001368 0.0000017 0.0003038
-0.0019059 -0.0036991 0.0028838 -0.0072354 0.0049496 -0.0011517 -0.0013428 0.0026746 0.0002064 0.0013825 0.0000397 0.0002848 0.0002581 0.0010073 0.0002093 0.0016021 -0.0001774 0.0004198 0.0000099 0.0005621
-0.0031621 -0.0029977 0.0028126 -0.0068974 0.0041882 -0.0007897 -0.0005455 0.0020886 0.0001918 0.0013836 0.0000356 0.0002560 0.0002460 0.0009124 0.0001882 0.0014335 -0.0001985 0.0003366 -0.0000138 0.0003414
-0.0040138 -0.0020406 0.0028859 -0.0075898 0.0049693 -0.0018586 0.0017194 0.0000719 0.0001872 0.0011462 0.0000407 0.0000720 0.0002531 0.0006419 0.0001874 0.0010558 -0.0001820 0.0000246 -0.0000230 -0.0000488
-0.0050295 -0.0002487 -0.0024212 -0.0024813 0.0006637 0.0011200 0.0024783 -0.0004518 0.0002013 0.0011001 0.0000589 0.0000098 0.0002840 0.0005521 0.0002097 0.0009957 -0.0001585 0.0000112 0.0000145 -0.0000320
-0.0022992 -0.0032509 -0.0058389 -0.0011112 -0.0015594 0.0025766 0.0017426 0.0002354 0.0002482 0.0013297 0.0000723 0.0001068 0.0003242 0.0007149 0.0002254 0.0011608 -0.0001780 0.0001446 0.0000368 0.0002014
-0.0008494 -0.0064269 -0.0100370 -0.0000545 -0.0041665 0.0049603 0.0013062 0.0009146 0.0002818 0.0016558 0.0000864 0.0003090 0.0003452 0.0009379 0.0001925 0.0013190 -0.0001732 0.0003197 0.0000202 0.0004821
-0.0003916 -0.0085206 -0.0120041 0.0015142 -0.0058485 0.0067470 -0.0000492 0.0020729 0.0002544 0.0016723 0.0000936 0.0004159 0.0003101 0.0008725 0.0001425 0.0010828 -0.0001561 0.0002596 -0.0000384 0.0003434
0.0013203 -0.0101624 -0.0062317 -0.0026745 -0.0015479 0.0032228 -0.0005957 0.0019936 0.0002058 0.0013540 0.0000937 0.0003264 0.0002736 0.0005915 0.0001436 0.0007026 -0.0001431 0.0001343 -0.0000652 0.0000771
-0.0000518 -0.0069452 -0.0021330 -0.0042655 0.0003795 0.0016128 -0.0019028 0.0025185 0.0001494 0.0010871 0.0001052 0.0002855 0.0002552 0.0003974 0.0001522 0.0006123 -0.0001057 0.0001874 -0.0000441 0.0000467
-0.0026421 -0.0058087 -0.0006972 -0.0052974 0.0028543 0.0003900 -0.0027743 0.0032069 0.0001384 0.0011648 0.0001477 0.0004758 0.0002584 0.0004392 0.0001097 0.0006531 -0.0001139 0.0003349 -0.0000298 0.0002105
-0.0045621 -0.0073859 0.0014441 -0.0090102 0.0052099 -0.0011894 -0.0011961 0.0021595 0.0001437 0.0014100 0.0001952 0.0007969 0.0002720 0.0006380 0.0000560 0.0007558 -0.0001457 0.0005674 -0.0000299 0.0005171
-0.0058609 -0.0066737 -0.0013623 -0.0066975 0.0027746 0.0005955 0.0000304 0.0013818 0.0000923 0.0015714 0.0002011 0.0010158 0.0002608 0.0007108 0.0000224 0.0006972 -0.0001546 0.0006269 -0.0000959 0.0004550
-0.0037940 -0.0065097 -0.0048914 -0.0025517 -0.0007023 0.0029888 0.0006066 0.0009752 0.0000233 0.0013095 0.0001842 0.0009434 0.0002335 0.0005139 0.0000133 0.0004747 -0.0001317 0.0004744 -0.0001552 0.0002355
-0.0020438 -0.0054136 -0.0039078 -0.0022461 -0.0014335 0.0028937 0.0020310 -0.0003916 -0.0000117 0.0009855 0.0001118 0.0005534 0.0002144 0.0003093 0.0000981 0.0006403 -0.0001051 0.0005163 -0.0001110 0.0003845
-0.0006172 -0.0045787 -0.0055902 -0.0003700 -0.0026217 0.0037596 0.0014939 -0.0001094 -0.0000130 0.0010436 0.0000474 0.0003337 0.0002034 0.0003144 0.0001445 0.0008316 -0.0000928 0.0008135 -0.0000538 0.0007106
0.0004425 -0.0047979 -0.0045568 0.0001927 -0.0019856 0.0038179 -0.0002657 0.0012180 -0.0000420 0.0011356 0.0000539 0.0005027 0.0001637 0.0004110 0.0000734 0.0008343 -0.0000850 0.0011408 -0.0000731 0.0010230
-0.0014233 -0.0033644 -0.0029557 -0.0001749 -0.0010300 0.0032502 -0.0006032 0.0015211 -0.0000889 0.0013237 0.0000427 0.0007099 0.0001124 0.0005227 0.0000054 0.0009221 -0.0001150 0.0013517 -0.0001205 0.0011958
-0.0027961 -0.0018473 -0.0011249 -0.0008765 0.0001587 0.0025989 -0.0015708 0.0021989 -0.0001522 0.0011555 0.0000113 0.0006334 0.0000300 0.0003653 -0.0000598 0.0007072 -0.0001451 0.0012296 -0.0001731 0.0010459
-0.0018240 -0.0025056 0.0014165 -0.0024961 0.0025449 0.0006466 -0.0013563 0.0019319 -0.0002005 0.0008411 -0.0000082 0.0004805 -0.0000266 0.0001933 -0.0001036 0.0005379 -0.0001770 0.0011613 -0.0002023 0.0010041
-0.0025421 -0.0021362 0.0001727 -0.0007459 0.0014091 0.0011905 -0.0003082 0.0011179 -0.0002180 0.0008760 -0.0000167 0.0005145 -0.0000255 0.0002626 -0.0001164 0.0006547 -0.0001667 0.0012940 -0.0001838 0.0012816
-0.0031730 -0.0019582 -0.0019151 0.0009801 -0.0007277 0.0029896 0.0003245 0.0008205 -0.0002476 0.0010257 -0.0000355 0.0006184 -0.0000315 0.0004193 -0.0001517 0.0008532 -0.0001826 0.0014537 -0.0001774 0.0016296
-0.0009890 -0.0031636 -0.0007314 0.0000321 0.0000701 0.0026132 0.0007314 0.0006864 -0.0003117 0.0010536 -0.0000589 0.0006820 -0.0000724 0.0004034 -0.0002251 0.0007639 -0.0002424 0.0014193 -0.0002593 0.0015502
0.0004642 -0.0035101 -0.0031442 0.0020537 -0.0032239 0.0043609 0.0001024 0.0008210 -0.0003781 0.0006961 -0.0000593 0.0006066 -0.0001216 0.0001128 -0.0003101 0.0003448 -0.0002624 0.0011704 -0.0003485 0.0012110
0.0012938 -0.0034400 -0.0057770 0.0036883 -0.0057743 0.0055744 -0.0006479 0.0009204 -0.0004018 0.0003893 -0.0000317 0.0006218 -0.0001404 0.0000254 -0.0003548 0.0001897 -0.0002589 0.0011048 -0.0003819 0.0012281
0.0026191 -0.0034766 -0.0010881 0.0007394 -0.0009530 0.0020655 -0.0004275 0.0006128 -0.0004072 0.0003917 -0.0000094 0.0007482 -0.0001505 0.0001633 -0.0003657 0.0002816 -0.0002821 0.0012126 -0.0003970 0.0014527
0.0017967 -0.0028379 0.0019828 -0.0014678 0.0012688 0.0007128 -0.0013084 0.0011843 -0.0004389 0.0004713 -0.0000161 0.0008512 -0.0001597 0.0003321 -0.0003786 0.0004243 -0.0003392 0.0013593 -0.0003953 0.0017030
0.0015392 -0.0024108 0.0031660 -0.0021810 0.0028769 0.0001679 -0.0016062 0.0013613 -0.0004907 0.0002638 -0.0000363 0.0007545 -0.0002039 0.0002197 -0.0004174 0.0001641 -0.0003736 0.0010908 -0.0004428 0.0014842
-0.0027643 0.0016245 0.0042330 -0.0024705 0.0050678 -0.0014915 -0.0009058 0.0004548 -0.0004910 -0.0000994 -0.0000900 0.0003523 -0.0002289 -0.0000556 -0.0003589 0.0000531 -0.0003480 0.0007322 -0.0004328 0.0012130
-0.0072645 0.0042466 0.0023063 -0.0017907 0.0025597 0.0000628 -0.0005081 -0.0000671 -0.0004299 -0.0000322 -0.0001457 0.0000976 -0.0002093 -0.0000314 -0.0002662 0.0003578 -0.0002997 0.0008383 -0.0003623 0.0013307
-0.0047957 0.0008142 0.0012277 -0.0022266 0.0015670 0.0008672 0.0007299 -0.0003202 -0.0003581 0.0003041 -0.0001454 0.0002270 -0.0001784 0.0002060 -0.0002605 0.0005792 -0.0002905 0.0011021 -0.0003489 0.0015433
-0.0033714 -0.0002822 -0.0048684 0.0028208 -0.0027564 0.0044642 0.0014485 -0.0004510 -0.0003413 0.0005911 -0.0001406 0.0004247 -0.0001654 0.0004071 -0.0002682 0.0007082 -0.0002785 0.0011731 -0.0003897 0.0015970
-0.0008271 -0.0021173 -0.0110301 0.0070399 -0.0075908 0.0072719 0.0005337 -0.0001761 -0.0003645 0.0003820 -0.0001546 0.0003357 -0.0002014 0.0002377 -0.0003009 0.0004414 -0.0002796 0.0009488 -0.0004415 0.0013119
0.0035636 -0.0061467 -0.0076496 0.0040502 -0.0021436 0.0024594 0.0004913 -0.0006055 -0.0003719 -0.0000093 -0.0001505 0.0001687 -0.0002171 0.0000198 -0.0003038 0.0001962 -0.0002719 0.0008281 -0.0004444 0.0011903
0.0038508 -0.0056170 -0.0059526 0.0034512 -0.0024372 0.0031826 -0.0007431 0.0004004 -0.0003617 -0.0000416 -0.0001263 0.0002321 -0.0001865 0.0000972 -0.0002741 0.0002508 -0.0002310 0.0009045 -0.0004225 0.0013469
0.0028458 -0.0048714 -0.0020260 0.0003056 -0.0022829 0.0031692 -0.0027298 0.0018385 -0.0003689 0.0000314 -0.0000920 0.0004416 -0.0001874 0.0002539 -0.0002968 0.0003161 -0.0002428 0.0010991 -0.0004281 0.0015770
0.0028073 -0.0048565 0.0041930 -0.0045765 0.0036729 -0.0014096 -0.0020997 0.0014699 -0.0004158 0.0001215 -0.0000659 0.0007164 -0.0002250 0.0003928 -0.0003644 0.0002512 -0.0002705 0.0011720 -0.0004923 0.0016043
-0.0012881 -0.0003198 0.0053117 -0.0044283 0.0056157 -0.0024167 -0.0019048 0.0013923 -0.0004624 -0.0001444 -0.0000637 0.0007057 -0.0002662 0.0002495 -0.0004159 -0.0000602 -0.0002799 0.0009216 -0.0005416 0.0013185
-0.0024229 0.0003921 0.0042614 -0.0035435 0.0051367 -0.0022930 -0.0012808 0.0003198 -0.0004758 -0.0005344 -0.0000590 0.0005452 -0.0002762 0.0000497 -0.0004306 -0.0002656 -0.0002836 0.0007886 -0.0005228 0.0012005
-0.0040401 0.0011850 0.0045012 -0.0038897 0.0044205 -0.0023569 0.0007215 -0.0012477 -0.0004719 -0.0005438 -0.0000524 0.0005650 -0.0002666 0.0001124 -0.0004254 -0.0001482 -0.0002745 0.0009080 -0.0004787 0.0013606
-0.0055856 0.0032413 0.0004520 -0.0003012 0.0002450 0.0008922 0.0016151 -0.0014423 -0.0004772 -0.0003720 -0.0000703 0.0006527 -0.0002854 0.0002568 -0.0004375 0.0001005 -0.0002860 0.0011458 -0.0004694 0.0016179
-0.0021108 0.0008619 -0.0014872 0.0006770 -0.0020351 0.0027091 0.0017303 -0.0013509 -0.0004924 -0.0001341 -0.0001064 0.0007655 -0.0003219 0.0004173 -0.0004806 0.0003837 -0.0003132 0.0014174 -0.0005237 0.0019393
0.0001793 -0.0006895 -0.0056400 0.0040095 -0.0085099 0.0075336 0.0016261 -0.0011553 -0.0005253 -0.0001102 -0.0001424 0.0007621 -0.0003697 0.0004006 -0.0005315 0.0002943 -0.0003574 0.0012940 -0.0005920 0.0017740
0.0014667 -0.0010588 -0.0085033 0.0063490 -0.0122908 0.0101038 0.0002560 -0.0002540 -0.0005532 -0.0003506 -0.0001638 0.0006225 -0.0004189 0.0002464 -0.0005578 0.0000371 -0.0003645 0.0009931 -0.0006212 0.0014304
0.0042256 -0.0031327 -0.0033451 0.0019221 -0.0051988 0.0045121 -0.0005801 -0.0000912 -0.0005579 -0.0004624 -0.0001632 0.0005722 -0.0004294 0.0002374 -0.0005635 0.0000740 -0.0003758 0.0010199 -0.0006264 0.0014755
0.0032992 -0.0023259 0.0000940 -0.0002988 -0.0013065 0.0018676 -0.0021776 0.0011509 -0.0005552 -0.0003513 -0.0001613 0.0006510 -0.0004259 0.0003803 -0.0005758 0.0002727 -0.0003977 0.0011315 -0.0006244 0.0016283
0.0012385 -0.0009574 0.0031409 -0.0023737 0.0015670 0.0003524 -0.0036257 0.0025422 -0.0005612 -0.0001409 -0.0001711 0.0007825 -0.0004582 0.0005960 -0.0006070 0.0005278 -0.0004239 0.0013018 -0.0006344 0.0018390
0.0010493 -0.0013602 0.0071116 -0.0057049 0.0054797 -0.0023287 -0.0021733 0.0014565 -0.0005874 0.0000082 -0.0001880 0.0008615 -0.0004922 0.0006887 -0.0006450 0.0004966 -0.0004547 0.0011798 -0.0006696 0.0016821
-0.0020545 0.0013262 0.0053663 -0.0040862 0.0050811 -0.0019261 -0.0009316 0.0005724 -0.0006052 -0.0001885 -0.0002364 0.0005821 -0.0005070 0.0005357 -0.0006256 0.0004322 -0.0004476 0.0008357 -0.0006530 0.0013530
-0.0019830 0.0012008 0.0016876 -0.0018200 0.0034504 -0.0010671 -0.0000613 -0.0001107 -0.0005802 -0.0003660 -0.0002548 0.0003460 -0.0005074 0.0004802 -0.0006088 0.0005377 -0.0004233 0.0008596 -0.0006048 0.0013953
-0.0011861 0.0003319 0.0010340 -0.0017959 0.0018723 -0.0004434 0.0016810 -0.0015050 -0.0005522 -0.0002617 -0.0002233 0.0004613 -0.0005077 0.0006127 -0.0006415 0.0006249 -0.0003971 0.0010832 -0.0005870 0.0015839
-0.0008398 0.0007910 -0.0033612 0.0025590 -0.0050012 0.0048376 0.0017244 -0.0012127 -0.0005565 -0.0000590 -0.0002185 0.0006092 -0.0005277 0.0007693 -0.0006726 0.0008437 -0.0003988 0.0013252 -0.0005817 0.0017634
0.0012506 -0.0006903 -0.0035263 0.0025285 -0.0056232 0.0055900 0.0008816 -0.0003675 -0.0005666 0.0002259 -0.0002343 0.0007621 -0.0005604 0.0009094 -0.0007101 0.0009260 -0.0004189 0.0013415 -0.0006261 0.0016706
0.0013410 -0.0007598 -0.0033113 0.0017016 -0.0054250 0.0051111 0.0005394 -0.0003246 -0.0005698 0.0000823 -0.0002377 0.0007108 -0.0005980 0.0008012 -0.0007498 0.0006999 -0.0004118 0.0010630 -0.0006755 0.0013344
0.0009422 0.0000954 -0.0035255 0.0031408 -0.0045412 0.0046167 -0.0011128 0.0008102 -0.0005671 -0.0002355 -0.0002130 0.0006010 -0.0006278 0.0006675 -0.0007684 0.0005134 -0.0004007 0.0008870 -0.0006501 0.0011474
0.0029796 -0.0018472 0.0001527 0.0004979 -0.0004495 0.0016111 -0.0018094 0.0012111 -0.0005438 -0.0002377 -0.0001750 0.0006512 -0.0006162 0.0007580 -0.0007589 0.0005924 -0.0003890 0.0009245 -0.0006040 0.0012239
0.0012256 -0.0014287 0.0017066 -0.0014902 0.0009723 0.0004952 -0.0024138 0.0016309 -0.0005150 -0.0000809 -0.0001494 0.0007647 -0.0005879 0.0009413 -0.0007463 0.0008086 -0.0003942 0.0011172 -0.0005727 0.0014355
-0.0013570 0.0002222 0.0014504 -0.0008902 0.0022337 0.0003406 -0.0032816 0.0027614 -0.0005021 0.0000240 -0.0001432 0.0008018 -0.0005803 0.0009949 -0.0007524 0.0007724 -0.0004002 0.0010013 -0.0005706 0.0012399
-0.0010932 -0.0001198 0.0043376 -0.0033335 0.0045651 -0.0017067 -0.0013905 0.0011376 -0.0004853 -0.0001511 -0.0001313 0.0006780 -0.0005733 0.0008593 -0.0007615 0.0005725 -0.0003756 0.0007477 -0.0005450 0.0009079
-0.0021753 0.0002959 0.0028035 -0.0030492 0.0020964 -0.0007637 0.0003930 -0.0003322 -0.0004425 -0.0002167 -0.0001017 0.0006163 -0.0005335 0.0008495 -0.0007397 0.0005911 -0.0003490 0.0008541 -0.0004708 0.0009615
-0.0009346 -0.0004686 -0.0012674 -0.0007591 -0.0020272 0.0027164 0.0009283 -0.0003047 -0.0003965 -0.0000901 -0.0000741 0.0006557 -0.0004927 0.0009793 -0.0007230 0.0007500 -0.0003306 0.0009889 -0.0004372 0.0011362
0.0003967 -0.0022684 -0.0013571 -0.0015830 -0.0021283 0.0031270 0.0017002 -0.0008800 -0.0003735 0.0000999 -0.0000632 0.0007472 -0.0004657 0.0011832 -0.0007136 0.0010170 -0.0003287 0.0010455 -0.0004102 0.0013449
0.0006338 -0.0043127 -0.0043268 -0.0002499 -0.0037469 0.0041661 0.0006391 -0.0001140 -0.0003610 0.0001047 -0.0000657 0.0007329 -0.0004570 0.0012057 -0.0007020 0.0009340 -0.0003568 0.0008910 -0.0003983 0.0011735
0.0022148 -0.0052307 -0.0034365 -0.0009015 -0.0028641 0.0034984 -0.0002023 0.0005453 -0.0003578 -0.0001156 -0.0000600 0.0005926 -0.0004711 0.0010268 -0.0006913 0.0006688 -0.0003537 0.0007120 -0.0004065 0.0009076
0.0006826 -0.0019720 0.0000438 -0.0028692 0.0002681 0.0011695 -0.0002071 0.0003297 -0.0003614 -0.0002217 -0.0000383 0.0005544 -0.0004670 0.0009741 -0.0006716 0.0006813 -0.0003227 0.0007625 -0.0003783 0.0009435
-0.0010837 0.0002458 0.0015816 -0.0027515 0.0019117 0.0005049 -0.0017862 0.0014870 -0.0003592 -0.0001395 -0.0000251 0.0006212 -0.0004745 0.0010806 -0.0006642 0.0008220 -0.0003360 0.0009168 -0.0003601 0.0010735
0.0004520 -0.0007901 0.0033705 -0.0028613 0.0022285 0.0004509 -0.0018229 0.0017072 -0.0003627 0.0000942 -0.0000290 0.0007563 -0.0004950 0.0012626 -0.0006794 0.0010387 -0.0003490 0.0011171 -0.0003841 0.0012700
-0.0009200 0.0008060 0.0022000 -0.0014175 0.0004185 0.0013587 -0.0013319 0.0012167 -0.0003872 0.0000334 -0.0000394 0.0007178 -0.0005178 0.0011744 -0.0007045 0.0009059 -0.0003430 0.0010169 -0.0004124 0.0010786
-0.0021445 0.0020256 0.0007046 0.0002440 -0.0004997 0.0019380 -0.0012221 0.0012250 -0.0004074 -0.0001766 -0.0000422 0.0005797 -0.0005250 0.0009976 -0.0007210 0.0007225 -0.0003340 0.0008536 -0.0003972 0.0008448
-0.0001035 0.0001982 0.0018931 -0.0008308 0.0006000 0.0011151 -0.0000137 0.0003197 -0.0003917 -0.0001021 -0.0000375 0.0005965 -0.0004991 0.0010642 -0.0007081 0.0008695 -0.0003392 0.0009349 -0.0003662 0.0009968
0.0011972 -0.0012519 -0.0011095 0.0003975 -0.0019465 0.0025942 0.0006580 -0.0001915 -0.0003879 0.0001184 -0.0000521 0.0006624 -0.0004796 0.0011921 -0.0006920 0.0011036 -0.0003530 0.0011482 -0.0003759 0.0012602
0.0019718 -0.0011263 -0.0028847 0.0020178 -0.0045691 0.0046319 0.0004504 0.0004456 -0.0004127 0.0003667 -0.0000805 0.0007730 -0.0005193 0.0013120 -0.0007227 0.0012315 -0.0003744 0.0013066 -0.0004437 0.0013395
0.0027983 -0.0008376 -0.0015114 0.0012416 -0.0034058 0.0038863 0.0007924 0.0000546 -0.0004172 0.0002773 -0.0000976 0.0007036 -0.0005738 0.0011760 -0.0007702 0.0010336 -0.0003752 0.0011391 -0.0005018 0.0010897
0.0023150 -0.0010583 -0.0011437 0.0001154 -0.0023331 0.0027793 -0.0000007 -0.0000118 -0.0004072 0.0000917 -0.0000933 0.0005859 -0.0005715 0.0010203 -0.0007710 0.0009160 -0.0003611 0.0010456 -0.0005015 0.0009818
0.0021307 -0.0014475 0.0008756 -0.0005328 0.0001289 0.0014634 -0.0015378 0.0012269 -0.0003932 0.0002025 -0.0000786 0.0006626 -0.0005679 0.0011308 -0.0007569 0.0010745 -0.0003614 0.0011969 -0.0004879 0.0011669
-0.0008797 0.0013539 0.0022795 -0.0008451 0.0015443 0.0009315 -0.0017497 0.0017305 -0.0003886 0.0004115 -0.0000772 0.0007760 -0.0005846 0.0012580 -0.0007816 0.0012768 -0.0003668 0.0014011 -0.0005017 0.0014135
-0.0030527 0.0024528 0.0023804 -0.0011766 0.0017560 0.0008427 -0.0020524 0.0020100 -0.0004116 0.0006814 -0.0000922 0.0009224 -0.0006250 0.0013719 -0.0008208 0.0013435 -0.0004315 0.0014609 -0.0005517 0.0014114
-0.0010303 0.0004651 0.0037376 -0.0021954 0.0034040 -0.0003212 -0.0013216 0.0014415 -0.0004317 0.0005729 -0.0001087 0.0008631 -0.0006669 0.0012864 -0.0008575 0.0011828 -0.0004968 0.0012819 -0.0005964 0.0011750
-0.0020352 0.0013627 0.0012525 0.0001582 0.0005307 0.0017895 -0.0003413 0.0006362 -0.0004255 0.0003477 -0.0001067 0.0007406 -0.0006603 0.0011793 -0.0008690 0.0011268 -0.0004588 0.0011664 -0.0005808 0.0011281
-0.0025673 0.0013460 -0.0020476 0.0025528 -0.0026665 0.0040472 0.0000170 0.0004178 -0.0004167 0.0004447 -0.0001019 0.0008035 -0.0006496 0.0012603 -0.0008828 0.0012739 -0.0004669 0.0013123 -0.0005790 0.0012820
0.0000949 -0.0007177 0.0003515 -0.0000617 -0.0014685 0.0030820 0.0009445 0.0000031 -0.0004128 0.0006293 -0.0001081 0.0009292 -0.0006595 0.0014056 -0.0009077 0.0014827 -0.0004912 0.0015210 -0.0006206 0.0015303
0.0016206 -0.0018953 -0.0025543 0.0015720 -0.0033526 0.0045866 0.0003289 0.0006948 -0.0003160 0.0010890 -0.0001382 0.0009551 -0.0005385 0.0018870 -0.0007760 0.0019168 -0.0005001 0.0013981 -0.0006309 0.0015034
0.0024426 -0.0022955 -0.0049535 0.0034675 -0.0043354 0.0058159 -0.0005945 0.0015424 -0.0002128 0.0015444 -0.0001473 0.0009475 -0.0004282 0.0022502 -0.0006848 0.0021395 -0.0005217 0.0012179 -0.0006359 0.0014176
0.0027770 -0.0023262 -0.0011311 0.0003067 -0.0017631 0.0038673 0.0000148 0.0013258 -0.0002069 0.0016248 -0.0001351 0.0009721 -0.0004644 0.0021812 -0.0007466 0.0020480 -0.0005169 0.0012979 -0.0006389 0.0015661
0.0013931 -0.0017656 0.0007389 -0.0017391 -0.0002863 0.0023982 -0.0005772 0.0016070 -0.0002234 0.0016026 -0.0001563 0.0009569 -0.0005138 0.0021662 -0.0007794 0.0021130 -0.0005255 0.0015132 -0.0006278 0.0017711
0.0017548 -0.0021054 0.0018032 -0.0015559 0.0015930 0.0014670 -0.0013492 0.0021640 -0.0002673 0.0015695 -0.0001903 0.0009289 -0.0005802 0.0021353 -0.0008250 0.0020291 -0.0005418 0.0014593 -0.0006555 0.0017056
-0.0011544 0.0002585 0.0027606 -0.0021479 0.0025386 0.0010811 -0.0010899 0.0019095 -0.0003161 0.0011847 -0.0002020 0.0007873 -0.0006376 0.0018526 -0.0008819 0.0017074 -0.0005670 0.0011878 -0.0006805 0.0014052
-0.0042096 0.0017097 0.0022982 -0.0028095 0.0009349 0.0017950 -0.0009866 0.0014552 -0.0003411 0.0007214 -0.0001593 0.0007422 -0.0006592 0.0016059 -0.0009170 0.0014533 -0.0005654 0.0010927 -0.0006560 0.0012924
-0.0022845 -0.0000278 0.0027734 -0.0028251 0.0020723 0.0006167 -0.0003195 0.0010378 -0.0003540 0.0005511 -0.0001042 0.0008647 -0.0006571 0.0015939 -0.0009310 0.0014084 -0.0005382 0.0011207 -0.0006443 0.0013517
-0.0024723 0.0009243 -0.0007380 0.0009396 -0.0007849 0.0030004 0.0003702 0.0006096 -0.0003527 0.0005586 -0.0000782 0.0009702 -0.0006427 0.0015994 -0.0009165 0.0013405 -0.0005148 0.0010565 -0.0006580 0.0012302
-0.0016939 0.0001698 -0.0040444 0.0032544 -0.0051221 0.0056142 0.0002457 0.0004516 -0.0003296 0.0002963 -0.0000649 0.0008434 -0.0006328 0.0014015 -0.0008922 0.0010489 -0.0004911 0.0007648 -0.0006494 0.0008798
0.0016834 -0.0028206 -0.0023374 0.0011129 -0.0020141 0.0028283 0.0004720 0.0000466 -0.0002531 -0.0000615 -0.0000351 0.0006333 -0.0005840 0.0012124 -0.0008273 0.0009243 -0.0004467 0.0005588 -0.0005809 0.0007634
0.0025495 -0.0041778 -0.0042611 0.0017177 -0.0026401 0.0034543 -0.0003207 0.0007183 -0.0001722 -0.0001097 0.0000008 0.0005845 -0.0005032 0.0012065 -0.0007477 0.0009909 -0.0003875 0.0005814 -0.0004946 0.0008483
0.0011434 -0.0048663 -0.0049963 0.0015392 -0.0037811 0.0043815 -0.0008974 0.0012429 -0.0001142 -0.0000286 0.0000237 0.0006360 -0.0004711 0.0012811 -0.0006983 0.0010557 -0.0003367 0.0006567 -0.0004521 0.0009158
0.0012239 -0.0052326 -0.0016370 -0.0013436 0.0001173 0.0016456 0.0001509 0.0001589 -0.0000676 -0.0001827 0.0000350 0.0005507 -0.0004570 0.0011224 -0.0006628 0.0008379 -0.0003030 0.0004470 -0.0004425 0.0007261
0.0005621 -0.0046576 0.0000950 -0.0029877 0.0022343 -0.0003201 -0.0011122 0.0004071 -0.0000271 -0.0005403 0.0000428 0.0003129 -0.0004059 0.0008609 -0.0005903 0.0005710 -0.0002896 0.0001923 -0.0003850 0.0005383
0.0011088 -0.0050645 0.0004790 -0.0024077 0.0025883 -0.0007162 -0.0019526 0.0008892 0.0000253 -0.0006837 0.0000592 0.0002240 -0.0003634 0.0008160 -0.0005051 0.0005910 -0.0002161 0.0002529 -0.0003027 0.0006165
-0.0030276 -0.0006393 0.0025691 -0.0029811 0.0042840 -0.0015401 -0.0008204 0.0002649 0.0000804 -0.0006294 0.0000699 0.0002556 -0.0003268 0.0008255 -0.0004595 0.0006674 -0.0001421 0.0004587 -0.0002393 0.0008011
-0.0070362 0.0019388 0.0027552 -0.0035178 0.0036664 -0.0011679 -0.0005376 0.0001335 0.0001191 -0.0004380 0.0000684 0.0003228 -0.0002905 0.0008619 -0.0004272 0.0006697 -0.0001569 0.0005090 -0.0002022 0.0007721
-0.0039764 -0.0008282 0.0030552 -0.0037577 0.0030744 -0.0007338 0.0001056 -0.0003575 0.0001333 -0.0006048 0.0000622 0.0001936 -0.0002823 0.0006892 -0.0004112 0.0004552 -0.0001375 0.0002875 -0.0001883 0.0005326
-0.0040123 -0.0001037 -0.0010178 -0.0001732 -0.0003512 0.0017939 0.0003574 -0.0007059 0.0001648 -0.0009273 0.0000669 -0.0000065 -0.0002436 0.0004869 -0.0003597 0.0003559 -0.0000898 0.0001888 -0.0001359 0.0004886
-0.0027469 -0.0004748 -0.0057453 0.0035212 -0.0035957 0.0037280 0.0005377 -0.0007309 0.0001973 -0.0009853 0.0000611 -0.0000816 -0.0002136 0.0004271 -0.0002843 0.0005786 -0.0000645 0.0004047 -0.0000842 0.0006143
0.0012150 -0.0021838 -0.0024484 0.0013769 -0.0010782 0.0021310 0.0015585 -0.0010796 0.0003255 -0.0003107 0.0000584 0.0000072 -0.0001466 0.0006797 -0.0001927 0.0009833 -0.0000708 0.0004515 -0.0000344 0.0008943
0.0022052 -0.0027418 -0.0031233 0.0023817 -0.0022852 0.0037023 0.0004972 -0.0000388 0.0004269 0.0006946 0.0000555 0.0002235 -0.0000896 0.0009715 -0.0001703 0.0012037 -0.0000932 0.0004793 -0.0000236 0.0011672
0.0022852 -0.0032101 -0.0039629 0.0035173 -0.0037113 0.0049181 -0.0002553 0.0006588 0.0003629 0.0008578 0.0000553 0.0004194 -0.0001445 0.0009577 -0.0002697 0.0009517 -0.0001305 0.0005777 -0.0001044 0.0010957
0.0028967 -0.0042783 -0.0011449 0.0002905 -0.0010439 0.0024355 0.0005962 -0.0004605 0.0002476 -0.0000111 0.0000842 0.0003988 -0.0001968 0.0006806 -0.0003641 0.0003910 -0.0001538 0.0002815 -0.0001892 0.0007080
0.0013739 -0.0045973 0.0009700 -0.0027926 0.0011822 0.0000213 -0.0005202 -0.0005596 0.0001791 -0.0008993 0.0001169 0.0002405 -0.0001801 0.0003976 -0.0003731 0.0000602 -0.0001515 -0.0000264 -0.0001789 0.0004423
0.0006086 -0.0050940 0.0019685 -0.0035799 0.0027101 -0.0011552 -0.0010054 -0.0001270 0.0002003 -0.0010521 0.0001495 0.0002572 -0.0001369 0.0004814 -0.0003414 0.0001302 -0.0001634 -0.0000491 -0.0001370 0.0004718
-0.0037280 -0.0017371 0.0028034 -0.0045512 0.0031418 -0.0007574 -0.0003110 -0.0002411 0.0002346 -0.0009515 0.0001636 0.0003507 -0.0001186 0.0006341 -0.0003328 0.0002784 -0.0001759 0.0000584 -0.0001431 0.0005984
-0.0075079 0.0000364 0.0022927 -0.0046062 0.0022361 0.0003252 -0.0000159 -0.0004039 0.0002331 -0.0008035 0.0001542 0.0004628 -0.0001352 0.0007573 -0.0003544 0.0004571 -0.0001723 0.0002614 -0.0001519 0.0007726
-0.0050231 -0.0026643 0.0031485 -0.0046537 0.0037248 -0.0006414 0.0007547 -0.0007090 0.0002073 -0.0006097 0.0001403 0.0006016 -0.0001607 0.0009190 -0.0003766 0.0006409 -0.0001549 0.0004426 -0.0001691 0.0008667
-0.0045360 -0.0020305 -0.0007241 -0.0004933 0.0007459 0.0015928 0.0008529 -0.0007960 0.0001855 -0.0007342 0.0001317 0.0005243 -0.0001783 0.0007817 -0.0003862 0.0004358 -0.0001540 0.0002910 -0.0002124 0.0006590
-0.0041010 -0.0022642 -0.0045469 0.0022005 -0.0021608 0.0030966 0.0005090 -0.0008700 0.0001819 -0.0010769 0.0001366 0.0002984 -0.0001755 0.0004846 -0.0003784 0.0001215 -0.0001305 0.0000539 -0.0002105 0.0004454
-0.0006562 -0.0047676 -0.0008533 -0.0012252 0.0006754 0.0006238 0.0010212 -0.0011292 0.0001995 -0.0011154 0.0001510 0.0002464 -0.0001439 0.0004562 -0.0003436 0.0001482 -0.0000875 0.0000909 -0.0001788 0.0005571
0.0012764 -0.0057152 -0.0031493 0.0003048 -0.0020258 0.0025522 0.0009167 -0.0008261 0.0002048 -0.0009888 0.0001600 0.0003124 -0.0001120 0.0005223 -0.0003221 0.0002795 -0.0000685 0.0002441 -0.0001697 0.0007570
0.0020024 -0.0056083 -0.0066848 0.0031696 -0.0053528 0.0047509 0.0004466 -0.0002615 0.0001896 -0.0008100 0.0001576 0.0004117 -0.0001096 0.0006405 -0.0003346 0.0004656 -0.0000846 0.0004310 -0.0001819 0.0009818
0.0028924 -0.0057259 -0.0021550 0.0002286 -0.0018884 0.0025189 0.0005484 -0.0001623 0.0001774 -0.0005654 0.0001420 0.0005407 -0.0001362 0.0008220 -0.0003558 0.0006601 -0.0001109 0.0005831 -0.0002292 0.0011332
0.0015363 -0.0048883 0.0001152 -0.0022185 0.0004324 0.0008810 -0.0001596 0.0000612 0.0001625 -0.0006180 0.0001237 0.0004861 -0.0001710 0.0007355 -0.0003666 0.0004842 -0.0001097 0.0003943 -0.0002882 0.0009043
0.0013442 -0.0046834 0.0002070 -0.0023624 0.0001072 0.0011065 -0.0005455 0.0000600 0.0001563 -0.0008588 0.0001227 0.0003056 -0.0001876 0.0005298 -0.0003608 0.0002128 -0.0000864 0.0001820 -0.0002919 0.0006600
-0.0019099 -0.0017273 0.0016441 -0.0025823 0.0018265 0.0001776 -0.0001727 -0.0001724 0.0001681 -0.0008513 0.0001378 0.0002891 -0.0001631 0.0005449 -0.0003324 0.0002600 -0.0001031 0.0003074 -0.0002622 0.0007603
-0.0045491 -0.0004969 0.0014673 -0.0023679 0.0025735 -0.0003289 -0.0003730 0.0001494 0.0001592 -0.0006934 0.0001458 0.0003723 -0.0001526 0.0006385 -0.0003263 0.0003939 -0.0001018 0.0004716 -0.0002526 0.0009922
-0.0022673 -0.0025003 0.0021509 -0.0029100 0.0031483 -0.0007669 -0.0004130 0.0002821 0.0001290 -0.0004912 0.0001370 0.0004993 -0.0001639 0.0007563 -0.0003597 0.0005836 -0.0001074 0.0006557 -0.0002596 0.0012260
-0.0042916 -0.0007716 0.0001307 -0.0011845 0.0019242 0.0005100 -0.0004846 0.0004807 0.0000895 -0.0002526 0.0001208 0.0006636 -0.0002000 0.0009090 -0.0004110 0.0007717 -0.0001536 0.0008934 -0.0002992 0.0013996
-0.0051021 -0.0005174 -0.0021163 0.0005174 -0.0005263 0.0026210 0.0000607 0.0003458 0.0000457 -0.0003043 0.0000995 0.0006155 -0.0002351 0.0008317 -0.0004513 0.0006126 -0.0001901 0.0006211 -0.0003525 0.0011559
-0.0024065 -0.0032440 0.0007114 -0.0020297 0.0012712 0.0006707 0.0011616 -0.0007344 0.0000324 -0.0005249 0.0000926 0.0004365 -0.0002143 0.0006508 -0.0004343 0.0003723 -0.0001975 0.0002001 -0.0003813 0.0008396
-0.0006572 -0.0047535 -0.0006990 -0.0013194 0.0000734 0.0008952 0.0009260 -0.0006145 0.0000410 -0.0005010 0.0001061 0.0004270 -0.0001711 0.0006791 -0.0003951 0.0004443 -0.0001657 0.0003375 -0.0003605 0.0009316
0.0005532 -0.0045778 -0.0035896 0.0016284 -0.0024844 0.0029721 0.0008359 -0.0000560 0.0000277 -0.0003403 0.0001148 0.0005292 -0.0001655 0.0008239 -0.0003904 0.0006357 -0.0001446 0.0005946 -0.0003707 0.0011474
0.0010916 -0.0040582 -0.0039444 0.0020547 -0.0024061 0.0031821 0.0012705 -0.0001097 -0.0000034 -0.0001057 0.0001119 0.0006695 -0.0001761 0.0009964 -0.0004022 0.0008591 -0.0001566 0.0007526 -0.0004144 0.0013906
0.0005710 -0.0035982 -0.0046163 0.0023208 -0.0030418 0.0040140 -0.0000444 0.0007381 -0.0000485 0.0001276 0.0000931 0.0008204 -0.0002022 0.0011536 -0.0004262 0.0010568 -0.0002031 0.0009766 -0.0004475 0.0015612
0.0014541 -0.0032725 -0.0033414 0.0024589 -0.0015661 0.0032442 -0.0008311 0.0009977 -0.0001062 0.0000561 0.0000675 0.0007636 -0.0002659 0.0010434 -0.0004683 0.0008927 -0.0002045 0.0008822 -0.0005192 0.0013452
-0.0002333 -0.0006686 -0.0011848 0.0015530 -0.0002663 0.0019238 -0.0001584 0.0001937 -0.0001483 -0.0001943 0.0000582 0.0005748 -0.0003051 0.0008097 -0.0004907 0.0006226 -0.0002138 0.0006121 -0.0005682 0.0010669
-0.0018788 0.0008717 0.0002019 0.0007332 -0.0005482 0.0019318 -0.0008971 0.0007081 -0.0001848 -0.0001912 0.0000601 0.0005605 -0.0003255 0.0008209 -0.0005018 0.0006652 -0.0002288 0.0006858 -0.0005555 0.0011492
0.0000463 -0.0004044 0.0027813 -0.0009723 0.0015483 0.0006265 -0.0016402 0.0014224 -0.0002306 -0.0000069 0.0000502 0.0006441 -0.0003479 0.0009527 -0.0005296 0.0008555 -0.0002576 0.0008411 -0.0005434 0.0014276
-0.0014654 0.0005628 0.0025099 -0.0007342 0.0010232 0.0009733 -0.0014381 0.0013630 -0.0002798 0.0002466 0.0000243 0.0007820 -0.0003671 0.0011050 -0.0005819 0.0011007 -0.0003055 0.0010598 -0.0005820 0.0016874
-0.0033597 0.0019677 0.0010174 0.0008759 0.0000060 0.0023750 -0.0006354 0.0012868 -0.0003177 0.0006070 -0.0000123 0.0009733 -0.0004167 0.0012580 -0.0006659 0.0012403 -0.0002990 0.0012589 -0.0006551 0.0017279
-0.0023725 0.0005291 0.0035419 -0.0021469 0.0042499 -0.0005052 0.0002543 0.0007219 -0.0003353 0.0006688 -0.0000429 0.0009384 -0.0004660 0.0011842 -0.0007371 0.0011023 -0.0003170 0.0011584 -0.0007160 0.0015412
-0.0025453 -0.0008706 0.0008135 -0.0022133 0.0028736 -0.0001810 0.0002852 0.0003401 -0.0003722 0.0005078 -0.0000564 0.0007880 -0.0004732 0.0010128 -0.0007705 0.0009387 -0.0003541 0.0010044 -0.0007476 0.0014013
-0.0015110 -0.0018626 -0.0022336 0.0000562 -0.0004294 0.0022330 0.0001194 0.0006847 -0.0004077 0.0005866 -0.0000638 0.0007930 -0.0004774 0.0010584 -0.0007966 0.0010348 -0.0004118 0.0010297 -0.0007620 0.0015099
0.0002732 -0.0034618 -0.0025861 -0.0000833 -0.0017032 0.0032874 0.0011732 0.0000842 -0.0004153 0.0008096 -0.0000726 0.0008842 -0.0004869 0.0012289 -0.0008249 0.0012385 -0.0004704 0.0010954 -0.0007817 0.0016882
0.0009991 -0.0048016 -0.0075077 0.0029014 -0.0045679 0.0054046 0.0011349 0.0001042 -0.0004399 0.0010845 -0.0000876 0.0010212 -0.0005040 0.0014152 -0.0008529 0.0013263 -0.0004924 0.0011019 -0.0008129 0.0016289
0.0019327 -0.0059683 -0.0073227 0.0026111 -0.0019351 0.0036593 0.0005193 0.0004789 -0.0004683 0.0010024 -0.0001018 0.0009250 -0.0005427 0.0013277 -0.0008827 0.0011487 -0.0005228 0.0009374 -0.0008630 0.0013325
0.0008942 -0.0055433 -0.0051764 0.0006922 -0.0013246 0.0030827 -0.0000233 0.0005535 -0.0004825 0.0007340 -0.0000966 0.0007276 -0.0005557 0.0011372 -0.0008967 0.0010138 -0.0005229 0.0008431 -0.0008665 0.0011947
-0.0000118 -0.0046515 -0.0039067 0.0006668 -0.0023201 0.0040597 -0.0018817 0.0019242 -0.0004989 0.0007485 -0.0000838 0.0006986 -0.0005587 0.0011486 -0.0008955 0.0010891 -0.0005152 0.0009449 -0.0008234 0.0012927
0.0017902 -0.0062562 -0.0013205 -0.0014997 0.0001151 0.0025717 -0.0018621 0.0019865 -0.0005202 0.0008739 -0.0000804 0.0007555 -0.0005810 0.0012371 -0.0009188 0.0012407 -0.0005173 0.0011071 -0.0008188 0.0014861
0.0002648 -0.0059421 0.0000605 -0.0028115 0.0015854 0.0011729 -0.0024115 0.0023753 -0.0005539 0.0010350 -0.0000854 0.0008426 -0.0006084 0.0013031 -0.0009528 0.0012586 -0.0005071 0.0010867 -0.0008606 0.0014262
-0.0025902 -0.0036075 0.0003841 -0.0019352 0.0019340 0.0008586 -0.0035374 0.0032391 -0.0005772 0.0008876 -0.0000898 0.0007219 -0.0006349 0.0011485 -0.0009761 0.0010300 -0.0005144 0.0008643 -0.0008803 0.0011010
-0.0026671 -0.0034719 0.0043199 -0.0054344 0.0046545 -0.0012934 -0.0020929 0.0018165 -0.0005618 0.0005606 -0.0000766 0.0005136 -0.0006329 0.0009276 -0.0009701 0.0008523 -0.0005350 0.0007666 -0.0008542 0.0009401
-0.0041849 -0.0025047 0.0038151 -0.0055747 0.0029271 -0.0001820 -0.0006115 0.0006662 -0.0005360 0.0005150 -0.0000574 0.0004861 -0.0006109 0.0009082 -0.0009458 0.0008943 -0.0005302 0.0008090 -0.0008082 0.0009976
-0.0042554 -0.0021476 0.0006883 -0.0027056 0.0010131 0.0012057 0.0001782 0.0002673 -0.0005175 0.0006212 -0.0000499 0.0005624 -0.0005931 0.0010066 -0.0009416 0.0010521 -0.0005072 0.0009121 -0.0008000 0.0011831
-0.0033327 -0.0029852 -0.0004912 -0.0022665 0.0019829 0.0005407 0.0015814 -0.0007065 -0.0005199 0.0007739 -0.0000558 0.0006707 -0.0005995 0.0011290 -0.0009647 0.0012294 -0.0005298 0.0011218 -0.0008243 0.0014201
-0.0027830 -0.0028468 -0.0066806 0.0023467 -0.0020124 0.0034184 0.0009596 0.0000307 -0.0005378 0.0008106 -0.0000772 0.0006702 -0.0006282 0.0010757 -0.0009941 0.0011290 -0.0005489 0.0009869 -0.0008469 0.0012325
-0.0006860 -0.0039988 -0.0073951 0.0023007 -0.0040209 0.0044032 0.0005057 0.0000067 -0.0005386 0.0005696 -0.0000917 0.0004928 -0.0006512 0.0008482 -0.0010010 0.0008263 -0.0005591 0.0006257 -0.0008648 0.0008212
0.0008067 -0.0053965 -0.0074358 0.0020585 -0.0048116 0.0048378 0.0007661 -0.0006391 -0.0005100 0.0003341 -0.0000846 0.0003523 -0.0006402 0.0007200 -0.0009895 0.0007296 -0.0005546 0.0005374 -0.0008454 0.0007307
0.0012402 -0.0052137 -0.0090235 0.0045532 -0.0053040 0.0052674 -0.0013786 0.0011356 -0.0004894 0.0003461 -0.0000782 0.0003690 -0.0006331 0.0007705 -0.0009808 0.0008292 -0.0005308 0.0006150 -0.0008146 0.0008417
0.0036443 -0.0073115 -0.0051439 0.0017954 -0.0024046 0.0030979 -0.0017974 0.0015767 -0.0004943 0.0004678 -0.0000839 0.0004493 -0.0006389 0.0008681 -0.0009890 0.0009817 -0.0005157 0.0007519 -0.0007983 0.0010196
0.0020992 -0.0065553 -0.0011125 -0.0010644 0.0006319 0.0013945 -0.0032213 0.0027796 -0.0005098 0.0006348 -0.0000985 0.0005560 -0.0006475 0.0009808 -0.0010214 0.0011561 -0.0005258 0.0009217 -0.0008028 0.0012152
-0.0003979 -0.0040811 0.0010793 -0.0024611 0.0019580 0.0005081 -0.0045899 0.0038447 -0.0005453 0.0008492 -0.0001267 0.0006868 -0.0006875 0.0011108 -0.0010623 0.0012277 -0.0005833 0.0009523 -0.0008452 0.0011727
-0.0009846 -0.0039691 0.0053687 -0.0064668 0.0050231 -0.0022105 -0.0032060 0.0026324 -0.0005658 0.0007193 -0.0001665 0.0005419 -0.0007322 0.0009260 -0.0010926 0.0009918 -0.0006062 0.0005803 -0.0008840 0.0007804
-0.0049593 -0.0014201 0.0048557 -0.0058419 0.0043237 -0.0015724 -0.0018028 0.0015002 -0.0005621 0.0003797 -0.0001949 0.0002128 -0.0007421 0.0006146 -0.0010933 0.0006921 -0.0005934 0.0001523 -0.0008593 0.0004450
-0.0051010 -0.0017884 0.0031924 -0.0048247 0.0025555 -0.0005218 -0.0007246 0.0005186 -0.0005441 0.0002666 -0.0001940 0.0000650 -0.0006969 0.0006116 -0.0010465 0.0006615 -0.0005948 0.0000677 -0.0007918 0.0004077
-0.0053865 -0.0025013 0.0033493 -0.0056204 0.0033391 -0.0012065 0.0009068 -0.0007822 -0.0005176 0.0003302 -0.0001852 0.0000495 -0.0006449 0.0007641 -0.0010083 0.0007949 -0.0005759 0.0001699 -0.0007344 0.0005620
-0.0058503 -0.0018156 -0.0034104 -0.0002433 -0.0009682 0.0025618 0.0015782 -0.0008044 -0.0005126 0.0004793 -0.0001906 0.0001135 -0.0006307 0.0009189 -0.0010045 0.0009322 -0.0005537 0.0002312 -0.0006970 0.0007007
-0.0033297 -0.0038324 -0.0052789 0.0003778 -0.0027057 0.0042548 0.0014025 -0.0004446 -0.0005040 0.0006459 -0.0002027 0.0002108 -0.0006339 0.0010796 -0.0010233 0.0010742 -0.0005860 0.0002455 -0.0007056 0.0007977
-0.0017913 -0.0058861 -0.0109079 0.0039168 -0.0054051 0.0063725 0.0017942 -0.0008825 -0.0004793 0.0006029 -0.0002183 0.0001453 -0.0006398 0.0010089 -0.0010498 0.0008492 -0.0006221 -0.0000858 -0.0007519 0.0004629
-0.0004475 -0.0081921 -0.0168781 0.0074454 -0.0073205 0.0077639 0.0005514 -0.0001903 -0.0004410 0.0003541 -0.0002118 -0.0000140 -0.0006399 0.0007825 -0.0010412 0.0004524 -0.0006006 -0.0005330 -0.0007492 -0.0000427
0.0030314 -0.0131782 -0.0116935 0.0027200 -0.0045888 0.0056343 0.0003887 -0.0003849 -0.0004100 0.0002039 -0.0001835 -0.0000632 -0.0006306 0.0007193 -0.0010040 0.0003411 -0.0005574 -0.0005899 -0.0007154 -0.0001163
0.0022970 -0.0125919 -0.0087413 0.0020042 -0.0017609 0.0039291 -0.0012715 0.0010063 -0.0004016 0.0001707 -0.0001678 -0.0000410 -0.0006180 0.0007333 -0.0009705 0.0003758 -0.0005106 -0.0004134 -0.0006638 0.0000403
0.0004952 -0.0096237 -0.0026686 -0.0013270 0.0009748 0.0021801 -0.0034746 0.0027052 -0.0004246 0.0001902 -0.0001706 0.0000390 -0.0006412 0.0007516 -0.0009752 0.0004646 -0.0004708 -0.0001488 -0.0006433 0.0002759
0.0010360 -0.0090182 0.0033421 -0.0060559 0.0045219 -0.0008461 -0.0026378 0.0021722 -0.0004636 0.0002582 -0.0001810 0.0001436 -0.0006681 0.0008368 -0.0010046 0.0005835 -0.0004965 0.0000632 -0.0006608 0.0004918
-0.0021663 -0.0050341 0.0039473 -0.0050539 0.0049641 -0.0006795 -0.0023208 0.0020644 -0.0004973 0.0001497 -0.0001886 0.0001157 -0.0006834 0.0007715 -0.0010012 0.0004465 -0.0005205 -0.0001360 -0.0006766 0.0002238
-0.0038750 -0.0039497 0.0034011 -0.0042934 0.0041401 0.0000214 -0.0016916 0.0012254 -0.0005078 -0.0001576 -0.0001809 0.0000149 -0.0006900 0.0005882 -0.0009748 0.0002077 -0.0004534 -0.0003690 -0.0006718 -0.0001725
-0.0069972 -0.0017619 0.0035288 -0.0049715 0.0047789 -0.0009792 -0.0000174 -0.0001289 -0.0004763 -0.0002260 -0.0001496 0.0000565 -0.0006621 0.0005763 -0.0009254 0.0002523 -0.0003890 -0.0001991 -0.0006107 -0.0001291
-0.0082654 0.0014556 0.0001360 -0.0013619 0.0022582 0.0008610 0.0009116 -0.0005404 -0.0004676 -0.0001462 -0.0001317 0.0001442 -0.0006469 0.0005998 -0.0009046 0.0003569 -0.0003501 0.0000591 -0.0005451 0.0000739
-0.0046550 0.0002481 -0.0002573 -0.0003369 0.0021463 0.0008256 0.0009522 -0.0004971 -0.0005093 -0.0000345 -0.0001413 0.0002594 -0.0006617 0.0006803 -0.0009312 0.0005495 -0.0003241 0.0002839 -0.0005514 0.0003371
-0.0018775 -0.0007165 -0.0063259 0.0049601 -0.0016364 0.0037981 0.0010160 -0.0005732 -0.0005722 0.0001190 -0.0001546 0.0004339 -0.0006808 0.0007917 -0.0009480 0.0007099 -0.0003129 0.0004835 -0.0005832 0.0004511
0.0010627 -0.0001143 -0.0098770 0.0088020 -0.0057492 0.0063583 0.0006182 -0.0003739 -0.0006330 -0.0000462 -0.0001677 0.0003741 -0.0007130 0.0006335 -0.0009679 0.0005374 -0.0003232 0.0003801 -0.0006012 0.0002583
0.0045030 0.0015969 -0.0030094 0.0062211 -0.0037546 0.0044914 0.0004349 -0.0005262 -0.0006921 -0.0003941 -0.0001764 0.0001932 -0.0007312 0.0004070 -0.0009657 0.0003529 -0.0003517 0.0001903 -0.0005996 0.0001748
0.0054899 0.0049443 -0.0004706 0.0068750 -0.0040903 0.0046259 -0.0014135 0.0009571 -0.0007278 -0.0004949 -0.0001729 0.0001581 -0.0006883 0.0004331 -0.0009223 0.0004065 -0.0003534 0.0003356 -0.0005339 0.0004363
0.0060825 0.0075416 0.0017309 0.0062651 -0.0018947 0.0026613 -0.0025776 0.0017870 -0.0007309 -0.0004115 -0.0001700 0.0001774 -0.0006553 0.0005863 -0.0008833 0.0005850 -0.0003516 0.0005050 -0.0004962 0.0007346
0.0066248 0.0088869 0.0048454 0.0041689 0.0021282 -0.0002626 -0.0014800 0.0007697 -0.0007525 -0.0003526 -0.0001797 0.0001918 -0.0006604 0.0006525 -0.0008734 0.0005779 -0.0004044 0.0004333 -0.0005237 0.0006392
0.0053441 0.0112755 0.0065831 0.0030131 0.0036360 -0.0014298 -0.0018213 0.0009101 -0.0007466 -0.0005270 -0.0001912 0.0000101 -0.0006585 0.0004832 -0.0008618 0.0002984 -0.0004140 0.0001698 -0.0005084 0.0003243
0.0054222 0.0106583 0.0070112 0.0021033 0.0043833 -0.0020577 -0.0022629 0.0008505 -0.0007094 -0.0007626 -0.0001831 -0.0001918 -0.0006451 0.0003274 -0.0008408 0.0001704 -0.0003613 0.0000345 -0.0004533 0.0002338
0.0031849 0.0111005 0.0072234 0.0013874 0.0046018 -0.0018372 -0.0012425 0.0000563 -0.0006729 -0.0007776 -0.0001612 -0.0002069 -0.0006132 0.0003699 -0.0007998 0.0002408 -0.0003091 0.0001002 -0.0003838 0.0003288
0.0015682 0.0123524 0.0057384 0.0024266 0.0029840 -0.0004451 -0.0001914 -0.0004405 -0.0006444 -0.0006665 -0.0001551 -0.0001782 -0.0005762 0.0005353 -0.0007584 0.0004171 -0.0003169 0.0001432 -0.0002992 0.0005633
0.0029328 0.0111381 0.0054348 0.0025619 0.0029615 -0.0005037 -0.0004254 -0.0000884 -0.0006130 -0.0006364 -0.0002139 -0.0004538 -0.0005403 0.0006139 -0.0005511 0.0009758 -0.0003917 -0.0001888 -0.0002551 0.0005190
0.0030946 0.0116569 0.0025291 0.0051431 -0.0005725 0.0020513 0.0000791 -0.0004491 -0.0005070 -0.0005994 -0.0002708 -0.0006998 -0.0004118 0.0009062 -0.0002012 0.0018631 -0.0003317 -0.0002592 -0.0002098 0.0003088
0.0040359 0.0105621 -0.0006922 0.0065927 -0.0046098 0.0048172 0.0008015 -0.0009008 -0.0003615 -0.0003703 -0.0002344 -0.0005092 -0.0002979 0.0012235 -0.0001182 0.0020780 -0.0002001 0.0000255 -0.0001387 0.0003681
0.0057961 0.0075793 0.0009585 0.0039923 -0.0020292 0.0031964 0.0011213 -0.0006467 -0.0002664 -0.0001186 -0.0001945 -0.0003316 -0.0003278 0.0010919 -0.0002677 0.0016099 -0.0001441 0.0002119 -0.0001017 0.0005907
0.0058147 0.0061843 -0.0002760 0.0038561 -0.0031946 0.0043684 0.0004507 0.0001814 -0.0002475 -0.0000293 -0.0001885 -0.0002823 -0.0003849 0.0007904 -0.0004000 0.0010186 -0.0001225 0.0001954 -0.0001305 0.0004504
0.0053213 0.0052886 -0.0015846 0.0035142 -0.0052108 0.0056316 -0.0003218 0.0005076 -0.0002407 -0.0002077 -0.0001666 -0.0003221 -0.0004189 0.0004616 -0.0004743 0.0004240 -0.0001305 0.0000105 -0.0001716 0.0000930
0.0060945 0.0034724 0.0003682 0.0010639 -0.0014549 0.0027081 0.0003940 -0.0003645 -0.0002112 -0.0004269 -0.0001277 -0.0003521 -0.0004228 0.0002675 -0.0004851 0.0001401 -0.0001138 -0.0000219 -0.0001736 0.0000300
0.0048287 0.0032258 0.0020262 -0.0010125 0.0010600 0.0008163 -0.0000395 -0.0001714 -0.0001861 -0.0004318 -0.0000980 -0.0002702 -0.0003996 0.0002626 -0.0004702 0.0001118 -0.0001101 0.0000557 -0.0001375 0.0001342
0.0039037 0.0025598 0.0026794 -0.0014838 0.0028611 0.0001991 -0.0006408 0.0004767 -0.0001650 -0.0002795 -0.0000817 -0.0001225 -0.0003844 0.0004061 -0.0004635 0.0002118 -0.0001034 0.0001644 -0.0000817 0.0003014
0.0003754 0.0042031 0.0028247 -0.0015815 0.0037038 -0.0001160 -0.0008646 0.0005154 -0.0001685 -0.0003709 -0.0000743 -0.0001531 -0.0003868 0.0003163 -0.0004763 -0.0000155 -0.0000616 0.0000395 -0.0000871 0.0001166
-0.0013250 0.0078400 0.0035213 -0.0011994 0.0023566 0.0003291 -0.0012918 0.0000600 -0.0002044 -0.0008267 -0.0000515 -0.0003281 -0.0003978 -0.0000476 -0.0004618 -0.0004287 -0.0001240 -0.0003118 -0.0000638 -0.0001837
0.0010619 0.0068126 0.0054316 -0.0015463 0.0034927 -0.0006497 -0.0009040 -0.0002911 -0.0002195 -0.0010912 -0.0000455 -0.0004731 -0.0003755 -0.0002089 -0.0004407 -0.0005818 -0.0002213 -0.0006903 0.0000065 -0.0001448
0.0000175 0.0058444 0.0018659 0.0006154 0.0015574 0.0012091 0.0001434 -0.0008283 -0.0001890 -0.0010874 -0.0000799 -0.0005866 -0.0003894 -0.0003152 -0.0004959 -0.0006884 -0.0001458 -0.0005326 -0.0000022 -0.0000466
0.0001946 0.0054263 -0.0019547 0.0024507 -0.0011353 0.0034475 0.0005308 -0.0009637 -0.0001325 -0.0008947 -0.0000975 -0.0005056 -0.0003973 -0.0002687 -0.0005048 -0.0005948 -0.0001562 -0.0004102 -0.0000360 -0.0000727
0.0007181 0.0014962 0.0007369 -0.0011204 0.0017278 0.0011011 0.0013347 -0.0013876 -0.0001086 -0.0009052 -0.0001175 -0.0006192 -0.0003647 -0.0003423 -0.0004679 -0.0007533 -0.0002743 -0.0008568 -0.0000645 -0.0003966
0.0000099 -0.0019788 -0.0027933 -0.0004559 0.0003970 0.0017116 0.0016702 -0.0018517 -0.0000891 -0.0012026 -0.0001318 -0.0009136 -0.0003319 -0.0006394 -0.0004450 -0.0011223 -0.0002356 -0.0011564 -0.0000654 -0.0007149
0.0004266 -0.0040668 -0.0079928 0.0026589 -0.0014622 0.0029032 0.0011562 -0.0013375 -0.0000310 -0.0012669 -0.0001149 -0.0009666 -0.0002865 -0.0006498 -0.0004095 -0.0011740 -0.0001924 -0.0011361 -0.0000769 -0.0007232
0.0019494 -0.0067213 -0.0063341 0.0007731 -0.0003739 0.0024657 0.0018749 -0.0017643 0.0000343 -0.0010512 -0.0001109 -0.0008707 -0.0002802 -0.0005131 -0.0003234 -0.0008330 -0.0001769 -0.0008579 -0.0000931 -0.0005417
0.0012945 -0.0074830 -0.0059830 -0.0010290 -0.0005633 0.0038065 0.0009234 -0.0009572 0.0001522 -0.0002124 -0.0001193 -0.0006181 -0.0002233 -0.0000758 -0.0002204 -0.0002077 -0.0001848 -0.0005502 -0.0000447 -0.0001873
0.0006817 -0.0091538 -0.0045555 -0.0022340 -0.0002698 0.0044661 -0.0001730 0.0002719 0.0001913 0.0003411 -0.0001076 -0.0003891 -0.0002083 0.0001500 -0.0002468 -0.0002741 -0.0001831 -0.0006616 -0.0000513 -0.0002807
-0.0011579 -0.0066902 -0.0018990 -0.0027720 0.0003870 0.0037997 -0.0006702 0.0003799 0.0001255 0.0000108 -0.0000933 -0.0004191 -0.0002740 -0.0001600 -0.0003055 -0.0007954 -0.0001465 -0.0008821 -0.0000985 -0.0006542
-0.0027797 -0.0024689 -0.0002690 -0.0022747 0.0008826 0.0031790 -0.0016061 0.0008233 0.0000763 -0.0003619 -0.0000929 -0.0005307 -0.0003014 -0.0003380 -0.0003093 -0.0009708 -0.0001258 -0.0008240 -0.0000841 -0.0006559
-0.0000823 -0.0031719 0.0016095 -0.0032059 0.0023274 0.0018326 -0.0012573 0.0007002 0.0000156 -0.0006755 -0.0000883 -0.0005399 -0.0002778 -0.0002889 -0.0003102 -0.0009185 -0.0001032 -0.0006651 -0.0000484 -0.0004919
-0.0011082 -0.0023496 0.0008891 -0.0031401 0.0028448 0.0012279 -0.0014840 0.0006676 -0.0000612 -0.0009323 -0.0000762 -0.0004561 -0.0002251 -0.0001243 -0.0003081 -0.0008080 -0.0001169 -0.0005375 -0.0000279 -0.0004301
-0.0026015 0.0003062 0.0008203 -0.0019708 0.0022786 0.0018639 -0.0008932 0.0003577 -0.0001107 -0.0011863 -0.0000687 -0.0005141 -0.0001985 -0.0001240 -0.0003089 -0.0009025 -0.0001433 -0.0007653 -0.0000310 -0.0006389
-0.0015167 0.0000279 0.0039307 -0.0043331 0.0045417 -0.0000722 0.0007069 -0.0007008 -0.0000761 -0.0013280 -0.0000555 -0.0006183 -0.0001551 -0.0001631 -0.0002895 -0.0009664 -0.0001353 -0.0009323 -0.0000231 -0.0007201
-0.0011542 -0.0002768 0.0017345 -0.0033287 0.0033741 0.0001883 0.0013637 -0.0011662 -0.0000512 -0.0012375 -0.0000383 -0.0005351 -0.0001158 -0.0000338 -0.0002669 -0.0008084 -0.0000987 -0.0007797 -0.0000060 -0.0005324
-0.0000972 0.0005312 -0.0012067 0.0000682 0.0004301 0.0025645 0.0014446 -0.0008542 -0.0000796 -0.0010989 -0.0000342 -0.0003742 -0.0001239 0.0001078 -0.0002788 -0.0006146 -0.0000843 -0.0005430 -0.0000418 -0.0002380
0.0010635 0.0003085 -0.0015955 0.0006978 0.0004759 0.0026101 0.0023408 -0.0013894 -0.0001013 -0.0009849 -0.0000393 -0.0002598 -0.0001475 0.0001606 -0.0002955 -0.0006446 -0.0000968 -0.0005298 -0.0000975 -0.0002926
0.0011377 -0.0000698 -0.0055949 0.0033270 -0.0018086 0.0041371 0.0020804 -0.0013290 -0.0001107 -0.0011235 -0.0000432 -0.0003419 -0.0001638 0.0000115 -0.0002917 -0.0008858 -0.0001012 -0.0007536 -0.0000941 -0.0006303
0.0020650 -0.0013244 -0.0050673 0.0027674 -0.0016286 0.0037339 0.0008628 -0.0007308 -0.0000999 -0.0013017 -0.0000320 -0.0004488 -0.0001587 -0.0000846 -0.0002633 -0.0009410 -0.0000965 -0.0007714 -0.0000667 -0.0006381
0.0013868 -0.0010055 -0.0035511 0.0016495 -0.0006922 0.0028665 0.0004096 -0.0005955 -0.0000741 -0.0012296 -0.0000226 -0.0004190 -0.0001330 -0.0000263 -0.0002322 -0.0007783 -0.0000711 -0.0006173 -0.0000376 -0.0003947
0.0009800 -0.0001902 -0.0038200 0.0025834 -0.0002833 0.0031103 -0.0012765 0.0009208 -0.0000665 -0.0009686 -0.0000742 -0.0004902 -0.0001365 0.0001774 -0.0001402 -0.0001547 -0.0000791 -0.0004329 0.0000606 0.0000439
0.0031052 -0.0024786 -0.0003815 -0.0002776 0.0022996 0.0012711 -0.0016147 0.0011177 -0.0000484 -0.0008073 -0.0001807 -0.0008092 -0.0001403 0.0003207 0.0000569 0.0005746 -0.0000663 -0.0005276 0.0001092 0.0000226
0.0013377 -0.0022999 0.0018160 -0.0030531 0.0030997 0.0003370 -0.0017885 0.0009284 0.0000061 -0.0007724 -0.0002107 -0.0010098 -0.0001127 0.0002753 0.0001623 0.0006970 0.0000263 -0.0006843 0.0001206 -0.0002655
-0.0005749 -0.0011823 0.0017923 -0.0034810 0.0029384 0.0007559 -0.0021354 0.0014196 0.0000648 -0.0005822 -0.0001662 -0.0009150 -0.0000858 0.0003192 0.0001439 0.0006643 0.0000741 -0.0005871 0.0001714 -0.0001489
-0.0006569 -0.0024025 0.0044896 -0.0067967 0.0063999 -0.0015817 -0.0011621 0.0009849 0.0001000 -0.0003219 -0.0001468 -0.0007561 -0.0000518 0.0004806 0.0001351 0.0008377 0.0000355 -0.0003616 0.0001882 0.0000921
-0.0027148 -0.0018107 0.0027143 -0.0060228 0.0054397 -0.0005878 -0.0003115 0.0005041 0.0000964 -0.0000494 -0.0001520 -0.0005919 -0.0000306 0.0006632 0.0001234 0.0010429 0.0000135 -0.0000979 0.0001809 0.0003281
-0.0032184 -0.0018586 0.0006675 -0.0044194 0.0031105 0.0012177 0.0009538 -0.0003745 0.0000755 -0.0000404 -0.0001673 -0.0006174 -0.0000429 0.0006018 0.0000975 0.0008797 0.0000200 -0.0002436 0.0001432 0.0001472
-0.0026821 -0.0021275 -0.0002266 -0.0044068 0.0025201 0.0010842 0.0028421 -0.0020526 0.0000702 -0.0002757 -0.0001692 -0.0007973 -0.0000581 0.0003731 0.0000830 0.0005224 0.0000320 -0.0005352 0.0001418 -0.0001362
-0.0017311 -0.0021699 -0.0085020 0.0021196 -0.0019821 0.0041795 0.0025389 -0.0018562 0.0000779 -0.0003330 -0.0001555 -0.0008262 -0.0000418 0.0003315 0.0000871 0.0004720 0.0000536 -0.0004918 0.0001921 -0.0000585
-0.0006038 -0.0042444 -0.0078862 0.0012492 -0.0018320 0.0039790 0.0020648 -0.0014603 0.0000837 -0.0002002 -0.0001450 -0.0007290 -0.0000308 0.0004220 0.0000777 0.0005790 0.0000581 -0.0002666 0.0002133 0.0001685
-0.0000672 -0.0056918 -0.0090078 0.0015069 -0.0035870 0.0053134 0.0021002 -0.0013786 0.0000741 -0.0000249 -0.0001475 -0.0005820 -0.0000428 0.0005638 0.0000492 0.0007489 0.0000410 0.0001013 0.0002004 0.0004559
0.0015957 -0.0061971 -0.0130040 0.0056040 -0.0045369 0.0065737 0.0000106 0.0004307 0.0000392 0.0001934 -0.0001474 -0.0003535 -0.0000894 0.0007133 -0.0000260 0.0008691 0.0000219 0.0004669 0.0001583 0.0007185
0.0038843 -0.0079754 -0.0075878 0.0017420 -0.0001225 0.0032921 -0.0004329 0.0005986 -0.0000092 0.0000955 -0.0001173 -0.0002263 -0.0001448 0.0005842 -0.0001130 0.0004845 -0.0000105 0.0002186 0.0000758 0.0004500
0.0028878 -0.0068833 -0.0034158 -0.0007095 0.0009334 0.0023250 -0.0019913 0.0014146 -0.0000553 -0.0003144 -0.0000742 -0.0002890 -0.0001456 0.0002844 -0.0001447 -0.0000673 -0.0000407 -0.0003192 0.0000259 -0.0000303
0.0008378 -0.0049855 -0.0007139 -0.0023217 0.0015031 0.0021191 -0.0027947 0.0018901 -0.0000739 -0.0005120 -0.0000338 -0.0002980 -0.0001267 0.0002120 -0.0001466 -0.0002013 -0.0000530 -0.0004993 0.0000212 -0.0001078
-0.0001130 -0.0046959 0.0043412 -0.0067658 0.0058139 -0.0012961 -0.0018360 0.0013448 -0.0000766 -0.0005091 -0.0000056 -0.0002041 -0.0001044 0.0003101 -0.0001282 -0.0001044 -0.0000633 -0.0003804 0.0000337 0.0000707
-0.0024292 -0.0014451 0.0047451 -0.0056563 0.0059054 -0.0012233 -0.0012981 0.0012359 -0.0001221 -0.0004454 -0.0000004 -0.0001051 -0.0000914 0.0004390 -0.0001272 0.0000742 -0.0000505 -0.0001056 0.0000467 0.0003826
-0.0017954 0.0003732 0.0038814 -0.0042625 0.0047573 -0.0000204 -0.0000027 0.0003401 -0.0001744 -0.0002985 -0.0000080 0.0000151 -0.0001017 0.0005941 -0.0001534 0.0002975 -0.0000491 0.0001822 0.0000350 0.0007030
-0.0024907 0.0017894 0.0039740 -0.0045957 0.0049584 -0.0004684 0.0014312 -0.0009034 -0.0002030 -0.0003650 -0.0000201 -0.0000291 -0.0001127 0.0005343 -0.0001671 0.0001529 -0.0000750 -0.0000360 0.0000113 0.0005099
-0.0031702 0.0024764 -0.0009968 -0.0004573 0.0011656 0.0018607 0.0019362 -0.0013198 -0.0002217 -0.0006709 -0.0000211 -0.0002337 -0.0001183 0.0002663 -0.0001592 -0.0002265 -0.0000818 -0.0003790 0.0000244 0.0001261
-0.0012852 0.0010360 -0.0011996 -0.0003589 0.0005589 0.0019636 0.0020687 -0.0014385 -0.0002067 -0.0008052 -0.0000095 -0.0003183 -0.0001162 0.0001669 -0.0001435 -0.0002673 -0.0000527 -0.0002455 0.0000461 0.0001921
-0.0000053 0.0005614 -0.0058724 0.0037509 -0.0025395 0.0043226 0.0023542 -0.0015237 -0.0001888 -0.0007371 -0.0000030 -0.0002695 -0.0001121 0.0002251 -0.0001383 -0.0001179 -0.0000379 -0.0000743 0.0000376 0.0004131
0.0016792 0.0003034 -0.0108986 0.0076126 -0.0057825 0.0066656 0.0007536 -0.0002810 -0.0002074 -0.0005721 -0.0000111 -0.0001435 -0.0001355 0.0003487 -0.0001644 0.0001002 -0.0000588 0.0001746 0.0000179 0.0007201
0.0042793 -0.0014620 -0.0056833 0.0033957 -0.0028905 0.0044962 0.0002060 0.0001572 -0.0002442 -0.0003626 -0.0000346 0.0000258 -0.0001736 0.0005053 -0.0002122 0.0002695 -0.0000806 0.0003468 -0.0000408 0.0008548
0.0041923 -0.0008833 -0.0039307 0.0030584 -0.0020169 0.0041606 -0.0013197 0.0013517 -0.0002789 -0.0004919 -0.0000596 -0.0000414 -0.0002100 0.0003652 -0.0002468 0.0000480 -0.0001022 0.0001031 -0.0001033 0.0005673
0.0032290 -0.0006027 -0.0027416 0.0016673 -0.0009960 0.0031362 -0.0023131 0.0016820 -0.0002875 -0.0007844 -0.0000638 -0.0002337 -0.0002323 0.0001271 -0.0002576 -0.0002317 -0.0001347 -0.0001553 -0.0001298 0.0003212
0.0027352 -0.0010993 0.0020602 -0.0031455 0.0037188 -0.0004618 -0.0011238 0.0006773 -0.0002718 -0.0007452 -0.0000603 -0.0002164 -0.0002313 0.0001717 -0.0002551 -0.0001361 -0.0001374 -0.0000344 -0.0001244 0.0004642
-0.0000039 0.0014087 0.0043435 -0.0039193 0.0053273 -0.0012701 -0.0016775 0.0013976 -0.0002600 -0.0005102 -0.0000693 -0.0001094 -0.0002357 0.0003170 -0.0002582 0.0000819 -0.0001561 0.0001267 -0.0001220 0.0007018
0.0000904 0.0000818 0.0039842 -0.0045765 0.0045947 -0.0004011 -0.0014430 0.0013870 -0.0002558 -0.0002132 -0.0000880 0.0000203 -0.0002515 0.0005159 -0.0003082 0.0003177 -0.0002180 0.0002628 -0.0001554 0.0008982
-0.0028373 0.0001960 0.0044813 -0.0068965 0.0051192 -0.0005990 -0.0000563 0.0003342 -0.0002795 -0.0002373 -0.0001037 0.0000086 -0.0002770 0.0004602 -0.0003637 0.0001525 -0.0002298 0.0000541 -0.0002003 0.0006589
-0.0062438 0.0018506 0.0007154 -0.0041303 0.0032025 0.0004344 0.0005113 -0.0002304 -0.0003062 -0.0004865 -0.0001028 -0.0001250 -0.0002943 0.0002587 -0.0003735 -0.0001363 -0.0002075 -0.0001534 -0.0001849 0.0003804
-0.0039965 0.0004498 0.0003800 -0.0035768 0.0029100 0.0003273 0.0008944 -0.0005135 -0.0003043 -0.0005225 -0.0000946 -0.0001589 -0.0002873 0.0002482 -0.0003750 -0.0001058 -0.0001899 -0.0000230 -0.0001520 0.0004945
-0.0035610 0.0007491 -0.0041770 0.0007733 -0.0011947 0.0036123 0.0015606 -0.0007769 -0.0002932 -0.0003766 -0.0000885 -0.0000743 -0.0002728 0.0003658 -0.0003623 0.0000890 -0.0001942 0.0001551 -0.0001291 0.0007313
-0.0013567 -0.0012563 -0.0107634 0.0052413 -0.0049337 0.0061224 0.0008950 -0.0001358 -0.0002942 -0.0001407 -0.0001775 -0.0002188 -0.0002947 0.0005351 -0.0002683 0.0006901 -0.0001756 0.0003420 -0.0000962 0.0009883
0.0021538 -0.0040908 -0.0059555 0.0010593 -0.0018977 0.0035473 0.0011578 -0.0005715 -0.0003088 -0.0002466 -0.0002413 -0.0005089 -0.0003234 0.0003861 -0.0002556 0.0006271 -0.0001640 0.0001274 -0.0001255 0.0007421
0.0029121 -0.0040098 -0.0065862 0.0021369 -0.0026242 0.0041520 0.0003595 -0.0000805 -0.0003011 -0.0006055 -0.0001720 -0.0005558 -0.0002909 0.0000745 -0.0003231 -0.0000285 -0.0001818 -0.0002134 -0.0001539 0.0003119
0.0031436 -0.0042208 -0.0074887 0.0026617 -0.0027878 0.0039731 -0.0008681 0.0009177 -0.0002674 -0.0007077 -0.0001153 -0.0004930 -0.0002575 0.0000283 -0.0003087 -0.0001310 -0.0001533 -0.0002138 -0.0001333 0.0003169
0.0038478 -0.0045851 -0.0020464 -0.0015086 0.0009042 0.0012543 0.0004360 -0.0001402 -0.0002369 -0.0006225 -0.0000953 -0.0004087 -0.0002507 0.0001274 -0.0002889 0.0000028 -0.0001276 -0.0000550 -0.0001205 0.0004919
0.0023317 -0.0030200 0.0014260 -0.0040637 0.0021209 0.0006818 -0.0002882 0.0001454 -0.0002547 -0.0005434 -0.0000801 -0.0002786 -0.0002537 0.0001706 -0.0002878 -0.0000295 -0.0001653 -0.0001529 -0.0001787 0.0002699
0.0018194 -0.0028479 0.0020389 -0.0041783 0.0020299 0.0006974 -0.0012438 0.0007615 -0.0002727 -0.0007677 -0.0000494 -0.0003031 -0.0002225 0.0000780 -0.0002456 -0.0002589 -0.0002302 -0.0006006 -0.0002012 -0.0001206
-0.0008744 0.0019381 0.0033811 -0.0027117 0.0034500 -0.0003388 -0.0005884 0.0000983 -0.0002995 -0.0012340 -0.0000203 -0.0005045 -0.0001621 -0.0000967 -0.0001773 -0.0004846 -0.0002372 -0.0007923 -0.0001079 -0.0000998
-0.0020587 0.0064512 0.0040793 0.0006458 0.0038496 -0.0008216 -0.0011822 -0.0000051 -0.0003655 -0.0016205 0.0000031 -0.0006187 -0.0001241 -0.0001868 -0.0000894 -0.0005294 -0.0002005 -0.0006347 -0.0000334 0.0000226
0.0043118 0.0123807 0.0071868 0.0049953 0.0050984 -0.0021710 -0.0007561 -0.0004779 -0.0004247 -0.0019355 0.0000150 -0.0006363 -0.0001189 -0.0002271 -0.0000061 -0.0003572 -0.0001537 -0.0004280 -0.0000035 0.0001657
0.0078112 0.0201372 0.0085518 0.0104256 0.0012528 0.0001588 0.0001813 -0.0011403 -0.0004427 -0.0021634 0.0000047 -0.0007388 -0.0001016 -0.0003686 0.0000558 -0.0003913 -0.0000785 -0.0003920 0.0000251 0.0001411
0.0084718 0.0217161 0.0076861 0.0121152 -0.0022598 0.0022838 -0.0000931 -0.0007486 -0.0003435 -0.0021597 -0.0000178 -0.0009983 0.0000039 -0.0004809 0.0001152 -0.0005800 0.0000814 -0.0002396 0.0001217 0.0000596
0.0080005 0.0184773 0.0073611 0.0089270 0.0014334 -0.0005306 0.0006689 -0.0010991 -0.0001937 -0.0019707 -0.0000118 -0.0010584 0.0000461 -0.0005907 0.0001372 -0.0006480 0.0001906 0.0000528 0.0001982 0.0001189
0.0073112 0.0152360 0.0049134 0.0073233 -0.0007603 0.0008213 0.0009616 -0.0012858 -0.0001317 -0.0018103 -0.0000067 -0.0009834 0.0000184 -0.0006725 0.0001811 -0.0004239 0.0001865 0.0001354 0.0002304 0.0002824
0.0070169 0.0133918 0.0023252 0.0070048 -0.0035508 0.0034569 0.0010424 -0.0011994 -0.0001116 -0.0015612 -0.0001276 -0.0012406 -0.0000082 -0.0005559 0.0002685 0.0001146 0.0002114 0.0002685 0.0002740 0.0005197
0.0069830 0.0115432 0.0018467 0.0052029 -0.0023790 0.0028982 0.0024414 -0.0023123 -0.0000728 -0.0014960 -0.0001694 -0.0013825 -0.0000092 -0.0006309 0.0002549 -0.0001016 0.0002268 0.0001896 0.0002826 0.0003451
0.0066078 0.0099541 0.0005096 0.0047347 -0.0015753 0.0017853 0.0013785 -0.0017853 -0.0000304 -0.0016287 -0.0000853 -0.0012752 0.0000575 -0.0007637 0.0002122 -0.0006268 0.0002256 -0.0000360 0.0003053 0.0001681
0.0067627 0.0074986 0.0004243 0.0037701 0.0001169 0.0009536 0.0001117 -0.0006031 0.0000337 -0.0014864 -0.0000585 -0.0012030 0.0001139 -0.0006211 0.0002419 -0.0005262 0.0002425 0.0000016 0.0003197 0.0002955
0.0051062 0.0067820 0.0009264 0.0017830 0.0008247 0.0010402 0.0001950 -0.0003169 0.0000915 -0.0012136 -0.0000416 -0.0010300 0.0001389 -0.0004359 0.0002354 -0.0003573 0.0002361 0.0001756 0.0003041 0.0004617
0.0030332 0.0060268 0.0013690 0.0004509 0.0010322 0.0014580 -0.0011552 0.0010448 0.0001151 -0.0010619 -0.0000336 -0.0009346 0.0001170 -0.0004418 0.0002039 -0.0004597 0.0002169 0.0000404 0.0002820 0.0003403
0.0039868 0.0025036 0.0030034 -0.0018297 0.0022749 0.0007625 -0.0007912 0.0005146 0.0001297 -0.0011038 -0.0000660 -0.0011168 0.0000893 -0.0005923 0.0002290 -0.0005231 0.0001216 -0.0003794 0.0002588 -0.0000015
0.0020644 0.0012827 0.0022730 -0.0027072 0.0022224 0.0004603 -0.0010222 0.0002581 0.0001775 -0.0010360 -0.0000660 -0.0011261 0.0001320 -0.0004710 0.0002944 -0.0002860 0.0000798 -0.0004621 0.0002842 -0.0000279
-0.0003865 0.0002249 0.0008741 -0.0027394 0.0024100 0.0006979 -0.0012609 0.0010243 0.0002567 -0.0007108 -0.0000190 -0.0009012 0.0002368 -0.0001313 0.0003322 -0.0000338 0.0001107 -0.0003071 0.0003210 0.0001443
-0.0019240 -0.0041980 0.0036204 -0.0080470 0.0048934 -0.0002765 -0.0000347 0.0005030 0.0002861 -0.0005305 -0.0000093 -0.0008300 0.0002836 -0.0000194 0.0003522 -0.0000199 0.0001400 -0.0002678 0.0003022 0.0000277
-0.0049511 -0.0049751 0.0020312 -0.0082382 0.0039220 0.0005426 0.0008625 -0.0003955 0.0002535 -0.0007643 0.0000002 -0.0008839 0.0002925 -0.0001643 0.0003760 -0.0002411 0.0001864 -0.0004557 0.0003062 -0.0002647
-0.0039331 -0.0039144 -0.0010428 -0.0042081 0.0017994 0.0014515 0.0016582 -0.0012784 0.0002416 -0.0010693 0.0000449 -0.0008753 0.0003551 -0.0002041 0.0004050 -0.0003960 0.0002169 -0.0004544 0.0003547 -0.0002510
-0.0020773 -0.0043054 -0.0022098 -0.0023176 0.0009963 0.0017755 0.0027716 -0.0021429 0.0002499 -0.0011707 0.0001058 -0.0007111 0.0004238 -0.0001344 0.0004248 -0.0004420 0.0002894 -0.0001046 0.0003783 -0.0000716
-0.0014543 -0.0034121 -0.0083831 0.0037674 -0.0023446 0.0044285 0.0026461 -0.0015896 0.0002409 -0.0011459 0.0001562 -0.0005044 0.0004486 -0.0001193 0.0004235 -0.0005121 0.0003055 -0.0000468 0.0003851 -0.0000812
0.0006976 -0.0047564 -0.0079928 0.0037196 -0.0027084 0.0042663 0.0019014 -0.0012019 0.0002252 -0.0013733 0.0001801 -0.0005440 0.0004336 -0.0003395 0.0004250 -0.0008558 0.0002906 -0.0002744 0.0004018 -0.0002965
0.0019248 -0.0047228 -0.0074133 0.0031670 -0.0023552 0.0036088 0.0014206 -0.0016319 0.0002405 -0.0017748 0.0001975 -0.0007451 0.0004596 -0.0006280 0.0004790 -0.0011538 0.0003053 -0.0004479 0.0004673 -0.0004070
0.0017296 -0.0029572 -0.0094814 0.0061156 -0.0024026 0.0041187 -0.0002433 -0.0004031 0.0003018 -0.0017841 0.0002015 -0.0008232 0.0005172 -0.0005793 0.0005708 -0.0009945 0.0003164 -0.0005331 0.0005811 -0.0002042
0.0037511 -0.0050986 -0.0044867 0.0029055 -0.0013170 0.0032577 -0.0003616 -0.0002630 0.0003537 -0.0015762 0.0001922 -0.0007477 0.0005523 -0.0003547 0.0006221 -0.0006881 0.0003507 -0.0003650 0.0005510 -0.0001735
0.0031426 -0.0057889 -0.0011581 -0.0005240 0.0002101 0.0023514 -0.0015648 0.0007425 0.0003657 -0.0015367 0.0001877 -0.0006655 0.0005543 -0.0003309 0.0006229 -0.0007029 0.0003984 -0.0001650 0.0005110 -0.0004151
0.0018784 -0.0062218 -0.0001499 -0.0034347 0.0029949 0.0007164 -0.0027824 0.0015069 0.0004278 -0.0015437 0.0001845 -0.0007938 0.0006126 -0.0003594 0.0006547 -0.0008917 0.0003355 -0.0006182 0.0005410 -0.0007070
0.0002082 -0.0118204 0.0030082 -0.0109740 0.0058374 -0.0010431 -0.0012763 0.0003207 0.0005212 -0.0014166 0.0002143 -0.0007842 0.0007359 -0.0001454 0.0007017 -0.0008824 0.0002285 -0.0010427 0.0005567 -0.0007846
-0.0089270 -0.0115227 0.0011797 -0.0117750 0.0055387 0.0001298 -0.0001115 0.0001731 0.0005396 -0.0012942 0.0002459 -0.0005619 0.0007808 0.0000789 0.0007136 -0.0007408 0.0002463 -0.0007102 0.0006148 -0.0003862
-0.0102036 -0.0096409 -0.0001302 -0.0093596 0.0053355 0.0004061 0.0007141 -0.0003977 0.0004527 -0.0013787 0.0002354 -0.0004208 0.0007459 0.0001309 0.0006883 -0.0005997 0.0003413 -0.0002086 0.0006330 0.0000494
-0.0098801 -0.0069309 0.0011083 -0.0084892 0.0048403 0.0002082 0.0021539 -0.0018659 0.0003301 -0.0016389 0.0002279 -0.0003955 0.0006914 -0.0000794 0.0006567 -0.0007319 0.0003947 -0.0000281 0.0005704 -0.0001397
-0.0109210 -0.0043342 -0.0054247 -0.0019652 0.0013023 0.0026906 0.0028590 -0.0023657 0.0003091 -0.0018414 0.0002280 -0.0005321 0.0006609 -0.0003851 0.0006493 -0.0010312 0.0003293 -0.0002178 0.0005529 -0.0004338
-0.0072956 -0.0074010 -0.0070232 -0.0005173 0.0019444 0.0022429 0.0027134 -0.0023831 0.0003078 -0.0020167 0.0002308 -0.0006412 0.0006652 -0.0005016 0.0006485 -0.0011439 0.0002666 -0.0003907 0.0005980 -0.0002889
-0.0037885 -0.0092346 -0.0120951 0.0041843 0.0000519 0.0034384 0.0026602 -0.0025543 0.0002924 -0.0020636 0.0002488 -0.0005638 0.0006861 -0.0004334 0.0006534 -0.0010575 0.0002728 -0.0002391 0.0006200 -0.0000297
-0.0007415 -0.0111798 -0.0199670 0.0093533 -0.0032143 0.0057005 0.0019122 -0.0020738 0.0002889 -0.0019158 0.0002525 -0.0004237 0.0006938 -0.0002854 0.0006459 -0.0008466 0.0002775 0.0000410 0.0006419 0.0003104
0.0031038 -0.0143544 -0.0140979 0.0051984 -0.0017681 0.0046831 0.0020561 -0.0017931 0.0002472 -0.0017874 0.0002410 -0.0003318 0.0006726 -0.0002387 0.0006094 -0.0008673 0.0002657 0.0000757 0.0005923 0.0002946
0.0027592 -0.0122459 -0.0109741 0.0042584 -0.0008131 0.0044482 0.0003509 -0.0004574 0.0001963 -0.0020399 0.0002227 -0.0004679 0.0006314 -0.0004729 0.0005800 -0.0011511 0.0002737 0.0000077 0.0005077 0.0000053
0.0023380 -0.0073281 -0.0058262 0.0010513 0.0006947 0.0030057 -0.0011129 -0.0000180 0.0001731 -0.0023761 0.0002178 -0.0006295 0.0006089 -0.0006654 0.0005964 -0.0012449 0.0002972 0.0000912 0.0005063 0.0000607
0.0035881 -0.0056753 0.0006415 -0.0037678 0.0028399 0.0008464 -0.0003287 -0.0006928 0.0001751 -0.0023639 0.0002222 -0.0006305 0.0006285 -0.0005995 0.0006241 -0.0010994 0.0002945 0.0002225 0.0005465 0.0003393
0.0015173 -0.0042150 0.0028972 -0.0046666 0.0039836 0.0000764 -0.0007945 -0.0002941 0.0001619 -0.0022379 0.0002134 -0.0005681 0.0006208 -0.0005203 0.0006099 -0.0009260 0.0002822 0.0004183 0.0005467 0.0005504
0.0013485 -0.0041194 0.0026939 -0.0038964 0.0048688 -0.0004986 -0.0003328 -0.0004876 0.0001373 -0.0020372 0.0001994 -0.0004363 0.0005759 -0.0004362 0.0005654 -0.0007512 0.0002813 0.0006267 0.0004999 0.0006755
-0.0027104 -0.0009188 0.0024333 -0.0039577 0.0052841 -0.0004954 0.0000387 -0.0005663 0.0001362 -0.0020632 0.0001822 -0.0004886 0.0005369 -0.0005468 0.0005335 -0.0008850 0.0002466 0.0004503 0.0004379 0.0004507
-0.0067196 0.0002361 0.0005917 -0.0032308 0.0037311 0.0005218 -0.0000026 -0.0008412 0.0001531 -0.0022227 0.0001789 -0.0006433 0.0005387 -0.0006852 0.0005471 -0.0010692 0.0002235 0.0001657 0.0004260 0.0002093
-0.0036676 -0.0035491 0.0008485 -0.0033540 0.0029342 0.0010622 0.0006939 -0.0013251 0.0001753 -0.0021200 0.0001857 -0.0006081 0.0005684 -0.0005871 0.0005613 -0.0009153 0.0002328 0.0002666 0.0004322 0.0003339
-0.0040856 -0.0029938 -0.0023248 -0.0002270 0.0005226 0.0031372 0.0010929 -0.0011582 0.0001780 -0.0018771 0.0001838 -0.0004711 0.0005602 -0.0004550 0.0005387 -0.0006951 0.0002170 0.0005477 0.0004031 0.0005932
-0.0034016 -0.0034922 -0.0053659 0.0021281 -0.0008863 0.0043645 0.0012034 -0.0008990 0.0001360 -0.0016254 0.0001664 -0.0002996 0.0005097 -0.0003476 0.0004778 -0.0004651 0.0001873 0.0008507 0.0003542 0.0008730
-0.0003351 -0.0056512 -0.0023322 -0.0000971 0.0008838 0.0032502 0.0015269 -0.0011196 0.0000846 -0.0014966 0.0001398 -0.0002318 0.0004500 -0.0003871 0.0004177 -0.0005346 0.0001429 0.0008054 0.0002714 0.0007642
0.0009824 -0.0064102 -0.0050983 0.0016831 -0.0009850 0.0040917 0.0011974 -0.0011516 0.0000426 -0.0016619 0.0001150 -0.0003499 0.0004105 -0.0006038 0.0003897 -0.0007922 0.0001033 0.0005726 0.0002092 0.0004839
0.0011696 -0.0055656 -0.0068627 0.0033150 -0.0015962 0.0041262 0.0010567 -0.0008854 0.0000262 -0.0017690 0.0001036 -0.0004224 0.0003990 -0.0006663 0.0003819 -0.0007663 0.0001041 0.0005954 0.0002024 0.0005655
0.0022378 -0.0054776 -0.0052876 0.0022844 -0.0006422 0.0033795 0.0017049 -0.0011418 0.0000277 -0.0016125 0.0001017 -0.0003399 0.0003960 -0.0005165 0.0003835 -0.0005742 0.0001230 0.0007607 0.0001979 0.0007897
0.0019871 -0.0050405 -0.0063775 0.0028083 -0.0015362 0.0042567 0.0008978 -0.0006801 0.0000198 -0.0014020 0.0000904 -0.0002207 0.0003801 -0.0003648 0.0003601 -0.0003810 0.0001147 0.0009657 0.0001872 0.0010009
0.0019340 -0.0047259 -0.0046757 0.0018322 -0.0004378 0.0037982 0.0003593 -0.0002592 0.0000109 -0.0013649 0.0000761 -0.0002523 0.0003516 -0.0003878 0.0003341 -0.0004694 0.0000890 0.0008048 0.0001419 0.0008159
0.0001910 -0.0031151 -0.0028118 0.0004564 0.0007362 0.0030227 0.0002773 -0.0003200 0.0000074 -0.0015210 0.0000803 -0.0003828 0.0003572 -0.0004847 0.0003452 -0.0006403 0.0000843 0.0005283 0.0001202 0.0005368
-0.0007534 -0.0019516 -0.0021655 0.0005501 0.0011043 0.0029639 -0.0005872 0.0003451 0.0000208 -0.0014799 0.0000996 -0.0003783 0.0003856 -0.0003883 0.0003865 -0.0005454 0.0001275 0.0005918 0.0001553 0.0006399
0.0020136 -0.0033665 0.0003370 -0.0009416 0.0024811 0.0019049 -0.0003384 0.0004328 0.0000377 -0.0012815 0.0001109 -0.0002846 0.0004088 -0.0002134 0.0003997 -0.0003653 0.0001603 0.0007458 0.0001885 0.0008528
0.0008015 -0.0030133 0.0002903 -0.0013291 0.0017584 0.0024693 -0.0010059 0.0010771 0.0000405 -0.0010525 0.0001101 -0.0001607 0.0004235 -0.0000544 0.0003756 -0.0002295 0.0001293 0.0007567 0.0001755 0.0009075
-0.0013565 -0.0023242 -0.0000355 -0.0016111 0.0022223 0.0023458 -0.0011757 0.0013932 0.0000478 -0.0011064 0.0001001 -0.0002850 0.0004032 -0.0001817 0.0003522 -0.0004545 0.0000656 0.0004572 0.0001477 0.0006097
-0.0012023 -0.0028918 0.0041122 -0.0058116 0.0054641 -0.0001202 -0.0001379 0.0003640 0.0000659 -0.0013995 0.0001060 -0.0005317 0.0004263 -0.0004170 0.0003779 -0.0007397 0.0000723 0.0002221 0.0001735 0.0003629
-0.0025385 -0.0021094 0.0029381 -0.0050316 0.0041938 0.0007186 0.0004422 -0.0001055 0.0000878 -0.0014343 0.0001267 -0.0005625 0.0004933 -0.0003948 0.0004362 -0.0007164 0.0001389 0.0002656 0.0002281 0.0004166
-0.0025659 -0.0019786 0.0015534 -0.0037172 0.0029088 0.0017217 0.0010310 -0.0003272 0.0001036 -0.0013071 0.0001321 -0.0004927 0.0005191 -0.0003087 0.0004484 -0.0005829 0.0001705 0.0004003 0.0002461 0.0005866
-0.0020846 -0.0022293 0.0007557 -0.0032706 0.0026869 0.0018565 0.0025558 -0.0014756 0.0001024 -0.0012039 0.0001253 -0.0004514 0.0005009 -0.0003397 0.0004316 -0.0006529 0.0001763 0.0003396 0.0002199 0.0004330
-0.0015968 -0.0019744 -0.0054123 0.0017519 -0.0008101 0.0041845 0.0029203 -0.0018410 0.0000927 -0.0013749 0.0001194 -0.0005848 0.0004860 -0.0005658 0.0004409 -0.0009510 0.0002063 0.0000642 0.0002236 0.0000424
0.0002766 -0.0033840 -0.0056774 0.0017886 -0.0011835 0.0038368 0.0023793 -0.0016613 0.0001103 -0.0015975 0.0001284 -0.0007336 0.0005065 -0.0007545 0.0004755 -0.0010898 0.0002331 -0.0000025 0.0002516 -0.0000486
0.0011053 -0.0037982 -0.0101357 0.0051068 -0.0023599 0.0047123 0.0024093 -0.0016912 0.0001459 -0.0015820 0.0001404 -0.0007415 0.0005340 -0.0007815 0.0005076 -0.0010398 0.0002568 0.0000611 0.0002806 0.0000763
0.0018586 -0.0041978 -0.0135188 0.0077007 -0.0044263 0.0065974 0.0011239 -0.0006826 0.0001634 -0.0014315 0.0001389 -0.0006674 0.0005332 -0.0006839 0.0005230 -0.0008909 0.0002622 0.0002114 0.0003089 0.0002778
0.0047499 -0.0073268 -0.0084448 0.0034061 -0.0029198 0.0052959 0.0013599 -0.0008571 0.0001635 -0.0013868 0.0001257 -0.0006914 0.0005124 -0.0007196 0.0005158 -0.0009943 0.0002610 0.0000750 0.0002803 0.0001026
0.0039132 -0.0067334 -0.0056465 0.0017506 -0.0009103 0.0038150 0.0000195 -0.0000653 0.0001733 -0.0015374 0.0001174 -0.0008340 0.0005275 -0.0009094 0.0005339 -0.0012478 0.0002815 -0.0002128 0.0002701 -0.0002237
0.0023007 -0.0050595 -0.0023532 -0.0008086 0.0018880 0.0018685 -0.0016645 0.0009981 0.0002161 -0.0015173 0.0001244 -0.0008672 0.0005570 -0.0009226 0.0005721 -0.0012351 0.0002704 -0.0001758 0.0003044 -0.0002052
0.0026399 -0.0058189 0.0023469 -0.0055111 0.0045135 -0.0001426 -0.0004294 0.0003117 0.0002569 -0.0013265 0.0001319 -0.0007974 0.0005826 -0.0007780 0.0005887 -0.0011015 0.0002609 -0.0000964 0.0003270 -0.0000756
-0.0003511 -0.0038232 0.0030686 -0.0058110 0.0044837 0.0001570 -0.0001927 0.0002938 0.0002514 -0.0011527 0.0001325 -0.0007135 0.0006269 -0.0006020 0.0006069 -0.0010067 0.0002414 -0.0002181 0.0003194 -0.0001020
-0.0009406 -0.0043254 0.0020788 -0.0058041 0.0036635 0.0008432 -0.0001022 0.0000715 0.0002716 -0.0011650 0.0001290 -0.0008017 0.0006455 -0.0006274 0.0006140 -0.0011642 0.0002206 -0.0004277 0.0003000 -0.0003198
-0.0040559 -0.0025471 0.0023128 -0.0062284 0.0051734 -0.0000822 0.0005201 -0.0003497 0.0002864 -0.0013425 0.0001245 -0.0009566 0.0006275 -0.0008108 0.0006263 -0.0013424 0.0002601 -0.0004243 0.0003314 -0.0004171
-0.0071366 0.0003272 -0.0006425 -0.0022555 0.0043176 0.0004591 0.0006430 -0.0005088 0.0002629 -0.0013836 0.0001156 -0.0009611 0.0006195 -0.0008532 0.0006422 -0.0012554 0.0002999 -0.0003493 0.0003917 -0.0003131
-0.0047125 -0.0020505 -0.0004257 -0.0023112 0.0030189 0.0012775 0.0008952 -0.0006917 0.0002694 -0.0011978 0.0001060 -0.0008731 0.0006261 -0.0007213 0.0006359 -0.0010369 0.0002846 -0.0002747 0.0004153 -0.0001153
-0.0036347 -0.0034504 -0.0045962 0.0001082 -0.0002651 0.0040920 0.0015475 -0.0008473 0.0002841 -0.0010208 0.0000954 -0.0008317 0.0006185 -0.0006856 0.0006367 -0.0010483 0.0002653 -0.0003288 0.0003901 -0.0002771
-0.0017568 -0.0047140 -0.0105180 0.0031803 -0.0022233 0.0049725 0.0014560 -0.0009503 0.0003057 -0.0010723 0.0000730 -0.0010095 0.0006165 -0.0008535 0.0006705 -0.0011844 0.0002974 -0.0005520 0.0003740 -0.0006237
0.0008654 -0.0066465 -0.0050574 -0.0009097 0.0004865 0.0025805 0.0018363 -0.0013244 0.0003499 -0.0010572 0.0000530 -0.0012084 0.0006520 -0.0009103 0.0007448 -0.0010429 0.0003267 -0.0006458 0.0003989 -0.0005810
0.0019237 -0.0073595 -0.0062335 -0.0003446 -0.0009149 0.0037088 0.0015171 -0.0009420 0.0004005 -0.0008541 0.0000404 -0.0012801 0.0007219 -0.0007877 0.0008252 -0.0007932 0.0003156 -0.0005905 0.0004393 -0.0003777
0.0028558 -0.0063483 -0.0076101 0.0007029 -0.0024948 0.0050813 0.0016628 -0.0007818 0.0003948 -0.0007336 0.0000236 -0.0012713 0.0007620 -0.0006104 0.0008838 -0.0005746 0.0003386 -0.0005241 0.0004556 -0.0002514
0.0036171 -0.0043008 -0.0025659 -0.0011093 -0.0014247 0.0041680 0.0024362 -0.0015203 0.0003370 -0.0009164 0.0000027 -0.0013663 0.0007786 -0.0005312 0.0010411 -0.0001644 0.0003369 -0.0006872 0.0005543 -0.0001588
0.0026413 -0.0020122 -0.0024893 -0.0002070 -0.0000987 0.0025426 0.0009190 -0.0011383 0.0003466 -0.0009706 0.0000619 -0.0011249 0.0008854 -0.0001825 0.0012867 0.0005218 0.0003716 -0.0006267 0.0006760 -0.0000156
0.0039752 0.0004113 -0.0018181 0.0005117 0.0015416 0.0015372 -0.0002957 -0.0004260 0.0003643 -0.0008671 0.0001311 -0.0007801 0.0008996 -0.0000595 0.0012142 0.0003830 0.0004869 -0.0001767 0.0007141 0.0001418
0.0024403 0.0028646 0.0007414 -0.0007110 0.0023165 0.0012940 -0.0004381 -0.0000826 0.0003664 -0.0007525 0.0001245 -0.0007442 0.0008320 -0.0002478 0.0010636 -0.0000035 0.0005040 -0.0000360 0.0007215 0.0002332
-0.0004242 0.0010620 0.0005269 -0.0020630 0.0026427 0.0013367 -0.0010836 0.0006213 0.0004077 -0.0006062 0.0001061 -0.0007853 0.0008104 -0.0002699 0.0010730 -0.0000904 0.0004992 -0.0001791 0.0006967 0.0000769
0.0004877 -0.0030318 0.0009502 -0.0039503 0.0042866 0.0002250 -0.0007000 0.0003396 0.0004122 -0.0007627 0.0000966 -0.0009371 0.0007704 -0.0005024 0.0010297 -0.0004789 0.0005256 -0.0003220 0.0006900 -0.0002116
-0.0018270 -0.0031948 -0.0000975 -0.0038192 0.0044101 -0.0002775 -0.0008837 0.0003192 0.0004141 -0.0008721 0.0001228 -0.0009847 0.0007722 -0.0006851 0.0009798 -0.0007337 0.0004698 -0.0004806 0.0007169 -0.0002414
-0.0040946 -0.0053498 -0.0014007 -0.0039576 0.0040569 0.0005556 -0.0009456 0.0007650 0.0004130 -0.0008397 0.0001500 -0.0009181 0.0007798 -0.0007041 0.0009091 -0.0008344 0.0004162 -0.0004320 0.0007174 -0.0000514
-0.0040911 -0.0075924 0.0027403 -0.0077195 0.0058033 -0.0003740 0.0004374 0.0000184 0.0003544 -0.0008637 0.0001508 -0.0008117 0.0007554 -0.0006850 0.0008625 -0.0008487 0.0004032 -0.0001955 0.0006842 0.0000410
-0.0032486 -0.0071037 0.0004154 -0.0056473 0.0042134 0.0001472 0.0012996 -0.0009127 0.0002750 -0.0011274 0.0001353 -0.0009290 0.0007374 -0.0008994 0.0008429 -0.0010888 0.0004094 -0.0002417 0.0006554 -0.0001907
-0.0026836 -0.0063531 -0.0028898 -0.0028144 0.0017741 0.0015005 0.0016422 -0.0014367 0.0002460 -0.0014647 0.0001321 -0.0011552 0.0007277 -0.0012142 0.0008417 -0.0013881 0.0004535 -0.0003863 0.0006578 -0.0003932
-0.0030570 -0.0044267 -0.0030141 -0.0019627 0.0007938 0.0020763 0.0034691 -0.0028666 0.0002301 -0.0016080 0.0001513 -0.0011881 0.0007179 -0.0013219 0.0008556 -0.0014149 0.0004612 -0.0003761 0.0006761 -0.0003408
-0.0009482 -0.0013521 -0.0078403 0.0034104 -0.0025817 0.0044892 0.0035228 -0.0027501 0.0002213 -0.0015321 0.0001399 -0.0011613 0.0007161 -0.0012538 0.0008814 -0.0011796 0.0005234 -0.0001358 0.0007065 -0.0001506
0.0009063 -0.0040877 -0.0093999 0.0031953 -0.0016169 0.0040544 0.0023426 -0.0017215 0.0003155 -0.0009879 0.0001253 -0.0010081 0.0007474 -0.0009504 0.0008981 -0.0009058 0.0004945 -0.0002326 0.0006864 -0.0001459
0.0004398 -0.0105206 -0.0153975 0.0043258 -0.0019247 0.0048755 0.0020156 -0.0013616 0.0004121 -0.0006798 0.0001132 -0.0009746 0.0007488 -0.0008573 0.0008843 -0.0008847 0.0004171 -0.0005291 0.0006290 -0.0003400
-0.0005062 -0.0105927 -0.0187669 0.0065343 -0.0028282 0.0062269 0.0006203 -0.0002939 0.0004016 -0.0009132 0.0001146 -0.0010344 0.0006822 -0.0010266 0.0008368 -0.0010677 0.0004190 -0.0004518 0.0005983 -0.0003450
0.0025408 -0.0135262 -0.0115300 0.0012570 -0.0002280 0.0046351 0.0002967 -0.0001181 0.0003389 -0.0010588 0.0001464 -0.0008756 0.0006479 -0.0010476 0.0007862 -0.0012113 0.0003806 -0.0003162 0.0005803 -0.0001766
0.0023399 -0.0119005 -0.0054328 -0.0005466 0.0008260 0.0039349 -0.0007734 0.0007658 0.0002544 -0.0010949 0.0001651 -0.0006679 0.0006313 -0.0009744 0.0007492 -0.0012070 0.0004056 -0.0001301 0.0005881 0.0000707
0.0004769 -0.0079677 -0.0006473 -0.0016828 0.0019163 0.0030998 -0.0018980 0.0015897 0.0001847 -0.0010661 0.0001770 -0.0005286 0.0006349 -0.0008824 0.0007130 -0.0012983 0.0004356 -0.0001277 0.0005719 0.0000450
0.0004040 -0.0071425 0.0041554 -0.0055731 0.0051194 0.0005116 -0.0012875 0.0009044 0.0001714 -0.0011945 0.0001903 -0.0006117 0.0006831 -0.0009089 0.0007059 -0.0015139 0.0004558 -0.0002493 0.0005497 -0.0002100
-0.0013399 -0.0042223 0.0031606 -0.0035524 0.0046296 0.0008067 -0.0008034 0.0007037 0.0001891 -0.0013742 0.0002056 -0.0007294 0.0006976 -0.0009878 0.0007451 -0.0015284 0.0004673 -0.0003537 0.0005626 -0.0002325
-0.0021139 -0.0027390 0.0014989 -0.0019293 0.0037552 0.0011969 0.0002782 -0.0001581 0.0002135 -0.0012779 0.0001807 -0.0008035 0.0006955 -0.0009071 0.0008048 -0.0011784 0.0004431 -0.0003858 0.0006003 -0.0000060
-0.0038968 -0.0008964 0.0024084 -0.0035105 0.0048362 0.0001837 0.0020238 -0.0014947 0.0002387 -0.0010387 0.0001559 -0.0007456 0.0007048 -0.0006907 0.0008230 -0.0007979 0.0004720 -0.0001085 0.0006145 0.0003099
-0.0036624 0.0015934 0.0000747 -0.0001496 0.0028093 0.0019073 0.0021696 -0.0011747 0.0002283 -0.0008712 0.0001385 -0.0006558 0.0006870 -0.0006074 0.0008264 -0.0007017 0.0005045 -0.0000439 0.0005724 0.0001659
-0.0017755 0.0015427 -0.0000063 0.0004921 0.0021088 0.0025055 0.0017482 -0.0009102 0.0002568 -0.0008531 0.0000836 -0.0008636 0.0006935 -0.0006128 0.0009521 -0.0003800 0.0004921 -0.0002406 0.0005626 -0.0000806
-0.0004987 -0.0001359 -0.0055383 0.0035204 -0.0027670 0.0058043 0.0022810 -0.0012974 0.0003387 -0.0007625 0.0000432 -0.0010237 0.0007248 -0.0005321 0.0010612 -0.0000013 0.0005076 -0.0002140 0.0005852 0.0000621
0.0010436 -0.0021646 -0.0109139 0.0063853 -0.0060106 0.0080374 0.0020799 -0.0010492 0.0003599 -0.0006106 0.0000379 -0.0009179 0.0007378 -0.0003838 0.0010472 0.0001417 0.0004795 0.0000242 0.0005812 0.0002962
0.0038930 -0.0051891 -0.0094273 0.0049924 -0.0019511 0.0054526 0.0019664 -0.0008349 0.0003408 -0.0004402 0.0000414 -0.0007343 0.0007458 -0.0001706 0.0010141 0.0003450 0.0004430 0.0002713 0.0005760 0.0006441
0.0040344 -0.0042837 -0.0085129 0.0059499 -0.0014582 0.0053901 0.0006324 0.0005012 0.0003067 -0.0003510 0.0000357 -0.0006747 0.0007407 -0.0001375 0.0009686 0.0002662 0.0004057 0.0001507 0.0005306 0.0005723
0.0027920 -0.0048215 -0.0061135 0.0029136 -0.0011746 0.0051109 -0.0003458 0.0011308 0.0003345 -0.0003506 0.0000447 -0.0006842 0.0007631 -0.0000814 0.0009929 0.0002775 0.0003212 -0.0001243 0.0004564 0.0003712
0.0033764 -0.0073133 -0.0015667 -0.0026291 0.0020118 0.0030213 0.0001374 0.0007084 0.0004238 -0.0001560 0.0000413 -0.0006150 0.0008137 0.0002350 0.0011723 0.0010777 0.0003550 -0.0000327 0.0004821 0.0006014
0.0017903 -0.0073464 0.0002142 -0.0050484 0.0036298 0.0022206 -0.0006128 0.0014305 0.0005070 0.0002489 0.0000428 -0.0003804 0.0008400 0.0005676 0.0013042 0.0018746 0.0004529 0.0004016 0.0005646 0.0010077
0.0012021 -0.0104894 -0.0017465 -0.0045325 0.0038584 0.0024541 -0.0008034 0.0017316 0.0005141 0.0005476 0.0000533 -0.0001298 0.0008064 0.0007604 0.0012190 0.0020240 0.0005003 0.0009025 0.0005728 0.0013289
-0.0042642 -0.0095443 -0.0013280 -0.0056660 0.0050080 0.0018471 -0.0001448 0.0014275 0.0004979 0.0006691 0.0000447 -0.0001180 0.0007319 0.0006269 0.0010645 0.0016116 0.0005070 0.0009914 0.0005151 0.0011755
-0.0135524 -0.0083134 -0.0024896 -0.0058549 0.0040808 0.0023961 0.0001005 0.0010209 0.0005046 0.0006340 0.0000376 -0.0002349 0.0006625 0.0003753 0.0009617 0.0011496 0.0005243 0.0008965 0.0004603 0.0008792
-0.0106109 -0.0144637 -0.0014775 -0.0068484 0.0036638 0.0026961 0.0003211 0.0008533 0.0005018 0.0006330 0.0000406 -0.0002399 0.0006289 0.0003156 0.0008862 0.0010207 0.0005274 0.0010414 0.0004648 0.0009687
-0.0130686 -0.0143176 -0.0069272 -0.0030278 0.0022343 0.0042207 0.0009487 0.0010267 0.0005253 0.0008935 0.0000445 -0.0001482 0.0006242 0.0003952 0.0008635 0.0012072 0.0005003 0.0012809 0.0005257 0.0012598
-0.0126818 -0.0163272 -0.0144230 0.0030858 0.0015756 0.0050984 0.0012023 0.0011988 0.0004630 0.0010056 0.0000298 -0.0000405 0.0006111 0.0005512 0.0008594 0.0015567 0.0004729 0.0015552 0.0005362 0.0014501
-0.0044429 -0.0210297 -0.0071949 -0.0020384 0.0028788 0.0039053 0.0017845 0.0004908 0.0003904 0.0008032 0.0000249 -0.0000726 0.0005971 0.0004789 0.0008261 0.0014218 0.0004504 0.0013855 0.0004336 0.0011957
-0.0016479 -0.0224754 -0.0116816 0.0005437 0.0009165 0.0047949 0.0018230 0.0000769 0.0004190 0.0006489 0.0000450 -0.0001658 0.0006222 0.0003252 0.0008230 0.0012172 0.0003993 0.0009690 0.0003634 0.0008402
-0.0005740 -0.0244550 -0.0206978 0.0073098 -0.0008247 0.0060295 0.0013606 0.0005218 0.0004467 0.0006579 0.0000586 -0.0001480 0.0006307 0.0003422 0.0008239 0.0013089 0.0003584 0.0009197 0.0004102 0.0006108
-0.0000250 -0.0260255 -0.0168741 0.0043032 -0.0003526 0.0060937 0.0022784 0.0000767 0.0004594 0.0007983 0.0000613 -0.0000782 0.0006116 0.0004218 0.0008087 0.0014329 0.0003549 0.0011151 0.0004658 0.0005547
-0.0008534 -0.0263671 -0.0182011 0.0050148 -0.0004039 0.0062960 0.0015397 0.0006598 0.0004494 0.0009878 0.0000632 0.0000763 0.0006051 0.0005463 0.0007922 0.0014976 0.0003284 0.0011102 0.0004665 0.0005139
0.0004297 -0.0289787 -0.0169203 0.0049392 0.0011576 0.0051337 0.0004588 0.0012413 0.0003988 0.0007498 0.0000590 -0.0000031 0.0005720 0.0003791 0.0007518 0.0012732 0.0002867 0.0009272 0.0003257 0.0001909
-0.0035791 -0.0253122 -0.0112575 0.0010966 0.0016390 0.0046457 0.0005735 0.0006556 0.0003825 0.0003966 0.0000809 -0.0001332 0.0005737 0.0001599 0.0007185 0.0010847 0.0002172 0.0008284 0.0001861 0.0000375
-0.0076463 -0.0225900 -0.0101345 0.0009926 0.0018706 0.0050806 -0.0002992 0.0012387 0.0004159 0.0004299 0.0001027 -0.0001011 0.0005874 0.0001512 0.0006754 0.0010413 0.0002259 0.0010712 0.0001864 0.0002154
-0.0026335 -0.0282438 -0.0078420 -0.0000147 0.0040598 0.0037683 -0.0003623 0.0015180 0.0004113 0.0005569 0.0000945 -0.0000745 0.0005640 0.0001705 0.0006245 0.0011028 0.0002609 0.0014813 0.0001799 0.0005082
-0.0075276 -0.0246084 -0.0086825 0.0007441 0.0038967 0.0037419 -0.0006010 0.0017700 0.0003624 0.0006207 0.0000728 -0.0000370 0.0005251 0.0001233 0.0006023 0.0010746 0.0002185 0.0013847 0.0001383 0.0004009
-0.0157364 -0.0169714 -0.0095531 0.0016145 0.0035913 0.0039399 -0.0005787 0.0016518 0.0003151 0.0004458 0.0000589 -0.0001087 0.0004911 -0.0000418 0.0005776 0.0008644 0.0002038 0.0011374 0.0001008 0.0000977
-0.0127586 -0.0179918 -0.0021379 -0.0040319 0.0064243 0.0014545 0.0002031 0.0006673 0.0002867 0.0002571 0.0000650 -0.0001519 0.0004966 -0.0001299 0.0005613 0.0007984 0.0002230 0.0011617 0.0000955 0.0000999
-0.0125602 -0.0179723 -0.0040963 -0.0024635 0.0050513 0.0025945 0.0004269 0.0005672 0.0002823 0.0003508 0.0000716 -0.0000475 0.0005139 -0.0000766 0.0005464 0.0008794 0.0002396 0.0013176 0.0001106 0.0002994
-0.0098164 -0.0184509 -0.0074646 0.0005006 0.0028296 0.0043630 0.0009523 0.0005062 0.0002562 0.0005235 0.0000608 0.0001071 0.0004946 0.0000627 0.0005105 0.0010749 0.0002117 0.0015539 0.0000921 0.0005671
-0.0065568 -0.0203844 -0.0080064 0.0003876 0.0025488 0.0042056 0.0025730 -0.0007378 0.0002140 0.0005157 0.0000406 0.0001148 0.0004688 0.0000123 0.0004761 0.0009751 0.0001569 0.0014278 0.0000500 0.0004082
-0.0055670 -0.0198388 -0.0192103 0.0085006 -0.0011353 0.0066755 0.0026118 -0.0007176 0.0001948 0.0003437 0.0000319 -0.0000168 0.0004621 -0.0001710 0.0004622 0.0007322 0.0001558 0.0011680 0.0000447 0.0001086
-0.0031319 -0.0206986 -0.0224161 0.0105674 -0.0016275 0.0069070 0.0020349 -0.0002712 0.0002069 0.0003318 0.0000365 -0.0000295 0.0004603 -0.0001775 0.0004625 0.0007812 0.0001647 0.0011933 0.0000570 0.0001598
-0.0014959 -0.0221970 -0.0206050 0.0084209 -0.0025777 0.0074742 0.0018214 -0.0001830 0.0002161 0.0005116 0.0000374 0.0001083 0.0004586 -0.0000426 0.0004438 0.0009798 0.0001320 0.0013323 0.0000542 0.0003482
-0.0014022 -0.0209071 -0.0191118 0.0086584 -0.0026540 0.0079984 -0.0001277 0.0014546 0.0001972 0.0007581 0.0000262 0.0003106 0.0004090 0.0001491 0.0003934 0.0012018 0.0000902 0.0014939 0.0000129 0.0005491
0.0025041 -0.0243986 -0.0137928 0.0046802 0.0002915 0.0060659 -0.0003263 0.0014624 0.0001677 0.0007625 0.0000159 0.0003547 0.0003528 0.0000776 0.0003331 0.0010253 0.0000746 0.0012899 -0.0000541 0.0003555
0.0003170 -0.0235439 -0.0094187 0.0014407 0.0019130 0.0046282 -0.0013497 0.0020423 0.0001436 0.0005488 0.0000303 0.0003030 0.0003343 -0.0001776 0.0002633 0.0006036 0.0000710 0.0010159 -0.0000841 0.0000707
-0.0032756 -0.0204614 -0.0043211 -0.0009864 0.0033263 0.0034366 -0.0024932 0.0029374 0.0001202 0.0004847 0.0000594 0.0003894 0.0003064 -0.0002470 0.0001958 0.0004368 0.0000501 0.0010652 -0.0000895 0.0001190
-0.0045224 -0.0191132 0.0020646 -0.0065755 0.0054645 0.0016862 -0.0016564 0.0023251 0.0000857 0.0005773 0.0000599 0.0004969 0.0002626 -0.0002021 0.0001445 0.0005108 0.0000151 0.0012266 -0.0001071 0.0002967
-0.0118703 -0.0116217 0.0014154 -0.0054548 0.0049461 0.0025588 -0.0012419 0.0023436 0.0000495 0.0007776 0.0000189 0.0005406 0.0002223 -0.0001392 0.0001222 0.0006276 0.0000169 0.0012025 -0.0001360 0.0002900
-0.0120731 -0.0122694 -0.0012936 -0.0032710 0.0043093 0.0028622 0.0002899 0.0010647 0.0000293 0.0006945 -0.0000195 0.0004108 0.0001849 -0.0002482 0.0000993 0.0005197 0.0000164 0.0009908 -0.0001659 0.0000703
-0.0151726 -0.0117909 -0.0017178 -0.0040644 0.0037547 0.0025984 0.0024043 -0.0008527 0.0000295 0.0005033 -0.0000329 0.0002536 0.0001598 -0.0003693 0.0000807 0.0004332 -0.0000050 0.0009102 -0.0001651 0.0000120
-0.0181941 -0.0091329 -0.0096078 0.0014182 0.0010244 0.0047432 0.0029181 -0.0008870 0.0000489 0.0006433 -0.0000419 0.0002989 0.0001534 -0.0002496 0.0000722 0.0005699 -0.0000220 0.0010239 -0.0001476 0.0001742
-0.0098764 -0.0152538 -0.0113113 0.0023642 0.0014540 0.0045790 0.0023585 -0.0002980 0.0000355 0.0007547 -0.0000457 0.0004365 0.0001370 -0.0001267 0.0000335 0.0005818 -0.0000304 0.0010378 -0.0001580 0.0001887
-0.0043927 -0.0175636 -0.0192250 0.0087445 -0.0021387 0.0070639 0.0024335 -0.0005120 0.0000049 0.0005135 -0.0000233 0.0004206 0.0001265 -0.0002899 0.0000006 0.0001283 -0.0000397 0.0006574 -0.0001633 -0.0002025
-0.0022874 -0.0185078 -0.0314979 0.0174742 -0.0054658 0.0091410 0.0016612 -0.0003584 0.0000019 0.0001440 0.0000280 0.0003472 0.0001592 -0.0004764 0.0000259 -0.0003008 -0.0000310 0.0002613 -0.0001521 -0.0006295
0.0034764 -0.0295738 -0.0239551 0.0099060 -0.0018580 0.0069750 0.0014580 -0.0000886 0.0000554 0.0002064 0.0001014 0.0005132 0.0002934 -0.0001423 0.0000657 -0.0002586 -0.0000780 -0.0000172 -0.0001498 -0.0005908
0.0032446 -0.0371413 -0.0198844 0.0063602 0.0000303 0.0069401 -0.0001641 0.0017631 0.0001252 0.0004513 0.0000882 0.0005997 0.0004994 0.0007121 0.0003463 0.0007903 -0.0000838 -0.0000117 -0.0000437 -0.0001899
0.0001963 -0.0352276 -0.0143250 0.0037344 0.0015276 0.0067792 -0.0019710 0.0030373 0.0000922 0.0003340 0.0000603 0.0006119 0.0006103 0.0010781 0.0005901 0.0013778 -0.0001181 -0.0003875 0.0000410 -0.0002486
0.0018304 -0.0318722 -0.0036967 -0.0033985 0.0045304 0.0044878 -0.0008573 0.0019142 0.0000351 -0.0002839 0.0001328 0.0005247 0.0005495 0.0003529 0.0004221 0.0000700 -0.0001496 -0.0009603 0.0000486 -0.0006714
-0.0047895 -0.0215319 -0.0002098 -0.0043807 0.0053231 0.0032665 -0.0008599 0.0014577 0.0000114 -0.0009262 0.0001466 0.0001428 0.0004246 -0.0005210 0.0002930 -0.0010052 -0.0000259 -0.0009368 0.0001045 -0.0008341
-0.0058984 -0.0218562 -0.0018400 -0.0026272 0.0054624 0.0028038 -0.0006460 0.0006845 0.0000059 -0.0011088 0.0001277 -0.0000097 0.0003789 -0.0007662 0.0003202 -0.0009546 -0.0001329 -0.0014027 0.0001521 -0.0008555
-0.0101272 -0.0227264 -0.0009159 -0.0026598 0.0061524 0.0024480 0.0003756 -0.0001049 0.0000203 -0.0010345 0.0001464 0.0001413 0.0003910 -0.0007041 0.0003071 -0.0009085 -0.0001849 -0.0014879 0.0002026 -0.0007709
-0.0335717 -0.0114184 -0.0055422 0.0014433 0.0043802 0.0037089 0.0010149 -0.0006291 0.0000274 -0.0010989 0.0001587 0.0001612 0.0003846 -0.0008168 0.0003149 -0.0011822 -0.0000916 -0.0014343 0.0002486 -0.0009939
-0.0527440 -0.0021359 -0.0069102 0.0026900 0.0043263 0.0033587 0.0016947 -0.0014288 0.0000488 -0.0013349 0.0001621 -0.0000066 0.0003860 -0.0010599 0.0003352 -0.0014972 -0.0000152 -0.0014881 0.0003218 -0.0011716
-0.0302309 -0.0155741 -0.0117529 0.0073716 0.0015789 0.0054226 0.0020495 -0.0016053 0.0000753 -0.0014097 0.0001596 -0.0001278 0.0004036 -0.0012069 0.0003501 -0.0015973 0.0001107 -0.0012096 0.0003917 -0.0011200
-0.0145348 -0.0297809 -0.0198338 0.0121898 -0.0006842 0.0072108 0.0020344 -0.0014350 0.0000995 -0.0013154 0.0001540 -0.0000606 0.0004204 -0.0011373 0.0003685 -0.0014741 0.0001338 -0.0010785 0.0003996 -0.0010400
0.0005243 -0.0447620 -0.0149922 0.0077052 0.0013462 0.0058230 0.0022497 -0.0015800 0.0000780 -0.0012142 0.0001326 0.0000920 0.0003941 -0.0009917 0.0003413 -0.0012745 0.0001257 -0.0008524 0.0003642 -0.0008497
0.0037088 -0.0443458 -0.0219840 0.0127021 0.0001676 0.0066001 0.0007796 -0.0005631 0.0000237 -0.0012813 0.0001013 0.0000667 0.0003517 -0.0010676 0.0003122 -0.0013580 0.0001146 -0.0008902 0.0003129 -0.0009846
0.0011459 -0.0406456 -0.0252564 0.0144352 -0.0001915 0.0064870 -0.0001044 -0.0000452 0.0000040 -0.0014398 0.0000810 -0.0000693 0.0003328 -0.0012134 0.0003095 -0.0015279 0.0001102 -0.0009384 0.0002714 -0.0011026
0.0000930 -0.0376499 -0.0127932 0.0058830 0.0022763 0.0045400 0.0010370 -0.0011932 -0.0000116 -0.0014641 0.0000626 -0.0001028 0.0003014 -0.0012549 0.0003055 -0.0014970 0.0001001 -0.0007726 0.0002306 -0.0009763
-0.0032310 -0.0328919 -0.0078535 0.0025510 0.0033274 0.0038525 0.0001851 -0.0007741 -0.0000631 -0.0014243 0.0000465 -0.0000610 0.0002515 -0.0012945 0.0002838 -0.0014041 0.0001232 -0.0004498 0.0002112 -0.0007773
-0.0033567 -0.0301753 -0.0059614 0.0018831 0.0041826 0.0036571 -0.0003834 -0.0000593 -0.0001191 -0.0013110 0.0000386 0.0000202 0.0002043 -0.0012451 0.0002378 -0.0013721 0.0001468 -0.0002221 0.0001938 -0.0006504
-0.0083688 -0.0198433 -0.0045020 0.0025244 0.0050626 0.0027526 0.0002872 -0.0005274 -0.0001601 -0.0014736 0.0000303 -0.0000931 0.0001620 -0.0013914 0.0001884 -0.0016407 0.0001187 -0.0003464 0.0001589 -0.0007365
-0.0124873 -0.0126545 -0.0043033 0.0032651 0.0042977 0.0028230 -0.0005269 -0.0002758 -0.0002051 -0.0018694 0.0000263 -0.0003152 0.0001059 -0.0016356 0.0001597 -0.0018794 0.0001183 -0.0004901 0.0001673 -0.0007979
-0.0090511 -0.0137495 -0.0016213 0.0012674 0.0040680 0.0029401 -0.0007890 -0.0002541 -0.0002198 -0.0019276 0.0000302 -0.0003509 0.0000828 -0.0015934 0.0001480 -0.0017650 0.0001245 -0.0003325 0.0001980 -0.0006141
-0.0129142 -0.0104999 -0.0028316 0.0025535 0.0030839 0.0036735 -0.0001771 -0.0005636 -0.0002320 -0.0017882 0.0000331 -0.0002653 0.0000879 -0.0014531 0.0001326 -0.0015575 0.0001132 -0.0000707 0.0001825 -0.0003420
-0.0134189 -0.0093255 -0.0049656 0.0046729 0.0022632 0.0046293 0.0004978 -0.0006059 -0.0002571 -0.0017212 0.0000243 -0.0002675 0.0000841 -0.0014331 0.0000946 -0.0015870 0.0001144 -0.0001749 0.0001238 -0.0004214
-0.0077729 -0.0133003 -0.0013654 0.0016908 0.0031867 0.0038982 0.0012303 -0.0012285 -0.0002514 -0.0018699 0.0000213 -0.0004370 0.0000915 -0.0015818 0.0000716 -0.0018039 0.0000928 -0.0004312 0.0001036 -0.0006637
-0.0072573 -0.0151404 -0.0045795 0.0029484 0.0017140 0.0046194 0.0007399 -0.0011421 -0.0002315 -0.0019821 0.0000307 -0.0005456 0.0001131 -0.0016327 0.0000823 -0.0018269 0.0000814 -0.0004992 0.0001353 -0.0006824
-0.0062398 -0.0154581 -0.0075915 0.0051208 0.0004882 0.0055784 0.0007995 -0.0008816 -0.0002068 -0.0018729 0.0000386 -0.0005078 0.0001366 -0.0015173 0.0001048 -0.0016923 0.0000919 -0.0004777 0.0001328 -0.0005130
-0.0045867 -0.0136235 -0.0068480 0.0050243 0.0009433 0.0055213 0.0026778 -0.0021982 -0.0001838 -0.0017132 0.0000430 -0.0004613 0.0001579 -0.0014186 0.0001255 -0.0016470 0.0000631 -0.0005377 0.0001170 -0.0005135
-0.0044103 -0.0132355 -0.0098237 0.0066925 0.0001875 0.0060944 0.0022408 -0.0019812 -0.0001398 -0.0017279 0.0000530 -0.0006309 0.0001982 -0.0015089 0.0001509 -0.0018710 0.0000334 -0.0008855 0.0001505 -0.0008040
-0.0015194 -0.0171196 -0.0095476 0.0053288 0.0014180 0.0052043 0.0008006 -0.0009091 -0.0000739 -0.0019067 0.0000826 -0.0008803 0.0002889 -0.0015720 0.0002204 -0.0020775 0.0000505 -0.0011752 0.0001947 -0.0009622
-0.0029501 -0.0150911 -0.0082008 0.0045041 0.0024779 0.0044932 0.0008859 -0.0010832 -0.0000294 -0.0019705 0.0001032 -0.0009495 0.0003482 -0.0015721 0.0002713 -0.0020680 0.0000885 -0.0012514 0.0002232 -0.0009087
-0.0048066 -0.0132002 -0.0077373 0.0058621 0.0020240 0.0051954 -0.0001636 -0.0000012 -0.0000240 -0.0018988 0.0000972 -0.0009211 0.0003231 -0.0015872 0.0002688 -0.0019833 0.0000803 -0.0012695 0.0002427 -0.0007512
-0.0003820 -0.0174998 -0.0048174 0.0036658 0.0034090 0.0045591 -0.0004204 0.0005070 -0.0000279 -0.0017994 0.0000907 -0.0009133 0.0003086 -0.0016059 0.0002684 -0.0020592 0.0000121 -0.0014203 0.0002219 -0.0008114
-0.0031988 -0.0154799 -0.0022721 0.0016594 0.0036699 0.0044102 -0.0013101 0.0009355 -0.0000418 -0.0019786 0.0000839 -0.0010884 0.0003157 -0.0018253 0.0002767 -0.0023487 -0.0000070 -0.0016780 0.0002157 -0.0010669
-0.0051367 -0.0092923 -0.0001544 0.0014113 0.0029435 0.0049094 -0.0016924 0.0011635 -0.0000573 -0.0022053 0.0000777 -0.0012544 0.0003194 -0.0020161 0.0002901 -0.0024781 -0.0000012 -0.0017305 0.0002297 -0.0010743
-0.0038284 -0.0059517 0.0040397 -0.0013375 0.0058890 0.0027038 -0.0003247 0.0003659 -0.0000636 -0.0022162 0.0000722 -0.0012928 0.0003394 -0.0020572 0.0003122 -0.0024269 -0.0000351 -0.0016496 0.0002446 -0.0008960
-0.0062584 -0.0037578 0.0024797 0.0001763 0.0057814 0.0029787 0.0009731 -0.0003261 -0.0000941 -0.0021787 0.0000566 -0.0012945 0.0003688 -0.0020241 0.0003257 -0.0023127 -0.0000277 -0.0015371 0.0002620 -0.0006771
-0.0055981 -0.0042466 -0.0002827 0.0025528 0.0041098 0.0042405 0.0021861 -0.0011046 -0.0001222 -0.0020191 0.0000345 -0.0012045 0.0003778 -0.0019208 0.0003143 -0.0022347 -0.0000383 -0.0015009 0.0002330 -0.0006341
-0.0048462 -0.0053053 -0.0007516 0.0023303 0.0034880 0.0045083 0.0028921 -0.0018401 -0.0001359 -0.0020793 0.0000169 -0.0012870 0.0003624 -0.0020257 0.0002954 -0.0023969 -0.0000636 -0.0016745 0.0002013 -0.0008544
-0.0041822 -0.0056117 -0.0052742 0.0056414 0.0006362 0.0066215 0.0026745 -0.0016121 -0.0001431 -0.0023054 0.0000099 -0.0014486 0.0003519 -0.0022231 0.0002910 -0.0025599 -0.0000526 -0.0017408 0.0002014 -0.0009219
-0.0016189 -0.0082085 -0.0063207 0.0061150 0.0014396 0.0060819 0.0025374 -0.0015221 -0.0001466 -0.0023247 0.0000079 -0.0014550 0.0003443 -0.0022392 0.0002931 -0.0024981 -0.0000426 -0.0015949 0.0001991 -0.0007293
-0.0013260 -0.0094413 -0.0088453 0.0073715 0.0004706 0.0065362 0.0024125 -0.0014345 -0.0001548 -0.0021476 -0.0000004 -0.0013589 0.0003436 -0.0020927 0.0002817 -0.0022782 -0.0000554 -0.0013889 0.0001954 -0.0004434
-0.0011838 -0.0080540 -0.0100528 0.0090091 -0.0008971 0.0077367 0.0007522 0.0000582 -0.0001949 -0.0019455 -0.0000161 -0.0011595 0.0003073 -0.0018877 0.0002411 -0.0019889 -0.0000655 -0.0010995 0.0001612 -0.0001357
0.0022973 -0.0096844 -0.0054887 0.0062788 0.0013648 0.0063007 0.0003890 0.0001793 -0.0002501 -0.0019108 -0.0000402 -0.0010888 0.0002516 -0.0018979 0.0002012 -0.0020177 -0.0000485 -0.0010746 0.0001052 -0.0001955
0.0013925 -0.0081034 -0.0018606 0.0042783 0.0029031 0.0050644 -0.0006860 0.0005987 -0.0002974 -0.0020774 -0.0000560 -0.0011942 0.0002284 -0.0020675 0.0001905 -0.0022357 -0.0000508 -0.0012018 0.0000675 -0.0004540
-0.0002599 -0.0062451 0.0012530 0.0026186 0.0046862 0.0035212 -0.0015839 0.0010991 -0.0003305 -0.0022104 -0.0000497 -0.0012283 0.0002076 -0.0021272 0.0001853 -0.0022263 -0.0000279 -0.0011324 0.0000595 -0.0004107
-0.0006164 -0.0058119 0.0046005 -0.0001369 0.0070731 0.0016449 -0.0005402 0.0004368 -0.0003492 -0.0021496 -0.0000438 -0.0011445 0.0001853 -0.0020613 0.0001694 -0.0020835 0.0000081 -0.0009308 0.0000703 -0.0001772
-0.0051236 -0.0012050 0.0046119 0.0005048 0.0065864 0.0023380 -0.0001039 0.0003580 -0.0003875 -0.0020097 -0.0000509 -0.0010269 0.0001565 -0.0019506 0.0001338 -0.0019125 -0.0000047 -0.0006795 0.0000778 0.0000784
-0.0053995 -0.0011700 0.0030746 0.0016078 0.0053759 0.0031966 0.0003876 -0.0000396 -0.0004321 -0.0019053 -0.0000616 -0.0009697 0.0001335 -0.0019152 0.0000892 -0.0019396 -0.0000147 -0.0007120 0.0000516 -0.0000166
-0.0050974 -0.0020587 0.0016116 0.0019937 0.0055020 0.0027203 0.0017975 -0.0013349 -0.0004586 -0.0020272 -0.0000643 -0.0010512 0.0001262 -0.0020171 0.0000740 -0.0021249 0.0000036 -0.0008918 0.0000082 -0.0002701
-0.0055262 -0.0003593 -0.0019387 0.0052091 0.0035043 0.0039762 0.0026391 -0.0019594 -0.0004734 -0.0021347 -0.0000589 -0.0010941 0.0001346 -0.0020362 0.0000827 -0.0021110 -0.0000023 -0.0008207 0.0000126 -0.0002669
-0.0025456 -0.0016626 -0.0015466 0.0050264 0.0025501 0.0043179 0.0024256 -0.0016790 -0.0004843 -0.0020180 -0.0000546 -0.0010048 0.0001444 -0.0019019 0.0000821 -0.0019155 0.0000096 -0.0006055 0.0000086 -0.0000701
-0.0003643 -0.0019777 -0.0047463 0.0081271 -0.0002898 0.0061662 0.0024715 -0.0015634 -0.0005033 -0.0018340 -0.0000609 -0.0008469 0.0001340 -0.0017061 0.0000745 -0.0016505 0.0000422 -0.0003385 -0.0000204 0.0002265
0.0014155 -0.0015270 -0.0066259 0.0103552 -0.0016433 0.0071915 0.0013280 -0.0006391 -0.0005334 -0.0017289 -0.0000738 -0.0007635 0.0001077 -0.0016558 0.0000636 -0.0016501 0.0000568 -0.0003888 -0.0000594 0.0001006
0.0042656 -0.0035810 -0.0036334 0.0081391 0.0001644 0.0057685 0.0010164 -0.0005907 -0.0005614 -0.0018368 -0.0000758 -0.0008434 0.0000936 -0.0017952 0.0000639 -0.0018646 0.0000621 -0.0006778 -0.0000831 -0.0002486
0.0036402 -0.0029511 -0.0026150 0.0078417 0.0007375 0.0056394 -0.0000410 0.0000823 -0.0005705 -0.0019134 -0.0000642 -0.0008865 0.0001189 -0.0018615 0.0000845 -0.0018850 0.0000887 -0.0006974 -0.0000459 -0.0002753
0.0017044 -0.0021719 0.0007342 0.0052532 0.0022913 0.0043401 -0.0015477 0.0010446 -0.0005840 -0.0017931 -0.0000596 -0.0007970 0.0001289 -0.0017703 0.0000921 -0.0017262 0.0001117 -0.0004812 -0.0000266 -0.0000748
0.0015996 -0.0033279 0.0052866 0.0012304 0.0055583 0.0017026 -0.0010742 0.0008365 -0.0006137 -0.0015851 -0.0000679 -0.0006376 0.0001200 -0.0015773 0.0000760 -0.0014800 0.0001015 -0.0001992 -0.0000205 0.0002229
-0.0013860 -0.0009815 0.0054077 0.0013853 0.0056073 0.0021481 -0.0011596 0.0014264 -0.0006528 -0.0013110 -0.0000850 -0.0004459 0.0000975 -0.0013569 0.0000512 -0.0013120 0.0000959 -0.0000597 -0.0000172 0.0003127
-0.0020572 -0.0013114 0.0042101 0.0021088 0.0045159 0.0028720 -0.0005024 0.0008350 -0.0006850 -0.0013160 -0.0001013 -0.0004787 0.0000570 -0.0014235 0.0000215 -0.0014745 0.0001038 -0.0002501 -0.0000515 0.0000668
-0.0056965 0.0002442 0.0044735 0.0014701 0.0056490 0.0017394 0.0009061 -0.0007082 -0.0006912 -0.0015114 -0.0001053 -0.0006371 0.0000525 -0.0016273 0.0000182 -0.0016797 0.0001078 -0.0004036 -0.0000643 -0.0001378
-0.0097712 0.0023544 0.0018537 0.0032989 0.0034907 0.0032825 0.0012543 -0.0009646 -0.0007053 -0.0014720 -0.0001045 -0.0006071 0.0000616 -0.0016096 0.0000227 -0.0016220 0.0001080 -0.0002674 -0.0000372 -0.0000435
-0.0064995 -0.0003580 0.0017291 0.0033494 0.0027770 0.0037659 0.0013007 -0.0006617 -0.0007446 -0.0013070 -0.0001146 -0.0004882 0.0000468 -0.0015101 -0.0000136 -0.0014564 0.0001140 -0.0000459 -0.0000366 0.0002075
-0.0045178 -0.0003032 -0.0031358 0.0078882 0.0004669 0.0058787 0.0014465 -0.0005772 -0.0007928 -0.0011076 -0.0001364 -0.0003421 0.0000215 -0.0013692 -0.0000553 -0.0012433 0.0000994 0.0002026 -0.0000555 0.0004875
-0.0021193 -0.0015678 -0.0074255 0.0105668 -0.0019358 0.0076691 0.0008801 0.0000563 -0.0008417 -0.0008588 -0.0001655 -0.0001588 -0.0000103 -0.0011577 -0.0000998 -0.0009818 0.0000564 0.0004763 -0.0000881 0.0008010
0.0020887 -0.0053401 -0.0036719 0.0075657 0.0004652 0.0058830 0.0011840 -0.0001144 -0.0008884 -0.0007798 -0.0001992 -0.0001191 -0.0000481 -0.0011457 -0.0001436 -0.0010576 0.0000143 0.0003544 -0.0001683 0.0006442
0.0033114 -0.0055340 -0.0034827 0.0082046 0.0005347 0.0057133 0.0001403 0.0004063 -0.0009259 -0.0009214 -0.0002227 -0.0002429 -0.0000601 -0.0013362 -0.0001509 -0.0013627 0.0000026 0.0000023 -0.0002151 0.0002400
0.0025018 -0.0049660 -0.0025671 0.0070417 0.0002716 0.0054237 -0.0010716 0.0011420 -0.0009464 -0.0009600 -0.0002311 -0.0002868 -0.0000788 -0.0013601 -0.0001443 -0.0014011 0.0000124 -0.0000485 -0.0002248 0.0002599
0.0020912 -0.0052067 0.0000484 0.0044691 0.0030170 0.0034765 -0.0003193 0.0007034 -0.0009601 -0.0008234 -0.0002378 -0.0002025 -0.0000917 -0.0012179 -0.0001456 -0.0012474 0.0000126 0.0000850 -0.0002120 0.0004569
-0.0006591 -0.0030762 0.0013847 0.0034202 0.0049455 0.0022571 -0.0009465 0.0013028 -0.0009873 -0.0006118 -0.0002528 -0.0000371 -0.0000894 -0.0010140 -0.0001530 -0.0010080 -0.0000154 0.0003087 -0.0001904 0.0007126
-0.0004380 -0.0037683 0.0016225 0.0033104 0.0045933 0.0029647 -0.0014047 0.0018786 -0.0010209 -0.0003079 -0.0002744 0.0001738 -0.0001216 -0.0007313 -0.0001798 -0.0006992 -0.0000474 0.0005728 -0.0002094 0.0010242
-0.0039794 -0.0017080 0.0027408 0.0026163 0.0045217 0.0034475 -0.0006357 0.0016476 -0.0010472 0.0000874 -0.0002964 0.0004183 -0.0001431 -0.0004278 -0.0002189 -0.0005021 -0.0000748 0.0005731 -0.0002862 0.0009846
-0.0117970 -0.0017629 0.0011095 0.0002771 0.0038315 0.0042837 -0.0002504 0.0014371 -0.0010188 0.0003401 -0.0002858 0.0005228 -0.0000713 -0.0001251 -0.0002336 -0.0006063 -0.0002373 -0.0000529 -0.0004216 0.0004602
-0.0124698 -0.0130890 -0.0014877 -0.0028155 0.0040806 0.0046716 -0.0001017 0.0013549 -0.0009881 0.0003465 -0.0002578 0.0005356 0.0000296 0.0001553 -0.0002124 -0.0006524 -0.0003903 -0.0005283 -0.0004487 0.0002798
-0.0165487 -0.0148907 -0.0078016 0.0025385 0.0022179 0.0063512 -0.0000299 0.0013791 -0.0010238 0.0003115 -0.0002782 0.0005468 0.0000015 0.0001220 -0.0001776 -0.0004602 -0.0002994 -0.0001329 -0.0004059 0.0005360
-0.0141037 -0.0137767 -0.0113511 0.0069087 0.0008312 0.0076947 0.0001416 0.0012961 -0.0010680 0.0004101 -0.0003343 0.0005001 -0.0000917 -0.0000390 -0.0001759 -0.0001902 -0.0001959 0.0004286 -0.0003886 0.0008257
-0.0034580 -0.0198173 -0.0073069 0.0053082 0.0023984 0.0066364 0.0010598 0.0006645 -0.0010786 0.0007012 -0.0003710 0.0005545 -0.0001174 0.0001013 -0.0001831 0.0001219 -0.0001764 0.0006975 -0.0003368 0.0012667
-0.0008524 -0.0198800 -0.0099267 0.0081812 0.0007579 0.0076118 0.0008094 0.0011968 -0.0010853 0.0010620 -0.0003934 0.0007334 -0.0001074 0.0003789 -0.0001937 0.0004215 -0.0001916 0.0010150 -0.0003286 0.0017282
-0.0013412 -0.0154279 -0.0100033 0.0091135 -0.0000929 0.0085328 0.0000136 0.0020417 -0.0011211 0.0011008 -0.0004045 0.0007858 -0.0001390 0.0003380 -0.0002385 0.0001946 -0.0002026 0.0009700 -0.0004344 0.0015611
-0.0000421 -0.0126814 -0.0046514 0.0059219 0.0013334 0.0074649 0.0003638 0.0014022 -0.0011472 0.0008473 -0.0004009 0.0006864 -0.0001771 0.0000827 -0.0002675 -0.0002629 -0.0001954 0.0006877 -0.0005122 0.0011676
-0.0010237 -0.0100849 -0.0027641 0.0045307 0.0016079 0.0065337 -0.0002227 0.0015369 -0.0011591 0.0007084 -0.0003920 0.0006939 -0.0001949 0.0000257 -0.0002743 -0.0003503 -0.0002070 0.0007615 -0.0005200 0.0012130
-0.0004028 -0.0087250 -0.0014311 0.0043985 0.0022595 0.0060909 -0.0005250 0.0018973 -0.0011823 0.0007105 -0.0003762 0.0008505 -0.0002210 0.0001609 -0.0002989 -0.0002465 -0.0002550 0.0009104 -0.0005548 0.0013788
-0.0028133 -0.0046901 0.0001862 0.0041379 0.0033076 0.0055859 -0.0002148 0.0018900 -0.0012054 0.0007683 -0.0003706 0.0010308 -0.0002345 0.0003426 -0.0003238 -0.0000908 -0.0003207 0.0010363 -0.0005769 0.0015922
-0.0041493 -0.0017313 0.0006254 0.0044164 0.0033757 0.0054694 -0.0012470 0.0026740 -0.0012187 0.0007554 -0.0003804 0.0010347 -0.0002573 0.0003742 -0.0003389 -0.0002187 -0.0003611 0.0008688 -0.0005676 0.0014543
-0.0010849 -0.0015751 0.0027182 0.0030797 0.0042973 0.0046043 -0.0013146 0.0024782 -0.0012273 0.0005189 -0.0003896 0.0008658 -0.0002714 0.0002460 -0.0003462 -0.0004551 -0.0003417 0.0006673 -0.0005441 0.0012047
-0.0027977 0.0004583 0.0018237 0.0038876 0.0038086 0.0048736 -0.0011228 0.0024504 -0.0011925 0.0004071 -0.0003768 0.0007905 -0.0002440 0.0002174 -0.0003139 -0.0004497 -0.0003065 0.0007253 -0.0005020 0.0012888
-0.0036792 0.0015046 0.0007582 0.0050909 0.0024556 0.0060322 -0.0010509 0.0027871 -0.0011505 0.0005447 -0.0003639 0.0008683 -0.0002250 0.0003486 -0.0003025 -0.0002708 -0.0003009 0.0008591 -0.0004606 0.0015072
-0.0009877 -0.0002111 0.0028493 0.0037852 0.0038583 0.0049995 0.0002388 0.0018805 -0.0011469 0.0006802 -0.0003698 0.0009987 -0.0002314 0.0004889 -0.0003163 -0.0000373 -0.0002761 0.0011299 -0.0004567 0.0018042
0.0000503 -0.0014651 0.0005600 0.0052762 0.0026462 0.0056407 0.0008607 0.0013573 -0.0011546 0.0006327 -0.0003779 0.0009683 -0.0002373 0.0003812 -0.0003089 -0.0001827 -0.0002695 0.0010263 -0.0004866 0.0015960
-0.0002644 -0.0005699 -0.0017203 0.0070655 0.0005120 0.0070388 0.0008917 0.0012552 -0.0011483 0.0003763 -0.0003717 0.0007622 -0.0002340 0.0001177 -0.0002837 -0.0005405 -0.0002706 0.0006904 -0.0005021 0.0011492
0.0009127 -0.0009024 -0.0014457 0.0067830 0.0008825 0.0066980 0.0016397 0.0005575 -0.0011126 0.0002389 -0.0003409 0.0006492 -0.0002029 0.0000269 -0.0002334 -0.0006033 -0.0002436 0.0006900 -0.0004616 0.0011233
0.0018849 -0.0013461 -0.0027321 0.0075726 -0.0002248 0.0071458 0.0011228 0.0008342 -0.0010772 0.0002957 -0.0003163 0.0006733 -0.0001713 0.0000821 -0.0001942 -0.0004779 -0.0002133 0.0007804 -0.0004299 0.0012620
0.0019963 -0.0024509 -0.0024549 0.0072290 0.0007496 0.0064763 0.0004138 0.0014012 -0.0010517 0.0004617 -0.0003095 0.0007715 -0.0001734 0.0002231 -0.0001871 -0.0003423 -0.0001870 0.0008661 -0.0004232 0.0013241
0.0004584 -0.0017647 -0.0009198 0.0057289 0.0013523 0.0059527 0.0004103 0.0012378 -0.0010357 0.0003707 -0.0003026 0.0006857 -0.0001856 0.0001075 -0.0001810 -0.0005397 -0.0001796 0.0006594 -0.0004089 0.0010507
-0.0004356 0.0008255 0.0003142 0.0060646 0.0009309 0.0062433 -0.0007921 0.0019187 -0.0010308 0.0000696 -0.0002850 0.0004681 -0.0001955 -0.0001449 -0.0001539 -0.0008273 -0.0001656 0.0003562 -0.0003695 0.0007911
0.0012308 0.0000696 0.0017552 0.0051727 0.0027131 0.0048853 -0.0010617 0.0020884 -0.0010045 0.0000058 -0.0002592 0.0004178 -0.0001666 -0.0001707 -0.0001199 -0.0008169 -0.0001250 0.0003628 -0.0003065 0.0008491
-0.0005191 0.0005749 0.0018692 0.0046027 0.0024320 0.0051323 -0.0016171 0.0024317 -0.0009750 0.0001169 -0.0002383 0.0004828 -0.0001156 -0.0000735 -0.0000917 -0.0006657 -0.0001001 0.0004468 -0.0002633 0.0010213
-0.0027839 0.0020369 0.0020949 0.0045999 0.0019813 0.0058736 -0.0018644 0.0027924 -0.0009725 0.0002326 -0.0002335 0.0005622 -0.0000989 0.0000060 -0.0000930 -0.0006370 -0.0001268 0.0004063 -0.0002558 0.0009602
-0.0022087 0.0013898 0.0045911 0.0021885 0.0050847 0.0035115 -0.0008597 0.0019738 -0.0009670 0.0000494 -0.0002303 0.0004461 -0.0000851 -0.0001426 -0.0000792 -0.0008604 -0.0001411 0.0001920 -0.0002365 0.0006432
