-0.0000000 -0.0000000 -0.0000000 -0.0000000 -0.0000000 -0.0000000 -0.0000000 -0.0000000 -0.0000000 -0.0000000 -0.0000000 -0.0000000 -0.0000000 -0.0000000 -0.0000000 -0.0000000 -0.0000000 -0.0000000 -0.0000000 -0.0000000
-0.0000000 -0.0000000 -0.0000000 -0.0000000 -0.0000000 -0.0000000 -0.0000000 -0.0000000 -0.0000000 -0.0000000 -0.0000000 -0.0000000 -0.0000000 -0.0000000 -0.0000000 -0.0000000 -0.0000000 -0.0000000 -0.0000000 -0.0000000
0.0000309 0.0000352 -0.0000109 -0.0000467 0.0000595 0.0002235 0.0000080 -0.0000153 -0.0000250 -0.0000995 0.0000477 0.0001014 -0.0000714 0.0000907 0.0000220 0.0000642 -0.0000062 0.0000689 -0.0000602 0.0000839
-0.0000026 0.0001477 0.0000197 0.0000991 0.0000408 0.0002145 -0.0000426 0.0000720 -0.0000557 -0.0000277 0.0001159 0.0003086 -0.0001026 0.0002876 0.0000441 0.0002619 -0.0000510 0.0003191 0.0001096 0.0002935
-0.0000798 0.0003979 0.0000121 0.0005296 0.0001003 0.0007700 -0.0000707 0.0004572 -0.0001916 0.0000646 0.0001926 0.0007671 0.0000095 0.0003621 0.0000684 0.0004809 -0.0001453 0.0005431 0.0002102 0.0004436
-0.0002249 0.0004570 -0.0000433 0.0007536 0.0001118 0.0010996 -0.0000477 0.0006766 -0.0002811 0.0000802 0.0001902 0.0008012 0.0001176 0.0002003 0.0000814 0.0004589 -0.0001205 0.0003923 0.0003569 -0.0002435
-0.0002518 0.0000874 -0.0000927 0.0003432 -0.0000662 0.0003981 -0.0000638 0.0002496 -0.0001591 0.0000470 0.0000301 0.0000832 0.0002404 -0.0002481 0.0000545 0.0001877 0.0000199 0.0001901 0.0002808 -0.0008156
-0.0001073 -0.0003842 -0.0000641 0.0000665 -0.0001767 -0.0003556 -0.0000907 -0.0000186 -0.0000278 0.0001136 -0.0000867 -0.0003919 0.0001989 -0.0003752 0.0000450 0.0000790 0.0001085 0.0003030 -0.0002492 -0.0001959
-0.0000467 -0.0005388 -0.0000257 0.0001245 -0.0002100 -0.0007660 -0.0000810 0.0000878 0.0000036 0.0002041 -0.0000952 -0.0003414 0.0000326 -0.0001237 0.0000317 0.0001011 0.0001473 0.0003939 -0.0003328 0.0000971
-0.0000898 -0.0005271 0.0000025 0.0000182 -0.0002328 -0.0009196 -0.0001332 0.0000390 0.0000413 0.0001867 -0.0001609 -0.0005784 -0.0001058 -0.0002230 0.0000023 -0.0001562 0.0002295 0.0000926 -0.0001675 -0.0006026
-0.0001720 -0.0006924 0.0000203 -0.0003011 -0.0002336 -0.0011081 -0.0000885 -0.0002882 0.0000742 0.0000582 -0.0002340 -0.0009424 -0.0001357 -0.0004814 -0.0000397 -0.0003581 0.0002088 -0.0000809 -0.0000009 -0.0010991
-0.0002777 -0.0006563 0.0000127 -0.0003695 -0.0002349 -0.0011188 -0.0000279 -0.0003936 0.0000722 0.0000779 -0.0002308 -0.0008961 -0.0001342 -0.0004074 -0.0000562 -0.0002611 0.0001645 0.0001249 0.0002986 -0.0009005
-0.0002359 -0.0004878 0.0000305 -0.0001447 -0.0002311 -0.0009724 -0.0000579 -0.0002861 0.0000516 0.0001531 -0.0002187 -0.0006923 0.0000297 -0.0004120 -0.0000646 -0.0001107 0.0001600 0.0002898 0.0005089 -0.0006554
-0.0001274 -0.0004924 0.0000121 -0.0000932 -0.0002221 -0.0008382 -0.0000806 -0.0003120 0.0000448 0.0000462 -0.0002253 -0.0006859 0.0000941 -0.0005175 -0.0000916 -0.0002127 0.0001165 0.0001196 0.0002362 -0.0007392
-0.0000140 -0.0007091 -0.0000339 -0.0003073 -0.0002134 -0.0008663 -0.0000565 -0.0004983 0.0000722 -0.0001745 -0.0002519 -0.0008932 -0.0000166 -0.0005617 -0.0000629 -0.0003697 0.0001335 -0.0001307 -0.0000314 -0.0009640
-0.0000049 -0.0008268 -0.0000333 -0.0003403 -0.0001846 -0.0009293 0.0000037 -0.0005412 0.0001428 -0.0001180 -0.0002833 -0.0009779 -0.0000591 -0.0005250 -0.0000005 -0.0001923 0.0002210 -0.0000328 0.0001568 -0.0008403
-0.0000281 -0.0007175 0.0000255 -0.0001693 -0.0001597 -0.0008772 -0.0000074 -0.0003685 0.0002099 0.0001138 -0.0002986 -0.0009537 -0.0000866 -0.0004865 0.0000416 0.0000255 0.0002405 0.0002315 0.0001183 -0.0002564
-0.0000234 -0.0005000 0.0000804 0.0000326 -0.0001431 -0.0007589 -0.0000461 -0.0001263 0.0002160 0.0003421 -0.0003002 -0.0008302 -0.0001514 -0.0003616 0.0000627 0.0000744 0.0002162 0.0002911 0.0002802 -0.0002288
-0.0000242 -0.0004645 0.0000445 -0.0000920 -0.0001401 -0.0007790 -0.0000127 -0.0001924 0.0002025 0.0002272 -0.0003014 -0.0008582 -0.0001474 -0.0003381 0.0000119 -0.0000722 0.0001978 0.0000719 0.0004112 -0.0005143
-0.0000758 -0.0004151 0.0000123 -0.0003530 -0.0001598 -0.0009189 0.0000699 -0.0005048 0.0002093 0.0000308 -0.0003005 -0.0009563 0.0000185 -0.0005156 -0.0000090 -0.0001909 0.0001900 0.0000382 0.0002177 -0.0004571
-0.0000182 -0.0003837 0.0000296 -0.0003678 -0.0001774 -0.0009629 0.0000621 -0.0005855 0.0002333 0.0001331 -0.0003031 -0.0008718 0.0002181 -0.0006528 0.0000123 -0.0000787 0.0001762 0.0001951 0.0000603 -0.0002620
0.0001614 -0.0004239 0.0000410 -0.0002381 -0.0001711 -0.0008679 -0.0000310 -0.0004495 0.0002297 0.0002658 -0.0002909 -0.0006698 0.0001793 -0.0004614 0.0000232 0.0001528 0.0001794 0.0003425 -0.0001340 0.0002333
0.0002458 -0.0001219 0.0000281 -0.0001402 -0.0000719 -0.0004337 -0.0000763 -0.0004025 0.0001349 0.0000476 -0.0002031 -0.0003762 -0.0001375 -0.0001360 -0.0000461 0.0001116 0.0000814 0.0001414 0.0000074 0.0001880
0.0003048 0.0002614 0.0000414 -0.0000625 0.0000829 0.0002974 -0.0001247 -0.0004856 0.0000413 -0.0002760 -0.0001396 -0.0002105 -0.0003266 -0.0001135 -0.0001003 -0.0000292 -0.0000042 -0.0001146 0.0002332 -0.0004931
0.0002792 0.0003897 0.0000736 0.0000693 0.0001012 0.0005419 -0.0001172 -0.0005111 0.0000371 -0.0002122 -0.0001501 -0.0001997 -0.0003037 -0.0001342 -0.0000987 0.0000582 0.0000162 0.0000357 0.0004453 -0.0005213
0.0001211 0.0004357 0.0000477 0.0001368 0.0000254 0.0003459 -0.0001107 -0.0003884 0.0000604 -0.0000301 -0.0001513 -0.0001371 -0.0001984 -0.0001247 -0.0001160 0.0002155 -0.0000342 0.0002720 0.0005037 -0.0001842
0.0000203 0.0004034 0.0000210 0.0000987 0.0000044 0.0002072 -0.0000880 -0.0002749 0.0000922 0.0000392 -0.0001920 -0.0002284 0.0000331 -0.0003559 -0.0001545 0.0000660 -0.0000758 0.0001442 0.0003893 -0.0006190
0.0000841 -0.0001221 -0.0000105 -0.0002246 -0.0000450 -0.0002428 -0.0000301 -0.0004201 0.0001618 -0.0000273 -0.0002600 -0.0005836 0.0001218 -0.0005539 -0.0001204 -0.0001980 0.0000374 -0.0002126 0.0001111 -0.0008575
0.0001761 -0.0006103 -0.0000214 -0.0003404 -0.0000843 -0.0006827 -0.0000032 -0.0004687 0.0002282 -0.0000377 -0.0002914 -0.0007838 0.0000270 -0.0005498 -0.0000277 -0.0001782 0.0001304 -0.0001403 -0.0000462 -0.0005915
0.0000918 -0.0005893 0.0000103 -0.0001152 -0.0000850 -0.0007410 0.0000477 -0.0003319 0.0002455 0.0000911 -0.0003054 -0.0007319 -0.0000637 -0.0003451 0.0000008 -0.0000254 0.0001309 0.0001580 -0.0000464 -0.0003097
0.0000246 -0.0005539 0.0000843 0.0000717 -0.0000872 -0.0006684 0.0000420 -0.0001367 0.0002285 0.0001814 -0.0003014 -0.0007263 -0.0002286 -0.0002209 -0.0000322 -0.0000367 0.0001551 0.0000807 0.0001045 -0.0006172
-0.0000662 -0.0008325 0.0001236 -0.0000615 -0.0000618 -0.0007856 0.0000574 -0.0001817 0.0002108 -0.0000034 -0.0003144 -0.0009257 -0.0002120 -0.0004226 -0.0000622 -0.0002431 0.0000939 -0.0001445 0.0003792 -0.0010471
-0.0001038 -0.0011511 0.0000834 -0.0002013 -0.0000517 -0.0009313 0.0000949 -0.0003253 0.0002181 -0.0001457 -0.0003112 -0.0010340 0.0000170 -0.0005637 -0.0000646 -0.0002216 0.0000191 -0.0000530 0.0004068 -0.0006720
-0.0001636 -0.0009394 0.0000760 0.0000069 -0.0000543 -0.0008493 0.0001896 -0.0002870 0.0002308 -0.0000243 -0.0002938 -0.0008913 0.0001161 -0.0004797 -0.0000881 -0.0000330 -0.0000046 0.0001044 0.0003950 -0.0002945
-0.0001293 -0.0007916 0.0000963 0.0001918 -0.0000594 -0.0007100 0.0002920 -0.0002369 0.0002460 0.0001568 -0.0002817 -0.0006813 0.0001434 -0.0003870 -0.0000704 0.0000354 0.0000410 0.0001214 0.0002741 -0.0001976
0.0001503 -0.0010521 0.0001149 0.0000171 -0.0000586 -0.0007730 0.0002155 -0.0002165 0.0002515 0.0001217 -0.0002873 -0.0007199 0.0000798 -0.0003886 -0.0000516 -0.0000507 0.0000734 -0.0000545 -0.0002767 -0.0000404
0.0001303 -0.0010062 0.0001002 -0.0002482 -0.0000497 -0.0009238 0.0000987 -0.0002274 0.0002447 -0.0000160 -0.0002918 -0.0008476 -0.0001395 -0.0002716 -0.0000563 -0.0000815 0.0000371 -0.0001246 -0.0002439 0.0000108
0.0000410 -0.0007970 0.0000965 -0.0002557 -0.0000305 -0.0008990 0.0000956 -0.0002099 0.0002539 0.0000582 -0.0002880 -0.0007816 -0.0002913 -0.0001201 -0.0000531 -0.0000472 0.0000337 -0.0000756 0.0000855 -0.0001913
0.0000211 -0.0005924 0.0001067 -0.0003462 -0.0000869 -0.0008535 0.0001189 -0.0003363 0.0002424 0.0001731 -0.0002904 -0.0005715 -0.0002852 0.0000202 -0.0001385 -0.0000386 -0.0000617 -0.0002270 -0.0000056 -0.0003000
-0.0001357 -0.0001589 0.0000540 -0.0005992 -0.0000994 -0.0006242 0.0001663 -0.0005663 0.0001898 -0.0000155 -0.0002334 -0.0003286 -0.0001456 -0.0000603 -0.0002671 -0.0001071 -0.0001831 -0.0005524 0.0001177 -0.0005699
-0.0000741 0.0000868 -0.0000242 -0.0008212 0.0000397 -0.0002312 0.0002298 -0.0006129 0.0001791 -0.0002525 -0.0001605 -0.0001589 0.0000555 -0.0002672 -0.0002830 -0.0000489 -0.0002601 -0.0006336 0.0001991 -0.0007421
0.0003528 -0.0001072 -0.0000724 -0.0008016 0.0000923 -0.0000584 0.0001814 -0.0004892 0.0002406 -0.0001567 -0.0001337 -0.0000407 0.0000676 -0.0002200 -0.0002134 0.0001334 -0.0002332 -0.0004650 -0.0003194 -0.0001859
0.0006383 -0.0002980 -0.0000602 -0.0006289 0.0000014 -0.0002489 0.0000711 -0.0003723 0.0002973 0.0001803 -0.0001616 -0.0000871 -0.0000782 -0.0000214 -0.0001430 0.0002130 -0.0001202 -0.0002417 -0.0005092 0.0000902
0.0003254 -0.0002457 -0.0000576 -0.0007433 -0.0001047 -0.0006650 0.0000139 -0.0004075 0.0002821 0.0002625 -0.0002390 -0.0004397 -0.0002470 0.0000965 -0.0001133 0.0000818 -0.0000606 -0.0003022 -0.0001626 -0.0004513
-0.0000006 -0.0002637 -0.0000606 -0.0011186 -0.0001209 -0.0010019 0.0000045 -0.0005891 0.0002428 0.0000361 -0.0002780 -0.0008008 -0.0002360 -0.0000521 -0.0001043 -0.0000561 -0.0000592 -0.0004202 0.0001992 -0.0010478
-0.0000527 -0.0002838 -0.0000664 -0.0012721 -0.0001131 -0.0010880 -0.0000079 -0.0006577 0.0002297 0.0000261 -0.0002330 -0.0007890 -0.0000536 -0.0001447 -0.0001062 0.0000747 -0.0000828 -0.0001677 0.0002000 -0.0006924
0.0002174 -0.0004295 -0.0000973 -0.0011166 -0.0001328 -0.0010102 -0.0000030 -0.0005009 0.0002178 0.0001503 -0.0001770 -0.0004904 0.0000858 -0.0000483 -0.0001677 0.0002007 -0.0001024 -0.0000152 0.0001260 -0.0001796
0.0003155 -0.0003473 -0.0001625 -0.0010366 -0.0001421 -0.0009963 0.0000413 -0.0004990 0.0002162 0.0000804 -0.0001821 -0.0004621 0.0001595 -0.0000749 -0.0001765 0.0000966 -0.0000853 -0.0001909 0.0002679 -0.0006528
0.0002914 -0.0004373 -0.0001797 -0.0011173 -0.0001490 -0.0010669 0.0000798 -0.0006272 0.0002350 -0.0000660 -0.0002143 -0.0006812 0.0002030 -0.0002293 -0.0001147 0.0000268 -0.0000090 -0.0003434 0.0001394 -0.0008509
0.0004386 -0.0007140 -0.0000514 -0.0011091 -0.0001207 -0.0010899 0.0000327 -0.0005830 0.0002554 0.0000107 -0.0001993 -0.0006704 0.0001760 -0.0001682 -0.0000446 0.0001588 0.0000405 -0.0001648 -0.0000578 -0.0003891
0.0003188 -0.0004263 0.0000281 -0.0009198 -0.0000966 -0.0009854 -0.0000456 -0.0004221 0.0002489 0.0001924 -0.0001593 -0.0005616 -0.0000952 0.0001978 -0.0000162 0.0003692 0.0000231 0.0001016 -0.0002074 0.0002281
0.0001385 -0.0000680 0.0000091 -0.0007503 -0.0001060 -0.0008394 -0.0000458 -0.0003185 0.0002256 0.0002401 -0.0001607 -0.0005683 -0.0001963 0.0002909 -0.0000465 0.0003519 -0.0000395 0.0000373 0.0000354 -0.0001793
-0.0001292 -0.0000466 -0.0000483 -0.0008773 -0.0001165 -0.0008900 0.0000722 -0.0004823 0.0002052 0.0000815 -0.0001803 -0.0006956 -0.0000394 0.0000617 -0.0000545 0.0001914 -0.0000627 -0.0001758 0.0002733 -0.0009518
-0.0002498 -0.0001899 -0.0000719 -0.0009666 -0.0001107 -0.0009677 0.0001452 -0.0005983 0.0002105 0.0000481 -0.0001602 -0.0006611 0.0001490 -0.0000147 -0.0000246 0.0002437 -0.0000507 -0.0000482 0.0000352 -0.0005313
-0.0000685 -0.0000345 -0.0000555 -0.0007502 -0.0001025 -0.0008612 0.0001223 -0.0004730 0.0002241 0.0002140 -0.0001417 -0.0004469 0.0002726 0.0000462 -0.0000206 0.0004215 -0.0000848 0.0002385 -0.0000068 0.0000099
0.0003725 -0.0000508 -0.0000505 -0.0004669 -0.0001084 -0.0006789 0.0000379 -0.0002011 0.0002171 0.0004228 -0.0001135 -0.0002007 0.0001796 0.0001960 -0.0000499 0.0005206 -0.0000631 0.0002698 -0.0000207 0.0000589
0.0006518 -0.0004959 -0.0000306 -0.0005518 -0.0000960 -0.0006429 -0.0000086 -0.0001270 0.0001769 0.0003359 -0.0000905 -0.0002057 -0.0000418 0.0003743 -0.0000890 0.0003867 -0.0000555 0.0000803 0.0001436 -0.0004230
0.0002252 -0.0004835 -0.0000300 -0.0007401 -0.0000589 -0.0006473 -0.0000244 -0.0000637 0.0001338 0.0001220 -0.0000564 -0.0001914 -0.0001992 0.0005716 -0.0000857 0.0002795 -0.0000963 0.0001048 0.0001593 -0.0003010
-0.0002078 0.0000390 -0.0000011 -0.0006277 -0.0000273 -0.0005326 0.0000302 0.0001431 0.0001009 0.0001817 -0.0000063 0.0000261 -0.0001199 0.0006497 -0.0000942 0.0003995 -0.0000899 0.0003120 0.0001289 -0.0000547
-0.0002132 0.0003303 0.0000308 -0.0004302 -0.0000421 -0.0004584 0.0001062 0.0002015 0.0000794 0.0004082 -0.0000149 0.0001447 0.0000158 0.0006106 -0.0001355 0.0006834 -0.0000837 0.0005564 0.0001598 0.0000031
0.0001982 -0.0000011 -0.0000426 -0.0003700 -0.0000861 -0.0004302 0.0000386 0.0002056 0.0000748 0.0005401 -0.0000944 0.0000239 0.0001404 0.0004761 -0.0001518 0.0007376 -0.0001393 0.0005360 -0.0002506 -0.0000384
0.0003923 -0.0004505 -0.0001533 -0.0005564 -0.0001203 -0.0005731 0.0000082 0.0000775 0.0000691 0.0004079 -0.0001525 -0.0001657 0.0001628 0.0003901 -0.0001182 0.0006198 -0.0001254 0.0003756 -0.0003508 -0.0002485
0.0002787 -0.0006001 -0.0001842 -0.0006347 -0.0001352 -0.0007068 -0.0000276 0.0001329 0.0000744 0.0003618 -0.0001444 -0.0001594 0.0001347 0.0004238 -0.0000532 0.0006726 -0.0000422 0.0004563 -0.0002750 -0.0000580
0.0001326 -0.0004674 -0.0000885 -0.0005243 -0.0001237 -0.0006366 -0.0000698 0.0003203 0.0000704 0.0005292 -0.0001340 -0.0000352 0.0000311 0.0005739 -0.0000330 0.0008216 -0.0000646 0.0006653 -0.0004711 0.0004574
-0.0001832 -0.0001511 -0.0000197 -0.0005182 -0.0000999 -0.0004846 -0.0000953 0.0003407 0.0000218 0.0005568 -0.0000801 0.0001282 -0.0000878 0.0007712 -0.0000996 0.0007958 -0.0002353 0.0006287 -0.0004516 0.0005826
-0.0002918 0.0000779 -0.0000451 -0.0005214 -0.0000449 -0.0002720 -0.0000805 0.0002777 -0.0001040 0.0002033 0.0000875 0.0004924 -0.0001021 0.0009932 -0.0000952 0.0008052 -0.0004177 0.0005780 -0.0001005 0.0003663
-0.0001784 0.0004395 0.0000197 0.0001734 0.0000840 0.0002672 0.0001069 0.0004845 -0.0002831 -0.0001167 0.0003432 0.0011995 0.0000087 0.0011760 0.0000898 0.0011832 -0.0005199 0.0009622 0.0001222 0.0006967
0.0001277 0.0006532 0.0001375 0.0011484 0.0001871 0.0008708 0.0002411 0.0009571 -0.0003924 -0.0000503 0.0005026 0.0018351 0.0002013 0.0014077 0.0002473 0.0016262 -0.0005014 0.0013905 -0.0002059 0.0015844
0.0003639 0.0007746 0.0001582 0.0014288 0.0002196 0.0010562 0.0002020 0.0012181 -0.0003967 0.0000902 0.0004941 0.0019469 0.0002420 0.0015718 0.0002829 0.0017617 -0.0005246 0.0014373 -0.0006261 0.0017455
0.0005088 0.0005919 0.0001347 0.0010699 0.0002223 0.0009042 0.0001186 0.0011987 -0.0003702 -0.0000155 0.0004994 0.0018516 0.0000649 0.0015988 0.0003020 0.0016517 -0.0005830 0.0011858 -0.0004581 0.0011360
0.0005520 0.0002001 0.0001590 0.0007945 0.0002056 0.0007235 0.0000971 0.0011208 -0.0003283 -0.0001056 0.0005300 0.0018510 -0.0001165 0.0016640 0.0003266 0.0016705 -0.0006453 0.0012205 0.0000271 0.0008776
0.0001368 0.0002307 0.0001852 0.0008065 0.0001542 0.0006172 0.0001191 0.0010505 -0.0002555 0.0001561 0.0005199 0.0018682 -0.0001473 0.0017133 0.0002970 0.0017826 -0.0006313 0.0013888 0.0003199 0.0008885
-0.0003699 0.0005039 0.0001341 0.0006592 0.0000865 0.0004176 0.0001553 0.0008573 -0.0001426 0.0004885 0.0004401 0.0017160 -0.0001127 0.0016798 0.0001879 0.0015797 -0.0005873 0.0011178 0.0002525 0.0004644
-0.0004828 0.0004134 -0.0000059 0.0001110 0.0000192 0.0000611 0.0002002 0.0005147 -0.0000246 0.0005231 0.0003123 0.0012552 -0.0000227 0.0013875 0.0000547 0.0012531 -0.0006516 0.0006912 -0.0001182 0.0000822
0.0001540 -0.0004787 -0.0001205 -0.0003585 -0.0000225 -0.0002139 0.0002129 0.0002160 0.0000388 0.0004257 0.0002707 0.0010206 0.0001168 0.0011066 0.0000148 0.0012307 -0.0006526 0.0005371 -0.0002228 0.0001977
0.0008212 -0.0009151 -0.0001012 -0.0001783 0.0000299 -0.0000140 0.0001762 0.0002480 -0.0000102 0.0003142 0.0003527 0.0013806 0.0000274 0.0012486 0.0000616 0.0014578 -0.0007051 0.0006253 -0.0002803 0.0006634
0.0008545 -0.0000021 0.0000464 0.0005602 0.0001755 0.0007745 0.0000914 0.0005838 -0.0001288 0.0001843 0.0004163 0.0017332 -0.0000859 0.0013613 0.0001295 0.0015246 -0.0007407 0.0005148 -0.0004452 0.0007808
0.0003907 0.0008457 0.0001832 0.0008168 0.0002429 0.0011313 0.0000819 0.0006461 -0.0001648 0.0000444 0.0003938 0.0016280 -0.0001716 0.0012962 0.0001393 0.0013551 -0.0007295 0.0002817 -0.0004331 0.0003066
-0.0000481 0.0006084 0.0002005 0.0003906 0.0001936 0.0007399 0.0001735 0.0004123 -0.0001304 -0.0000180 0.0004042 0.0014785 -0.0000839 0.0012317 0.0000959 0.0013223 -0.0006933 0.0003620 -0.0002909 0.0002533
-0.0002045 0.0006345 0.0001509 0.0003069 0.0001398 0.0005352 0.0001951 0.0004191 -0.0001036 0.0001372 0.0004324 0.0015579 0.0000095 0.0012937 0.0000671 0.0014308 -0.0006378 0.0005708 0.0000064 0.0004269
0.0000047 0.0007476 0.0000589 0.0004554 0.0000958 0.0005554 0.0001768 0.0004993 -0.0000594 0.0002529 0.0004148 0.0015600 -0.0000728 0.0013171 0.0000524 0.0013301 -0.0006417 0.0005113 0.0002643 0.0001703
0.0004701 0.0001095 -0.0000247 0.0002925 0.0000769 0.0003968 0.0002030 0.0003398 -0.0000073 0.0001991 0.0003806 0.0013834 0.0000317 0.0010565 0.0000656 0.0010789 -0.0006406 0.0002396 0.0000764 -0.0002988
0.0005526 -0.0002599 -0.0000191 0.0000349 0.0000625 0.0001674 0.0001494 0.0001996 0.0000323 0.0001625 0.0003506 0.0012779 0.0000065 0.0010203 0.0000475 0.0010107 -0.0005723 0.0001680 -0.0003058 -0.0001961
0.0004249 -0.0002239 0.0000481 -0.0000164 0.0000524 0.0000072 0.0000797 0.0002065 0.0000914 0.0003125 0.0002504 0.0010611 -0.0001027 0.0010101 -0.0000189 0.0009680 -0.0003906 0.0001591 -0.0004748 -0.0000097
0.0001265 -0.0001987 0.0000662 -0.0001637 0.0000409 -0.0002178 0.0000291 0.0001548 0.0001378 0.0003818 0.0000279 0.0003170 -0.0001363 0.0005043 -0.0000315 0.0006757 -0.0002500 -0.0000007 -0.0002337 -0.0006510
-0.0003177 -0.0002653 0.0000034 -0.0005111 0.0000176 -0.0004931 0.0000073 -0.0000482 0.0001680 0.0002334 -0.0001505 -0.0003897 -0.0001736 0.0001181 -0.0000358 0.0003227 -0.0002101 -0.0001633 0.0001792 -0.0012737
-0.0004103 -0.0005751 -0.0000763 -0.0006892 0.0000022 -0.0006864 0.0001300 -0.0002622 0.0002126 0.0002088 -0.0002091 -0.0005928 -0.0001418 0.0001068 -0.0000530 0.0003131 -0.0002172 -0.0001166 0.0000865 -0.0008864
-0.0001510 -0.0005940 -0.0001232 -0.0005131 -0.0000114 -0.0006134 0.0002353 -0.0002196 0.0002387 0.0003927 -0.0002009 -0.0005100 0.0000210 0.0000303 -0.0001384 0.0004726 -0.0003266 -0.0000757 -0.0000320 -0.0004161
0.0003358 -0.0006513 -0.0001129 -0.0004639 -0.0000039 -0.0005429 0.0002723 -0.0002293 0.0002230 0.0003072 -0.0001196 -0.0003127 0.0000323 0.0000726 -0.0003523 0.0003130 -0.0005325 -0.0005915 -0.0003193 -0.0002654
0.0006868 -0.0011939 -0.0000494 -0.0007028 0.0000098 -0.0007413 0.0002926 -0.0004185 0.0002218 0.0000901 -0.0000858 -0.0003905 -0.0003063 0.0001800 -0.0005211 0.0000473 -0.0007262 -0.0011259 -0.0008302 -0.0000576
0.0004282 -0.0011969 0.0000055 -0.0009260 -0.0000411 -0.0009991 0.0002419 -0.0006004 0.0002969 0.0001838 -0.0001899 -0.0007367 -0.0005674 0.0001449 -0.0005476 0.0001060 -0.0007898 -0.0011348 -0.0007593 0.0001535
-0.0000805 -0.0006931 0.0000723 -0.0008771 -0.0001159 -0.0010891 0.0002288 -0.0006544 0.0003902 0.0004123 -0.0002735 -0.0009216 -0.0005083 0.0000424 -0.0005017 0.0002037 -0.0007396 -0.0010436 -0.0004197 0.0001639
-0.0003385 -0.0005645 0.0001516 -0.0006770 -0.0001440 -0.0010346 0.0002931 -0.0005894 0.0004081 0.0006349 -0.0002725 -0.0008367 -0.0001495 -0.0001544 -0.0005043 0.0002546 -0.0007323 -0.0009114 -0.0001826 -0.0000473
-0.0003034 -0.0008771 0.0001214 -0.0007408 -0.0001359 -0.0010915 0.0003596 -0.0006960 0.0003754 0.0005381 -0.0002885 -0.0009673 0.0000026 -0.0003136 -0.0004918 0.0001408 -0.0007266 -0.0009615 -0.0002280 -0.0002657
0.0001202 -0.0014448 0.0000382 -0.0009090 -0.0001370 -0.0012442 0.0004205 -0.0008998 0.0003803 0.0002943 -0.0002926 -0.0011964 -0.0001169 -0.0002991 -0.0004221 0.0000093 -0.0006462 -0.0010091 -0.0003722 -0.0002612
0.0005062 -0.0016487 0.0000065 -0.0008335 -0.0001305 -0.0012457 0.0003949 -0.0008703 0.0004035 0.0003065 -0.0002685 -0.0011686 -0.0002434 -0.0001955 -0.0003621 0.0000497 -0.0005796 -0.0009128 -0.0004887 -0.0000494
0.0005719 -0.0017228 0.0000407 -0.0006971 -0.0001203 -0.0011401 0.0003330 -0.0007168 0.0003998 0.0004127 -0.0002690 -0.0010350 -0.0002746 -0.0001284 -0.0003480 0.0000869 -0.0005897 -0.0008635 -0.0006316 0.0004329
0.0001716 -0.0014233 0.0001272 -0.0006302 -0.0001153 -0.0009802 0.0003553 -0.0005754 0.0003793 0.0005695 -0.0002595 -0.0008562 -0.0003128 0.0000402 -0.0004044 0.0001153 -0.0006541 -0.0008880 -0.0004881 0.0006119
-0.0005410 -0.0006353 0.0001191 -0.0008146 -0.0001013 -0.0009803 0.0003515 -0.0005476 0.0003483 0.0004872 -0.0002569 -0.0009652 -0.0003187 0.0000091 -0.0004817 0.0000878 -0.0006966 -0.0010160 -0.0000548 -0.0000235
-0.0006273 -0.0005171 0.0000483 -0.0010687 -0.0000961 -0.0010870 0.0003547 -0.0006684 0.0003351 0.0002944 -0.0002750 -0.0011301 -0.0002489 -0.0001349 -0.0005082 0.0000371 -0.0007035 -0.0011007 0.0002060 -0.0005479
-0.0001189 -0.0009946 0.0000039 -0.0009342 -0.0001190 -0.0010553 0.0003937 -0.0006840 0.0003551 0.0002959 -0.0002785 -0.0010284 -0.0001624 -0.0001258 -0.0004878 0.0001171 -0.0006889 -0.0009736 -0.0000264 -0.0000303
0.0003355 -0.0011009 -0.0000345 -0.0005592 -0.0001377 -0.0009103 0.0003773 -0.0005443 0.0003532 0.0004088 -0.0002763 -0.0008756 -0.0000845 -0.0000316 -0.0004602 0.0002411 -0.0006580 -0.0007864 -0.0004327 0.0006718
0.0004458 -0.0009205 -0.0000382 -0.0004299 -0.0001251 -0.0008384 0.0003588 -0.0005138 0.0003290 0.0003975 -0.0002929 -0.0009254 -0.0002237 0.0000233 -0.0004452 0.0001215 -0.0006574 -0.0009509 -0.0005764 0.0004605
0.0004622 -0.0011787 0.0000485 -0.0006389 -0.0001011 -0.0009398 0.0002941 -0.0005594 0.0003188 0.0002315 -0.0002716 -0.0010434 -0.0004100 0.0000048 -0.0004618 -0.0000348 -0.0006752 -0.0012353 -0.0005467 0.0001520
0.0002402 -0.0010547 0.0001491 -0.0006834 -0.0000586 -0.0008898 0.0003038 -0.0006023 0.0003224 0.0001934 -0.0002070 -0.0009314 -0.0005013 0.0001058 -0.0004716 0.0000278 -0.0006985 -0.0011414 -0.0003862 0.0002497
-0.0000975 -0.0004723 0.0001259 -0.0003877 -0.0000237 -0.0006425 0.0003582 -0.0004955 0.0003196 0.0002892 -0.0001777 -0.0007368 -0.0004708 0.0001774 -0.0004991 0.0001767 -0.0007875 -0.0008926 -0.0002552 0.0006765
-0.0002351 -0.0000586 0.0000830 -0.0001142 -0.0000282 -0.0004500 0.0003623 -0.0003264 0.0002994 0.0003509 -0.0002079 -0.0006720 -0.0001717 -0.0000319 -0.0005540 0.0001529 -0.0008166 -0.0009712 -0.0004185 0.0007412
-0.0000228 -0.0003214 0.0000471 -0.0002734 -0.0000378 -0.0005017 0.0004188 -0.0004970 0.0002966 0.0001698 -0.0002521 -0.0008334 -0.0000392 -0.0002562 -0.0005383 -0.0000527 -0.0007616 -0.0012154 -0.0006877 0.0002149
0.0004671 -0.0009138 0.0000538 -0.0005026 -0.0000173 -0.0006251 0.0003919 -0.0006666 0.0003206 0.0000213 -0.0002489 -0.0009230 -0.0001816 -0.0001975 -0.0004474 -0.0001056 -0.0006967 -0.0011985 -0.0008423 0.0001882
0.0006594 -0.0007697 0.0000804 -0.0003339 0.0000050 -0.0005630 0.0003324 -0.0005621 0.0003408 0.0001067 -0.0001990 -0.0007885 -0.0003554 0.0000443 -0.0003813 0.0000040 -0.0006721 -0.0010409 -0.0005540 0.0004701
0.0005026 -0.0004212 0.0000988 -0.0001007 0.0000182 -0.0003965 0.0002967 -0.0003973 0.0003339 0.0002164 -0.0001420 -0.0005446 -0.0003952 0.0002125 -0.0003619 0.0001652 -0.0006542 -0.0009152 -0.0003575 0.0008247
0.0001438 -0.0001099 0.0001128 -0.0000417 0.0000448 -0.0002521 0.0003766 -0.0004050 0.0003204 0.0001660 -0.0001339 -0.0005247 -0.0003218 0.0000996 -0.0003860 0.0000926 -0.0006785 -0.0010716 -0.0003386 0.0005566
-0.0002671 0.0002537 0.0000609 -0.0002253 0.0000647 -0.0002763 0.0004788 -0.0005007 0.0003313 -0.0000008 -0.0001416 -0.0006772 -0.0002266 -0.0000712 -0.0004207 -0.0000679 -0.0007736 -0.0012235 -0.0001021 0.0000548
-0.0002524 0.0004268 0.0000163 -0.0003432 0.0000606 -0.0002635 0.0004388 -0.0004625 0.0003576 -0.0000107 -0.0001169 -0.0006393 -0.0000521 -0.0001151 -0.0004417 -0.0000029 -0.0007866 -0.0011324 -0.0002571 0.0002951
0.0003673 0.0002324 -0.0000580 -0.0003250 0.0000459 -0.0001202 0.0003693 -0.0003388 0.0003742 0.0001340 -0.0000765 -0.0004219 -0.0000670 0.0000381 -0.0004542 0.0001423 -0.0007612 -0.0010600 -0.0005980 0.0007517
0.0008525 0.0000829 -0.0001543 -0.0002996 0.0000070 0.0000555 0.0003254 -0.0001861 0.0003566 0.0003355 -0.0000686 -0.0001655 -0.0002289 0.0002757 -0.0004579 0.0002912 -0.0007783 -0.0009633 -0.0007812 0.0012607
0.0005492 0.0005071 -0.0001784 -0.0001810 -0.0000371 0.0002307 0.0002713 0.0000122 0.0003192 0.0004897 -0.0000963 -0.0000816 -0.0004330 0.0004838 -0.0004984 0.0002195 -0.0008691 -0.0010650 -0.0009510 0.0012183
0.0000898 0.0008897 -0.0001385 -0.0003819 -0.0000705 0.0001345 0.0002046 -0.0000067 0.0002893 0.0003893 -0.0000983 -0.0002698 -0.0005136 0.0004640 -0.0005345 -0.0000026 -0.0009539 -0.0013228 -0.0007305 0.0004847
0.0000043 0.0006706 -0.0000852 -0.0006428 -0.0000897 -0.0000374 0.0002033 -0.0001555 0.0002820 0.0002949 -0.0000641 -0.0003959 -0.0003872 0.0002922 -0.0005678 0.0000190 -0.0009591 -0.0012936 -0.0002795 0.0000501
0.0003406 0.0003006 -0.0001105 -0.0005064 -0.0001012 -0.0000130 0.0002398 -0.0000849 0.0002897 0.0004219 -0.0000556 -0.0002521 -0.0003569 0.0003805 -0.0006033 0.0002341 -0.0009146 -0.0010689 -0.0002395 0.0003344
0.0004469 0.0006622 -0.0001889 -0.0002378 -0.0001210 0.0000829 0.0002175 0.0000862 0.0002874 0.0006109 -0.0000808 -0.0000598 -0.0002686 0.0004628 -0.0006083 0.0003268 -0.0009066 -0.0009105 -0.0005696 0.0008088
0.0004353 0.0006306 -0.0002342 -0.0002865 -0.0001492 0.0000335 0.0002101 0.0000909 0.0002523 0.0005256 -0.0001034 -0.0001623 -0.0001599 0.0002699 -0.0005909 0.0001253 -0.0009480 -0.0011167 -0.0008320 0.0006451
0.0006110 0.0000832 -0.0001601 -0.0005789 -0.0001427 -0.0001287 0.0001685 0.0000006 0.0002408 0.0003482 -0.0000934 -0.0003497 -0.0002180 0.0001642 -0.0005307 -0.0000090 -0.0009417 -0.0011935 -0.0009451 0.0004985
0.0004771 0.0002601 -0.0001005 -0.0005954 -0.0001308 -0.0001091 0.0000879 0.0000516 0.0002644 0.0004399 -0.0000632 -0.0002708 -0.0003324 0.0003527 -0.0005036 0.0001756 -0.0009400 -0.0008094 -0.0008788 0.0009053
0.0003489 0.0004534 -0.0001204 -0.0004168 -0.0001537 -0.0000401 0.0000924 0.0001921 0.0002512 0.0005719 -0.0000051 0.0000143 -0.0005402 0.0006563 -0.0004803 0.0003785 -0.0009425 -0.0005019 -0.0004091 0.0011506
0.0000755 0.0006326 -0.0001511 -0.0003121 -0.0001720 0.0000469 0.0001565 0.0002077 0.0002211 0.0006034 0.0000178 0.0001126 -0.0005269 0.0005549 -0.0004445 0.0003043 -0.0008849 -0.0005918 -0.0000545 0.0005102
-0.0001635 0.0005492 -0.0002245 -0.0005553 -0.0001830 -0.0000607 0.0002028 0.0000418 0.0002153 0.0004272 -0.0000251 -0.0001249 -0.0001993 0.0001399 -0.0004101 0.0001127 -0.0008142 -0.0007351 -0.0002473 0.0000505
-0.0000065 0.0002939 -0.0002728 -0.0007340 -0.0001821 -0.0002631 0.0001731 -0.0000105 0.0002270 0.0003442 -0.0000345 -0.0002248 -0.0000466 0.0001419 -0.0003438 0.0001373 -0.0007726 -0.0005136 -0.0003148 0.0003790
0.0003594 0.0002172 -0.0002671 -0.0005844 -0.0001885 -0.0002337 0.0001027 0.0001281 0.0002586 0.0005014 -0.0000181 -0.0000984 0.0000170 0.0001945 -0.0002676 0.0002734 -0.0006830 -0.0002375 -0.0004818 0.0010051
0.0006609 -0.0000056 -0.0002223 -0.0003704 -0.0002030 -0.0001607 0.0000487 0.0003150 0.0002748 0.0007164 0.0000153 0.0001144 -0.0000857 0.0002382 -0.0002004 0.0003903 -0.0006141 0.0000069 -0.0006287 0.0013440
0.0002557 0.0001319 -0.0002023 -0.0003681 -0.0002050 -0.0002032 0.0000280 0.0003459 0.0002529 0.0006999 0.0000218 0.0000618 -0.0003479 0.0003801 -0.0001689 0.0002858 -0.0005329 -0.0000855 -0.0003659 0.0009579
-0.0002522 0.0004597 -0.0001794 -0.0006150 -0.0001963 -0.0003561 0.0000751 0.0002074 0.0002468 0.0005574 0.0000132 -0.0001105 -0.0004077 0.0004196 -0.0001447 0.0001412 -0.0004500 -0.0002247 -0.0000662 0.0005718
-0.0002918 0.0003955 -0.0001336 -0.0006788 -0.0002054 -0.0004199 0.0001661 0.0001754 0.0002561 0.0006365 0.0000484 -0.0000458 -0.0001954 0.0003153 -0.0001205 0.0002386 -0.0004302 0.0000219 -0.0001458 0.0009826
0.0002209 -0.0000289 -0.0001838 -0.0004496 -0.0002382 -0.0003648 0.0001494 0.0003157 0.0002528 0.0008267 0.0000766 0.0001431 0.0000716 0.0002616 -0.0001216 0.0004269 -0.0003625 0.0003204 -0.0001248 0.0015290
0.0004996 0.0000956 -0.0002535 -0.0001346 -0.0002582 -0.0002135 0.0001009 0.0005235 0.0002438 0.0010404 0.0000578 0.0003704 0.0000658 0.0004107 -0.0001124 0.0004701 -0.0003030 0.0004248 0.0000429 0.0012303
0.0004475 0.0001628 -0.0002726 -0.0001647 -0.0002661 -0.0001755 0.0000780 0.0005487 0.0002202 0.0009456 0.0000263 0.0002975 0.0000363 0.0003354 -0.0000706 0.0002599 -0.0002296 0.0002462 -0.0001887 0.0008698
0.0004231 -0.0001440 -0.0001814 -0.0003488 -0.0002398 -0.0002802 0.0000314 0.0004573 0.0002116 0.0007659 0.0000487 0.0001405 -0.0000064 0.0002674 -0.0000051 0.0001293 -0.0001727 0.0002554 -0.0006472 0.0013158
0.0002674 0.0000132 -0.0000797 -0.0002400 -0.0002053 -0.0002602 -0.0000248 0.0005388 0.0002139 0.0008691 0.0000891 0.0002824 -0.0001124 0.0003961 0.0000191 0.0002446 -0.0001541 0.0005045 -0.0004757 0.0016693
0.0001523 0.0003535 -0.0000744 0.0000234 -0.0002058 -0.0001456 -0.0000487 0.0007058 0.0001886 0.0010526 0.0001009 0.0005189 -0.0001557 0.0005807 -0.0000140 0.0004131 -0.0001236 0.0006725 0.0000100 0.0014026
-0.0000369 0.0004839 -0.0001195 0.0000309 -0.0002209 -0.0001269 0.0000602 0.0006216 0.0001590 0.0009983 0.0000825 0.0004150 -0.0000255 0.0003846 -0.0000153 0.0002485 -0.0001390 0.0005608 -0.0000187 0.0008505
-0.0000794 0.0002442 -0.0001665 -0.0001841 -0.0002418 -0.0002528 0.0001095 0.0004292 0.0001517 0.0007915 0.0000480 0.0001680 0.0001825 0.0000741 0.0000037 0.0000074 -0.0001423 0.0004365 -0.0000987 0.0005427
-0.0000421 0.0001979 -0.0001593 -0.0001183 -0.0002424 -0.0003119 0.0001113 0.0004076 0.0001625 0.0008140 0.0000392 0.0002085 0.0002435 0.0001508 -0.0000136 0.0000916 -0.0000912 0.0006075 -0.0004361 0.0012830
0.0002092 0.0002019 -0.0001281 0.0001488 -0.0002196 -0.0002449 0.0000767 0.0005374 0.0001623 0.0009685 0.0000568 0.0003582 0.0002927 0.0002124 0.0000123 0.0002506 -0.0000433 0.0008435 -0.0004209 0.0016559
0.0004245 0.0000534 -0.0000877 0.0003178 -0.0002165 -0.0000978 -0.0000113 0.0007041 0.0001496 0.0010549 0.0000506 0.0004012 0.0001518 0.0002889 0.0000540 0.0001801 0.0000243 0.0007633 -0.0000129 0.0007880
0.0000880 0.0000383 -0.0000971 0.0001798 -0.0002186 -0.0001474 -0.0000310 0.0006663 0.0001363 0.0009032 0.0000362 0.0002689 -0.0000615 0.0003979 0.0000371 -0.0000103 0.0000808 0.0005122 -0.0001172 0.0008130
-0.0002025 0.0001490 -0.0000888 0.0000393 -0.0002082 -0.0002856 -0.0000356 0.0005856 0.0001193 0.0008182 0.0000607 0.0002350 -0.0000496 0.0003889 0.0000522 -0.0000702 0.0000796 0.0005743 -0.0000039 0.0008763
-0.0001702 0.0002230 -0.0000421 0.0001290 -0.0002004 -0.0002432 0.0000090 0.0005977 0.0001246 0.0009240 0.0000826 0.0004092 0.0000880 0.0003105 0.0000432 0.0000364 0.0000974 0.0007591 0.0001663 0.0007478
0.0000331 0.0001195 -0.0000613 0.0002889 -0.0002165 -0.0001207 0.0000434 0.0006936 0.0001215 0.0010840 0.0000843 0.0006304 0.0002213 0.0003805 -0.0000039 0.0001851 0.0001169 0.0008809 0.0000162 0.0013022
0.0001295 0.0000687 -0.0001308 0.0002629 -0.0002372 -0.0001043 0.0000489 0.0006904 0.0000934 0.0010633 0.0000464 0.0005683 0.0002271 0.0003434 -0.0000136 0.0000550 0.0001022 0.0007807 0.0000543 0.0009332
0.0001150 -0.0001172 -0.0001674 0.0000882 -0.0002390 -0.0002095 0.0000086 0.0005792 0.0000880 0.0009109 0.0000200 0.0003904 0.0002368 0.0001959 -0.0000152 -0.0001025 0.0001304 0.0006291 -0.0000902 0.0009243
0.0001796 -0.0002645 -0.0001137 0.0000693 -0.0002289 -0.0002309 -0.0000482 0.0006042 0.0000936 0.0009534 0.0000272 0.0004542 0.0001691 0.0003383 0.0000306 -0.0000562 0.0001592 0.0007286 -0.0002979 0.0014041
0.0001200 -0.0001073 -0.0000591 0.0002060 -0.0002230 -0.0001555 -0.0001128 0.0007705 0.0000861 0.0010912 0.0000386 0.0005797 0.0000294 0.0005728 0.0000651 0.0000665 0.0001419 0.0008827 -0.0001513 0.0013765
0.0000155 -0.0000485 -0.0000722 0.0001916 -0.0002297 -0.0001280 -0.0001461 0.0007906 0.0000522 0.0010511 0.0000269 0.0004511 -0.0000381 0.0005191 0.0000257 -0.0000439 0.0001472 0.0007200 0.0000737 0.0008150
-0.0001110 -0.0001581 -0.0001175 -0.0000152 -0.0002393 -0.0002373 -0.0000646 0.0005641 0.0000266 0.0008758 0.0000210 0.0002496 -0.0000328 0.0002950 -0.0000058 -0.0002706 0.0001522 0.0005194 0.0000756 0.0003656
-0.0001582 -0.0001822 -0.0001329 -0.0000251 -0.0002495 -0.0002701 -0.0000259 0.0004813 0.0000132 0.0008598 0.0000410 0.0003104 0.0001628 0.0001516 -0.0000129 -0.0002367 0.0001831 0.0005896 0.0001308 0.0004560
-0.0000912 -0.0000440 -0.0001246 0.0001948 -0.0002502 -0.0000859 -0.0000444 0.0006102 -0.0000138 0.0009198 0.0000609 0.0005151 0.0002677 0.0002242 -0.0000238 -0.0000464 0.0001935 0.0007782 0.0000846 0.0009180
0.0001583 -0.0001084 -0.0001560 0.0002930 -0.0002251 0.0001296 -0.0000710 0.0007409 -0.0000616 0.0007926 0.0000757 0.0005113 0.0002815 0.0002191 -0.0000145 -0.0000987 0.0001628 0.0006527 0.0000428 0.0007602
0.0003905 -0.0006179 -0.0001910 0.0001073 -0.0001876 0.0001063 -0.0001056 0.0006568 -0.0000996 0.0005052 0.0000608 0.0002516 0.0001645 0.0001036 0.0000487 -0.0003486 0.0001898 0.0002972 0.0001212 0.0001599
0.0001139 -0.0007200 -0.0002028 0.0000042 -0.0001750 0.0000033 -0.0000919 0.0005348 -0.0000718 0.0004624 0.0000397 0.0000922 0.0000093 0.0001408 0.0000920 -0.0003511 0.0002611 0.0003022 -0.0000501 0.0005616
-0.0003576 -0.0001510 -0.0001519 0.0000888 -0.0001503 -0.0000099 -0.0000589 0.0005848 -0.0000353 0.0006653 0.0000409 0.0000998 0.0001127 0.0001504 0.0000895 -0.0001605 0.0003493 0.0004780 0.0000326 0.0007568
-0.0004003 0.0000356 -0.0000920 0.0002000 -0.0001403 0.0000402 -0.0000092 0.0006851 -0.0000252 0.0008908 0.0000503 0.0002103 0.0002277 0.0001270 0.0000568 0.0000271 0.0003290 0.0005747 0.0003952 0.0004754
-0.0000447 -0.0002858 -0.0001399 0.0001100 -0.0001733 0.0000186 -0.0000128 0.0006847 -0.0000274 0.0008767 0.0000283 0.0001277 0.0002444 0.0000232 -0.0000121 -0.0000304 0.0002338 0.0004732 0.0004265 0.0002448
0.0001698 -0.0003011 -0.0001667 -0.0000479 -0.0001857 -0.0000699 0.0000037 0.0004644 -0.0000022 0.0007185 -0.0000068 -0.0000394 0.0001789 -0.0001467 0.0000027 -0.0000996 0.0001650 0.0002754 0.0002561 0.0001893
0.0003758 0.0001669 0.0000299 0.0003969 -0.0001366 0.0003226 -0.0000131 0.0002114 0.0000066 0.0007044 0.0000054 0.0001011 0.0002108 -0.0003015 -0.0001230 -0.0001221 0.0000005 0.0000256 0.0000798 0.0004911
0.0006912 0.0006890 0.0002782 0.0010231 -0.0001340 0.0008459 -0.0001859 0.0002362 -0.0000183 0.0009160 0.0000603 0.0004603 0.0000532 -0.0001132 -0.0003355 -0.0001342 -0.0001542 -0.0000880 -0.0002714 0.0010506
0.0007089 0.0010295 0.0003339 0.0011036 -0.0001783 0.0008954 -0.0003041 0.0003993 0.0000149 0.0011251 0.0000696 0.0005541 -0.0002643 0.0000907 -0.0003809 -0.0001508 -0.0001861 -0.0001584 -0.0003596 0.0010408
0.0006109 0.0009183 0.0002916 0.0008411 -0.0001874 0.0006524 -0.0003061 0.0003537 0.0000664 0.0011081 0.0000422 0.0003937 -0.0003521 0.0000794 -0.0004106 -0.0002917 -0.0001467 -0.0002693 -0.0000699 0.0006135
0.0004749 0.0007032 0.0002586 0.0005827 -0.0002258 0.0003138 -0.0002004 0.0001482 0.0000961 0.0012132 0.0000448 0.0003650 -0.0002133 0.0000912 -0.0004311 -0.0003142 -0.0000765 -0.0001996 0.0001772 0.0005470
0.0003315 0.0008469 0.0002313 0.0005062 -0.0002788 0.0001376 -0.0001825 0.0001321 0.0001111 0.0014506 0.0000598 0.0004349 0.0000123 0.0000724 -0.0004243 -0.0002435 -0.0000961 -0.0001228 0.0001145 0.0007691
0.0003268 0.0010578 0.0002091 0.0005670 -0.0002678 0.0002145 -0.0002846 0.0002572 0.0000743 0.0014320 0.0000345 0.0003833 0.0001143 -0.0000815 -0.0004391 -0.0003578 -0.0001770 -0.0003344 0.0001399 0.0003082
0.0004504 0.0009664 0.0001783 0.0004750 -0.0002408 0.0002915 -0.0003250 0.0001126 0.0000324 0.0011546 -0.0000097 0.0001334 0.0001679 -0.0003887 -0.0004113 -0.0006014 -0.0001664 -0.0005690 -0.0002019 0.0000182
0.0006001 0.0007608 0.0001610 0.0003764 -0.0002512 0.0002582 -0.0003643 -0.0000826 0.0000248 0.0010084 -0.0000312 0.0000134 0.0002611 -0.0005616 -0.0002989 -0.0006508 -0.0000562 -0.0004797 -0.0004442 0.0002873
0.0005027 0.0007941 0.0001670 0.0004816 -0.0002724 0.0001860 -0.0003701 -0.0001035 0.0000256 0.0010844 -0.0000162 0.0000829 0.0002254 -0.0004924 -0.0002169 -0.0005039 0.0000586 -0.0002911 -0.0002497 0.0003785
0.0003195 0.0007800 0.0001651 0.0005487 -0.0002807 0.0001171 -0.0003852 0.0000048 0.0000253 0.0011982 0.0000075 0.0000655 -0.0000276 -0.0003369 -0.0001722 -0.0005239 0.0001693 -0.0003060 -0.0004353 0.0001571
0.0001535 0.0004296 0.0000717 0.0002474 -0.0002834 -0.0000647 -0.0003213 0.0000161 0.0000138 0.0010999 -0.0000219 -0.0001530 -0.0000864 -0.0004833 -0.0001141 -0.0007351 0.0002698 -0.0004930 -0.0002170 -0.0006817
-0.0000053 -0.0000204 -0.0000256 -0.0000989 -0.0002704 -0.0002587 -0.0002328 -0.0000149 0.0000214 0.0009203 -0.0000484 -0.0003478 0.0000626 -0.0006637 -0.0000687 -0.0007060 0.0002630 -0.0004755 0.0000732 -0.0007290
-0.0001358 -0.0000341 -0.0000561 -0.0000887 -0.0002466 -0.0002372 -0.0001180 -0.0000052 0.0000224 0.0008985 -0.0000338 -0.0002917 0.0001872 -0.0006205 -0.0000305 -0.0005753 0.0002687 -0.0003412 0.0004486 -0.0005861
-0.0001588 0.0000944 -0.0000390 0.0000505 -0.0002309 -0.0001143 -0.0000497 -0.0000214 0.0000132 0.0009849 -0.0000155 -0.0001227 0.0003960 -0.0006949 0.0000121 -0.0003628 0.0003291 -0.0001278 0.0004422 -0.0003117
0.0002948 -0.0000501 -0.0000039 0.0002204 -0.0002107 0.0000961 -0.0001354 0.0001145 0.0000063 0.0010540 0.0000652 0.0001860 0.0004048 -0.0006242 0.0000078 -0.0002863 0.0002682 -0.0001873 -0.0000481 0.0003218
0.0006031 -0.0002100 -0.0000537 0.0001232 -0.0001473 0.0002697 -0.0001603 0.0001927 -0.0000018 0.0008068 0.0002201 0.0006979 0.0001332 -0.0003466 0.0000071 -0.0003656 0.0001914 -0.0004448 -0.0000348 0.0003316
0.0006362 -0.0003580 -0.0000743 -0.0000757 -0.0000548 0.0003953 -0.0001202 0.0001457 0.0000355 0.0006373 0.0003308 0.0010436 -0.0000232 -0.0002684 0.0000608 -0.0001860 0.0002153 -0.0004364 0.0001808 0.0002298
0.0003255 -0.0001315 0.0000124 -0.0000841 -0.0000169 0.0004632 -0.0000767 0.0001508 0.0000754 0.0007833 0.0003352 0.0011179 -0.0000659 -0.0001424 0.0000983 0.0000869 0.0002510 -0.0002567 0.0002212 0.0005538
-0.0002375 0.0004707 0.0000908 0.0000675 -0.0000474 0.0003987 -0.0001197 0.0002685 0.0000879 0.0010169 0.0002613 0.0009477 -0.0000621 -0.0000901 0.0001140 0.0003645 0.0002496 0.0000416 0.0002611 0.0007035
-0.0003949 0.0006074 0.0000994 0.0000567 -0.0001051 0.0003176 -0.0001558 0.0002605 0.0000777 0.0010812 0.0001597 0.0005178 0.0000736 -0.0004534 0.0001244 0.0003052 0.0002000 0.0000522 0.0004644 0.0001499
-0.0002273 0.0001464 0.0000139 -0.0001153 -0.0001428 0.0001877 -0.0000720 0.0001264 0.0000704 0.0009527 0.0000973 0.0001927 0.0001612 -0.0005497 0.0001127 0.0001184 0.0001910 -0.0001291 0.0005505 -0.0002799
-0.0000286 0.0000247 -0.0000635 -0.0000385 -0.0001729 0.0001344 -0.0000463 0.0001875 0.0000693 0.0009333 0.0000994 0.0002281 0.0002431 -0.0004753 0.0000446 0.0001502 0.0002179 -0.0001143 0.0003759 0.0001756
0.0004580 0.0000639 -0.0000256 0.0002551 -0.0001164 0.0004886 -0.0000579 0.0003278 0.0000123 0.0008978 0.0001625 0.0005884 0.0002448 -0.0005142 0.0000496 0.0002371 0.0001985 0.0000566 -0.0000317 0.0008409
0.0008762 -0.0001516 0.0000291 0.0003600 -0.0000399 0.0008397 -0.0001156 0.0003979 -0.0000414 0.0007900 0.0001642 0.0006217 0.0000922 -0.0005102 0.0000805 0.0002062 0.0001336 0.0000393 -0.0002297 0.0006728
0.0006249 -0.0000848 0.0000195 0.0001374 -0.0000633 0.0006704 -0.0002157 0.0003914 -0.0000314 0.0006547 0.0000973 0.0002404 -0.0001546 -0.0004119 0.0000778 0.0000197 0.0001780 -0.0001941 0.0000199 0.0001395
0.0000204 0.0002235 0.0000512 0.0000314 -0.0000915 0.0004136 -0.0001867 0.0003278 0.0000160 0.0006463 0.0000762 0.0000291 -0.0001802 -0.0003748 0.0001041 -0.0000826 0.0002729 -0.0002259 0.0002268 0.0000772
-0.0002932 0.0002796 0.0001290 0.0001224 -0.0001025 0.0003505 -0.0000813 0.0003089 0.0000332 0.0008138 0.0000833 0.0000620 0.0000179 -0.0004019 0.0000573 -0.0000176 0.0002495 -0.0000628 0.0001742 0.0005527
-0.0003083 0.0004522 0.0001186 0.0003192 -0.0001146 0.0003730 -0.0000505 0.0004625 0.0000085 0.0009646 0.0000778 0.0001184 0.0002013 -0.0004054 -0.0000264 -0.0000330 0.0001926 -0.0000337 0.0003096 0.0003710
-0.0001285 0.0004000 0.0000094 0.0002482 -0.0001345 0.0002697 -0.0000278 0.0003905 0.0000126 0.0008355 0.0000464 -0.0001193 0.0002457 -0.0005291 -0.0000477 -0.0002653 0.0002457 -0.0002622 0.0003738 -0.0003660
0.0002451 -0.0002035 -0.0000524 0.0000153 -0.0001697 0.0000728 0.0000416 0.0001129 0.0000581 0.0006625 0.0000152 -0.0003342 0.0002805 -0.0006418 0.0000187 -0.0004059 0.0003591 -0.0003265 0.0001274 -0.0003636
0.0002720 -0.0002283 -0.0000281 0.0000454 -0.0001994 0.0000076 0.0000069 0.0001619 0.0000853 0.0007605 0.0000075 -0.0002728 0.0002934 -0.0005419 0.0000735 -0.0002956 0.0004303 -0.0001224 -0.0001252 0.0001397
0.0003322 -0.0000324 0.0000243 0.0001446 -0.0002130 0.0000171 -0.0001237 0.0003709 0.0000985 0.0009372 0.0000210 -0.0001352 0.0003572 -0.0004718 0.0000926 -0.0000638 0.0004399 0.0001670 -0.0001763 0.0006000
0.0004204 -0.0001615 0.0000567 0.0000893 -0.0002228 0.0000394 -0.0001890 0.0004040 0.0000918 0.0009658 0.0000149 -0.0001796 0.0002478 -0.0004533 0.0000733 -0.0001084 0.0004234 0.0001217 0.0001551 0.0001553
0.0000681 -0.0002959 0.0000257 -0.0001079 -0.0002248 -0.0000773 -0.0001713 0.0003044 0.0000831 0.0008119 -0.0000015 -0.0003471 0.0000209 -0.0003953 0.0000592 -0.0002891 0.0004460 -0.0001264 0.0005533 -0.0004878
-0.0003832 -0.0000172 0.0000209 -0.0001656 -0.0002345 -0.0001600 -0.0001290 0.0002715 0.0000949 0.0007829 0.0000215 -0.0003405 0.0000108 -0.0002600 0.0000866 -0.0002554 0.0004520 -0.0000444 0.0004902 -0.0000570
-0.0004102 0.0001576 0.0000423 -0.0000423 -0.0002589 -0.0000777 -0.0000651 0.0002819 0.0000950 0.0009287 0.0000603 -0.0002082 0.0001909 -0.0002451 0.0000589 -0.0000695 0.0004636 0.0001798 0.0005380 0.0002176
0.0001899 -0.0001856 0.0000165 0.0001231 -0.0002764 0.0000365 -0.0000871 0.0003996 0.0000795 0.0010985 0.0000543 -0.0000741 0.0003404 -0.0003223 0.0000313 -0.0000286 0.0004752 0.0002045 0.0004680 0.0001208
0.0004939 -0.0003741 -0.0000603 0.0000448 -0.0002824 0.0000141 -0.0001219 0.0003929 0.0000815 0.0010095 0.0000087 -0.0001552 0.0003039 -0.0003728 0.0000068 -0.0001457 0.0004955 0.0000321 0.0001865 -0.0000899
0.0003207 -0.0003917 -0.0000897 -0.0001204 -0.0002854 -0.0000904 -0.0001157 0.0002803 0.0001043 0.0008459 -0.0000144 -0.0002532 0.0003489 -0.0004719 0.0000276 -0.0002373 0.0005324 -0.0000036 0.0002739 -0.0003183
0.0002756 -0.0003865 -0.0000046 -0.0000696 -0.0002655 -0.0000691 -0.0001764 0.0003118 0.0001054 0.0009331 -0.0000021 -0.0001616 0.0002864 -0.0002959 0.0000794 -0.0001731 0.0005289 0.0001799 0.0002215 0.0000573
0.0001122 -0.0001041 0.0000409 0.0000404 -0.0002499 0.0000352 -0.0002595 0.0004614 0.0000899 0.0010959 0.0000148 -0.0000356 0.0000856 -0.0000366 0.0000572 -0.0000642 0.0004634 0.0002346 0.0001018 0.0000193
0.0000383 -0.0001633 -0.0000129 -0.0001079 -0.0002626 0.0000303 -0.0002346 0.0004013 0.0000693 0.0009309 0.0000280 -0.0000743 0.0000211 -0.0000904 0.0000007 -0.0002385 0.0003952 0.0000246 0.0005450 -0.0007630
-0.0001066 -0.0003203 -0.0000372 -0.0002891 -0.0002618 -0.0000762 -0.0001146 0.0001532 0.0000574 0.0006885 0.0000516 -0.0001623 0.0001576 -0.0002902 -0.0000141 -0.0003692 0.0004179 -0.0000519 0.0007274 -0.0007386
-0.0001838 -0.0000361 -0.0000079 -0.0001145 -0.0002451 -0.0000467 -0.0000975 0.0001455 0.0000587 0.0007294 0.0000754 -0.0000718 0.0002881 -0.0002682 0.0000059 -0.0002210 0.0004229 0.0001020 0.0004102 -0.0000292
-0.0001481 0.0004507 0.0000525 0.0001902 -0.0002033 0.0000994 -0.0001665 0.0002774 0.0000492 0.0007883 0.0000903 0.0001135 0.0003407 -0.0002029 -0.0000117 -0.0000219 0.0003533 0.0002316 0.0003103 0.0003168
0.0002113 0.0002279 0.0000439 0.0002594 -0.0001966 0.0001775 -0.0001594 0.0002885 0.0000354 0.0006705 0.0000645 0.0000588 0.0003005 -0.0002372 -0.0000160 -0.0001310 0.0003247 0.0000177 0.0001963 0.0000390
0.0005554 -0.0004290 -0.0000370 0.0000320 -0.0002142 0.0000656 -0.0001260 0.0001334 0.0000626 0.0004806 0.0000282 -0.0001851 0.0002132 -0.0002914 0.0000216 -0.0003323 0.0004021 -0.0002138 0.0002427 -0.0004670
0.0004379 -0.0004039 -0.0000634 -0.0000426 -0.0002187 -0.0000124 -0.0001322 0.0000763 0.0000924 0.0005112 0.0000286 -0.0002029 0.0001656 -0.0002254 0.0000596 -0.0002973 0.0004913 -0.0001291 0.0003503 -0.0003385
0.0002787 -0.0001710 0.0000216 0.0000725 -0.0002067 0.0000284 -0.0001828 0.0001927 0.0000926 0.0006622 0.0000647 -0.0000838 0.0000382 -0.0000342 0.0000773 -0.0001293 0.0005062 0.0000922 0.0004610 -0.0001551
0.0000680 0.0000819 0.0000729 0.0002153 -0.0002001 0.0001307 -0.0002088 0.0003129 0.0000837 0.0008108 0.0000920 0.0000685 -0.0000373 0.0000864 0.0000302 -0.0000590 0.0004796 0.0001240 0.0007259 -0.0005716
-0.0001972 0.0002116 0.0000183 0.0000910 -0.0002241 0.0001318 -0.0001918 0.0002806 0.0000609 0.0006802 0.0000654 -0.0000212 -0.0000124 0.0000199 -0.0000205 -0.0001891 0.0004424 -0.0001099 0.0006953 -0.0006861
-0.0003650 0.0002410 -0.0000124 -0.0001212 -0.0002293 0.0000491 -0.0001035 0.0001062 0.0000480 0.0004785 0.0000656 -0.0001320 0.0001642 -0.0002283 -0.0000248 -0.0001425 0.0004092 -0.0000793 0.0004555 -0.0003130
-0.0002799 0.0003017 -0.0000119 -0.0000606 -0.0002024 0.0001554 -0.0000443 0.0000261 0.0000446 0.0005011 0.0001128 0.0000489 0.0003212 -0.0002536 0.0000043 0.0000734 0.0003914 0.0000790 0.0002638 0.0001599
0.0001480 0.0002012 -0.0000472 0.0001078 -0.0001876 0.0002937 -0.0000980 0.0001398 0.0000227 0.0005864 0.0001478 0.0002650 0.0003296 -0.0000761 0.0000452 0.0001675 0.0003624 0.0001034 0.0004060 0.0001223
0.0004303 0.0000617 -0.0000958 0.0001186 -0.0001798 0.0002883 -0.0001349 0.0001915 0.0000277 0.0004585 0.0001258 0.0001682 0.0002050 -0.0000522 0.0000575 0.0000075 0.0003893 -0.0000849 0.0003262 -0.0002525
0.0004772 -0.0001582 -0.0000853 0.0000016 -0.0001634 0.0002141 -0.0001316 0.0000949 0.0000592 0.0002478 0.0001028 0.0000066 0.0000195 -0.0000664 0.0000708 -0.0001063 0.0004483 -0.0002014 0.0000319 -0.0000069
0.0003036 -0.0000193 0.0000011 -0.0000119 -0.0001482 0.0002076 -0.0001455 0.0000835 0.0000784 0.0002993 0.0001152 0.0000697 0.0000389 0.0000108 0.0000728 0.0000162 0.0004418 -0.0000286 0.0001589 0.0003650
-0.0000251 0.0004583 0.0000377 0.0001195 -0.0001522 0.0002785 -0.0001679 0.0002055 0.0000820 0.0004806 0.0001301 0.0001975 0.0000379 0.0001663 0.0000522 0.0001617 0.0004165 0.0001766 0.0004898 0.0003514
-0.0002381 0.0006378 0.0000275 0.0000902 -0.0001616 0.0002711 -0.0001758 0.0002096 0.0000709 0.0004575 0.0001191 0.0001048 -0.0000247 0.0000878 0.0000125 0.0000158 0.0003511 0.0000048 0.0006932 -0.0003144
-0.0003323 0.0004869 -0.0000145 -0.0001703 -0.0001645 0.0001342 -0.0001071 -0.0000574 0.0000694 0.0002311 0.0000793 -0.0001648 -0.0000121 -0.0001115 -0.0000098 -0.0002182 0.0003482 -0.0003007 0.0005803 -0.0007435
-0.0002735 0.0003825 -0.0000635 -0.0002079 -0.0001898 0.0000219 -0.0000668 -0.0002210 0.0001018 0.0001789 0.0000750 -0.0002411 0.0001706 -0.0003603 -0.0000047 -0.0001943 0.0004143 -0.0002489 0.0003129 -0.0004010
0.0001530 0.0001630 -0.0000675 -0.0000419 -0.0002124 0.0000233 -0.0000811 -0.0001719 0.0001279 0.0003032 0.0000784 -0.0001390 0.0004120 -0.0005543 0.0000255 -0.0000838 0.0004385 -0.0000518 0.0003097 -0.0001524
0.0005789 -0.0000975 -0.0000857 0.0001333 -0.0002092 0.0001126 -0.0000738 -0.0000439 0.0001288 0.0004366 0.0000543 -0.0000597 0.0003278 -0.0004362 0.0000223 -0.0000842 0.0003919 -0.0000134 0.0002794 -0.0002549
0.0003915 -0.0000560 -0.0001225 -0.0000382 -0.0002105 0.0000557 -0.0001082 -0.0000686 0.0001267 0.0002868 0.0000368 -0.0002355 0.0001628 -0.0003725 0.0000420 -0.0002773 0.0003760 -0.0001980 -0.0000033 -0.0003057
-0.0000458 0.0000568 -0.0000648 -0.0003078 -0.0001967 -0.0000919 -0.0001110 -0.0002412 0.0001358 0.0000870 0.0000404 -0.0003559 0.0002299 -0.0004649 0.0001113 -0.0003632 0.0004662 -0.0002902 0.0000807 -0.0002158
-0.0002923 0.0001877 0.0000209 -0.0002731 -0.0001760 -0.0000664 -0.0000977 -0.0002442 0.0001508 0.0001463 0.0000729 -0.0002518 0.0001136 -0.0003045 0.0000865 -0.0002114 0.0004736 -0.0001359 0.0001660 0.0001641
-0.0003129 0.0004421 0.0000123 -0.0000673 -0.0001741 0.0000331 -0.0000955 -0.0001020 0.0001452 0.0003001 0.0000958 -0.0000614 0.0000200 -0.0000571 0.0000451 0.0000092 0.0004143 0.0000616 0.0003053 0.0004302
-0.0004113 0.0006326 -0.0000565 0.0000021 -0.0001742 0.0000759 -0.0000295 -0.0000960 0.0001409 0.0002384 0.0000906 -0.0001106 0.0000980 -0.0001681 0.0000364 -0.0000672 0.0004098 -0.0001161 0.0002929 0.0001653
-0.0003135 0.0003478 -0.0001034 -0.0001622 -0.0001825 0.0000100 0.0000146 -0.0002518 0.0001510 0.0000566 0.0000748 -0.0002724 0.0002219 -0.0003944 0.0000351 -0.0002153 0.0004015 -0.0002708 0.0001522 -0.0000932
-0.0002210 0.0004060 -0.0000822 -0.0001282 -0.0001961 -0.0000132 0.0000561 -0.0003314 0.0001745 0.0000929 0.0000630 -0.0002141 0.0003526 -0.0004008 0.0000563 -0.0001116 0.0003723 -0.0000664 0.0003601 0.0000649
0.0000492 0.0005077 -0.0000643 0.0001110 -0.0002017 0.0000579 -0.0000041 -0.0001725 0.0001830 0.0002407 0.0000678 -0.0000836 0.0003744 -0.0002507 0.0000748 0.0000637 0.0003704 0.0001972 0.0002873 0.0004627
0.0003710 0.0002142 -0.0000567 0.0001527 -0.0001893 0.0000914 -0.0000852 -0.0000796 0.0001717 0.0002112 0.0000688 -0.0001783 0.0002685 -0.0002517 0.0000814 -0.0000074 0.0004384 0.0000910 0.0002048 0.0000398
0.0000826 0.0002071 -0.0000699 -0.0000489 -0.0002059 -0.0000025 -0.0000653 -0.0002527 0.0001666 -0.0000337 0.0000594 -0.0003873 0.0001352 -0.0003660 0.0000973 -0.0002397 0.0005004 -0.0001538 0.0002799 -0.0003811
-0.0002324 0.0004182 -0.0000449 -0.0001330 -0.0002067 -0.0000913 -0.0001119 -0.0003297 0.0001675 -0.0001030 0.0000677 -0.0004035 0.0001303 -0.0003701 0.0001237 -0.0002708 0.0005483 -0.0000589 0.0001004 -0.0000116
-0.0002785 0.0005662 -0.0000114 -0.0000359 -0.0001888 -0.0000535 -0.0000991 -0.0003338 0.0001758 0.0000103 0.0000905 -0.0002964 0.0001350 -0.0002779 0.0001073 -0.0000941 0.0005349 0.0001731 0.0001210 0.0002817
-0.0002702 0.0006448 -0.0000321 0.0001174 -0.0002015 0.0000498 -0.0000811 -0.0002583 0.0001684 0.0001261 0.0000823 -0.0001867 0.0001314 -0.0002866 0.0000471 -0.0000432 0.0004489 0.0001877 0.0002896 0.0000487
-0.0003131 0.0005629 -0.0000897 -0.0000254 -0.0002020 -0.0000210 -0.0000412 -0.0003962 0.0001462 -0.0000524 0.0000643 -0.0003053 0.0002275 -0.0004405 0.0000316 -0.0002588 0.0004147 -0.0000609 0.0002453 -0.0005116
-0.0003114 0.0003555 -0.0001175 -0.0002407 -0.0001940 -0.0001622 0.0000576 -0.0006547 0.0001673 -0.0002916 0.0000964 -0.0003607 0.0003803 -0.0005703 0.0000767 -0.0003747 0.0004612 -0.0001674 0.0001371 -0.0003114
-0.0000601 0.0002568 -0.0000849 -0.0001398 -0.0001911 -0.0001288 0.0000358 -0.0005813 0.0001955 -0.0002021 0.0001271 -0.0002126 0.0004311 -0.0005531 0.0001089 -0.0002653 0.0004987 0.0000292 0.0000875 0.0003126
0.0000392 0.0004686 -0.0000745 0.0000679 -0.0001952 -0.0000190 -0.0000175 -0.0004183 0.0001980 -0.0000269 0.0001257 -0.0000729 0.0003144 -0.0003492 0.0001367 -0.0000641 0.0004870 0.0003374 0.0000442 0.0007944
0.0000174 0.0006191 -0.0000864 0.0002284 -0.0002113 0.0001136 -0.0000413 -0.0003020 0.0001893 0.0000583 0.0001148 -0.0000553 0.0001893 -0.0002867 0.0001491 -0.0001018 0.0004868 0.0002534 0.0000203 0.0005261
-0.0001228 0.0005165 -0.0000932 0.0000339 -0.0002158 0.0000429 -0.0000561 -0.0003994 0.0001650 -0.0000837 0.0000826 -0.0001996 0.0000815 -0.0003210 0.0001178 -0.0002489 0.0004941 0.0000007 0.0001338 -0.0000380
-0.0003491 0.0005886 -0.0000901 -0.0001353 -0.0002154 -0.0000810 -0.0000359 -0.0005372 0.0001594 -0.0001853 0.0000947 -0.0002627 0.0000255 -0.0002832 0.0000768 -0.0002030 0.0004815 0.0000280 0.0004169 0.0000738
-0.0003966 0.0007863 -0.0000644 -0.0000053 -0.0002204 -0.0000309 -0.0000565 -0.0004537 0.0001715 -0.0000859 0.0001234 -0.0001424 0.0000679 -0.0002521 0.0000544 -0.0000466 0.0004244 0.0002036 0.0003385 0.0006961
-0.0003395 0.0008195 -0.0000798 0.0001959 -0.0002506 0.0000858 -0.0000348 -0.0003471 0.0001608 0.0000708 0.0001175 0.0000338 0.0001211 -0.0001623 0.0000234 0.0000155 0.0003767 0.0002598 0.0001620 0.0005990
-0.0003182 0.0007536 -0.0001328 0.0001190 -0.0002780 0.0000851 -0.0000232 -0.0004031 0.0001279 -0.0000299 0.0000829 -0.0000657 0.0002890 -0.0003517 0.0000082 -0.0001269 0.0003581 0.0001288 -0.0001078 0.0001745
-0.0001649 0.0005435 -0.0001586 -0.0000823 -0.0002685 -0.0000346 -0.0000192 -0.0005529 0.0001328 -0.0002456 0.0000741 -0.0002442 0.0003124 -0.0004959 0.0000213 -0.0001985 0.0003413 0.0001351 -0.0002308 0.0003445
0.0000678 0.0003631 -0.0001476 -0.0000153 -0.0002563 -0.0000538 -0.0000429 -0.0005548 0.0001560 -0.0001956 0.0000873 -0.0001466 0.0002005 -0.0003194 0.0000411 -0.0000706 0.0003687 0.0002866 -0.0000758 0.0006281
-0.0000116 0.0006379 -0.0001223 0.0001712 -0.0002472 0.0000456 -0.0001159 -0.0003790 0.0001474 -0.0000193 0.0000942 0.0000425 0.0000808 -0.0000484 0.0000564 0.0000778 0.0003915 0.0004249 -0.0002376 0.0009694
-0.0002308 0.0008224 -0.0001025 0.0000984 -0.0002357 0.0000689 -0.0001343 -0.0003648 0.0001250 -0.0001205 0.0000813 -0.0000597 0.0000868 -0.0001540 0.0000528 -0.0000883 0.0004053 0.0002107 -0.0001088 0.0003723
-0.0004161 0.0006581 -0.0001104 -0.0001699 -0.0002181 -0.0000466 -0.0001154 -0.0005568 0.0001105 -0.0003995 0.0000759 -0.0002777 0.0001482 -0.0004714 0.0000611 -0.0003167 0.0003743 0.0000279 0.0000985 -0.0000408
-0.0004284 0.0006293 -0.0001174 -0.0001445 -0.0002087 -0.0000882 -0.0001008 -0.0005686 0.0001184 -0.0004102 0.0001008 -0.0002400 0.0001000 -0.0003516 0.0000746 -0.0002500 0.0003423 0.0002376 0.0002966 0.0001477
-0.0003899 0.0007924 -0.0001197 0.0000716 -0.0002294 0.0000071 -0.0000504 -0.0005283 0.0001311 -0.0002631 0.0001234 -0.0000904 0.0000588 -0.0001410 0.0000555 -0.0000389 0.0003574 0.0004502 0.0005753 0.0003605
-0.0003815 0.0009486 -0.0001313 0.0002254 -0.0002334 0.0001963 0.0000016 -0.0005497 0.0001335 -0.0001199 0.0001239 -0.0000301 0.0002937 -0.0003082 0.0000457 0.0000900 0.0002669 0.0004463 0.0003951 0.0002768
-0.0003616 0.0009068 -0.0001545 0.0000317 -0.0002346 0.0002005 0.0000016 -0.0005882 0.0000960 -0.0003139 0.0002002 0.0002426 0.0004728 -0.0002579 -0.0000119 -0.0001394 0.0002529 0.0002733 -0.0001263 0.0004063
-0.0000324 0.0003263 -0.0002104 -0.0000717 -0.0002213 0.0000328 -0.0000309 -0.0004623 0.0000579 -0.0005973 0.0002688 0.0004397 0.0004242 -0.0000819 0.0000331 -0.0001109 0.0003448 0.0003684 -0.0001531 0.0005075
0.0001935 -0.0000725 -0.0002168 0.0000712 -0.0001813 0.0000647 -0.0000883 -0.0003947 0.0000763 -0.0005231 0.0001898 0.0001726 0.0002465 -0.0001407 0.0001951 0.0001567 0.0003952 0.0006261 -0.0001223 0.0004659
-0.0001572 0.0002241 -0.0002125 0.0001391 -0.0002097 0.0002085 -0.0001453 -0.0003763 0.0001007 -0.0002847 0.0001135 0.0000630 -0.0000085 -0.0000290 0.0002490 0.0002972 0.0004311 0.0007928 -0.0003997 0.0010506
-0.0005000 0.0006324 -0.0001919 0.0000796 -0.0002365 0.0002508 -0.0001558 -0.0003471 0.0000796 -0.0002824 0.0001065 0.0000233 -0.0001442 -0.0000210 0.0001989 0.0002672 0.0003888 0.0006176 -0.0003163 0.0009463
-0.0004820 0.0005793 -0.0001428 -0.0000754 -0.0002307 0.0001992 -0.0000859 -0.0004829 0.0000682 -0.0004084 0.0001277 -0.0000470 -0.0001202 -0.0001632 0.0001392 0.0001427 0.0003060 0.0004570 -0.0000258 0.0005563
-0.0003839 0.0004541 -0.0001461 -0.0000227 -0.0002368 0.0001776 -0.0000599 -0.0004271 0.0000880 -0.0003720 0.0001364 0.0000219 0.0000932 -0.0002689 0.0001339 0.0002296 0.0003085 0.0006195 0.0002684 0.0007061
-0.0004150 0.0007841 -0.0001503 0.0002015 -0.0002382 0.0002178 -0.0000241 -0.0003367 0.0000908 -0.0002133 0.0001295 0.0001230 0.0003568 -0.0003299 0.0001161 0.0003887 0.0003257 0.0007978 0.0001899 0.0010434
-0.0003999 0.0008685 -0.0001655 0.0002736 -0.0002458 0.0002374 0.0000001 -0.0003722 0.0000852 -0.0001885 0.0001013 0.0000148 0.0004601 -0.0004640 0.0001237 0.0002920 0.0002997 0.0006907 -0.0001528 0.0008661
-0.0000509 0.0004712 -0.0001905 0.0000794 -0.0002528 0.0001302 -0.0000569 -0.0004734 0.0000900 -0.0003341 0.0000868 -0.0002065 0.0003624 -0.0005299 0.0001384 0.0000674 0.0003126 0.0004833 -0.0001265 0.0005192
0.0002070 0.0003533 -0.0001636 0.0000302 -0.0002441 0.0000234 -0.0000467 -0.0005766 0.0001341 -0.0003350 0.0000714 -0.0002745 0.0000830 -0.0004416 0.0001743 0.0000318 0.0003408 0.0004342 -0.0001983 0.0007245
0.0002625 0.0004473 -0.0001076 0.0001847 -0.0002504 0.0000284 0.0000070 -0.0006216 0.0001795 -0.0002193 0.0000465 -0.0002327 0.0000168 -0.0004752 0.0001994 0.0001131 0.0003457 0.0004770 -0.0002612 0.0009363
0.0000242 0.0007262 -0.0000741 0.0000371 -0.0002656 -0.0000040 -0.0000345 -0.0005901 0.0001831 -0.0001752 0.0000298 -0.0002919 0.0001857 -0.0005300 0.0001502 0.0000212 0.0002829 0.0003413 -0.0003500 0.0006129
-0.0002779 0.0010242 -0.0001846 -0.0006818 -0.0002637 -0.0002067 -0.0000817 -0.0005995 0.0001520 -0.0004403 0.0001345 -0.0001996 0.0000917 -0.0003890 0.0000629 -0.0003080 0.0002110 -0.0000655 -0.0000601 -0.0002034
-0.0003841 0.0010967 -0.0003248 -0.0012922 -0.0002687 -0.0003779 -0.0000272 -0.0007888 0.0001449 -0.0006592 0.0002224 -0.0000210 0.0000328 -0.0003569 0.0000597 -0.0003736 0.0002261 -0.0001890 0.0003193 -0.0003103
-0.0004805 0.0009538 -0.0003201 -0.0011327 -0.0002769 -0.0004364 0.0000609 -0.0009626 0.0001958 -0.0004795 0.0001593 -0.0001518 0.0001359 -0.0004443 0.0001380 -0.0000948 0.0002667 -0.0000154 0.0001215 0.0002830
-0.0004455 0.0008994 -0.0003005 -0.0007446 -0.0002961 -0.0003893 0.0000563 -0.0008799 0.0002354 -0.0001444 0.0001099 -0.0001931 0.0003385 -0.0005424 0.0001644 0.0000959 0.0002227 0.0001080 -0.0000680 0.0003152
0.0000402 0.0005501 -0.0003367 -0.0007698 -0.0003054 -0.0003569 0.0000249 -0.0008542 0.0002224 -0.0001336 0.0000798 -0.0003538 0.0003850 -0.0007107 0.0001527 -0.0000268 0.0001698 -0.0000028 -0.0001192 -0.0002063
0.0003810 0.0000754 -0.0003601 -0.0009533 -0.0003058 -0.0004407 -0.0000229 -0.0008994 0.0002197 -0.0002962 0.0000601 -0.0005573 0.0002540 -0.0007094 0.0001888 -0.0001394 0.0002422 -0.0000385 -0.0000026 -0.0002606
0.0002115 0.0002338 -0.0003202 -0.0008526 -0.0003107 -0.0004131 -0.0000876 -0.0007850 0.0002255 -0.0001830 0.0000795 -0.0004642 0.0002146 -0.0005934 0.0002505 -0.0000491 0.0003332 0.0001455 -0.0001105 0.0002730
0.0001195 0.0004257 -0.0002239 -0.0006113 -0.0002950 -0.0003115 -0.0001380 -0.0005992 0.0002044 0.0000542 0.0001090 -0.0002802 0.0000990 -0.0003463 0.0002403 0.0001445 0.0003590 0.0003526 -0.0002592 0.0008507
-0.0000174 0.0006954 -0.0001606 -0.0003529 -0.0003043 -0.0001410 -0.0002377 -0.0003259 0.0001688 0.0002429 0.0001213 -0.0001457 -0.0000892 -0.0000802 0.0002080 0.0001220 0.0003365 0.0003307 -0.0003785 0.0010651
-0.0001217 0.0006927 -0.0001888 -0.0004444 -0.0003284 -0.0001471 -0.0002181 -0.0003503 0.0001285 0.0001620 0.0001085 -0.0002141 0.0000023 -0.0002494 0.0001949 -0.0000561 0.0003249 0.0001638 -0.0003035 0.0007754
-0.0002963 0.0005798 -0.0002198 -0.0006321 -0.0003148 -0.0002541 -0.0000974 -0.0005282 0.0000985 0.0000684 0.0001099 -0.0002543 0.0000752 -0.0003784 0.0001822 -0.0000514 0.0003246 0.0001674 -0.0000017 0.0006614
-0.0004057 0.0007033 -0.0002144 -0.0004866 -0.0002906 -0.0001525 -0.0000885 -0.0003923 0.0000634 0.0001779 0.0001540 -0.0000218 0.0001821 -0.0003152 0.0001192 0.0001298 0.0002563 0.0003515 0.0001684 0.0007175
-0.0003613 0.0010111 -0.0002041 -0.0001953 -0.0002088 0.0002630 -0.0001279 -0.0001253 -0.0000071 0.0002324 0.0002348 0.0004390 0.0002411 -0.0002645 0.0000684 0.0002408 0.0001667 0.0004176 0.0000569 0.0005640
-0.0000331 0.0008808 -0.0002508 -0.0001611 -0.0001457 0.0005945 -0.0001232 -0.0001634 -0.0000729 0.0000290 0.0002242 0.0004873 0.0000962 -0.0002996 0.0000654 0.0001457 0.0001017 0.0003027 -0.0002625 0.0003169
0.0002253 0.0004835 -0.0002913 -0.0002688 -0.0001808 0.0005105 -0.0001509 -0.0002463 -0.0000796 -0.0001187 0.0001400 0.0002177 0.0000474 -0.0003554 0.0000953 0.0000661 0.0000812 0.0003365 -0.0006437 0.0007236
0.0003342 0.0004037 -0.0002615 -0.0001187 -0.0002051 0.0004302 -0.0001628 -0.0001601 -0.0000628 0.0000147 0.0001119 0.0002299 0.0000335 -0.0003125 0.0001239 0.0001305 0.0001638 0.0004251 -0.0006921 0.0012479
0.0004395 0.0004453 -0.0001813 0.0000879 -0.0002093 0.0004776 -0.0001888 -0.0000356 -0.0000658 0.0002326 0.0001002 0.0003120 -0.0000470 -0.0002964 0.0000767 0.0002231 0.0001873 0.0004219 -0.0004011 0.0008825
0.0002520 0.0006242 -0.0001451 -0.0000343 -0.0002242 0.0003978 -0.0002990 -0.0000073 -0.0000867 0.0001860 0.0000562 0.0000985 -0.0002137 -0.0003182 0.0000494 0.0000837 0.0001504 0.0002462 -0.0001923 0.0003582
-0.0001833 0.0009000 -0.0001601 -0.0003311 -0.0002456 0.0002283 -0.0002892 -0.0001543 -0.0000667 0.0000325 0.0000216 -0.0001841 -0.0002270 -0.0003850 0.0000588 -0.0000262 0.0001293 0.0001261 -0.0000080 0.0002447
-0.0003475 0.0009573 -0.0001258 -0.0003685 -0.0002405 0.0001735 -0.0001755 -0.0002112 -0.0000401 0.0001641 0.0000228 -0.0001664 0.0000193 -0.0004563 0.0000546 0.0001035 0.0000738 0.0002591 -0.0001033 0.0006638
-0.0002491 0.0010868 -0.0001258 -0.0001384 -0.0002412 0.0002511 -0.0001226 -0.0001501 -0.0000484 0.0003761 0.0000092 0.0000053 0.0001050 -0.0003073 0.0000304 0.0002765 0.0000122 0.0004702 -0.0000524 0.0008482
0.0000148 0.0010983 -0.0002251 -0.0000430 -0.0002688 0.0003675 -0.0000875 -0.0001766 -0.0000786 0.0003145 0.0000313 0.0001048 0.0000249 -0.0003224 -0.0000176 0.0001792 -0.0000549 0.0003671 -0.0000021 0.0003615
0.0002440 0.0008272 -0.0002687 -0.0001450 -0.0002230 0.0004732 -0.0000516 -0.0003088 -0.0001110 0.0000832 0.0000682 0.0001575 0.0001010 -0.0006038 0.0000106 0.0000312 -0.0000923 0.0001753 -0.0001362 0.0001457
0.0001950 0.0010049 -0.0002400 -0.0000158 -0.0001694 0.0006218 -0.0001008 -0.0002103 -0.0001271 0.0000620 0.0000700 0.0002803 0.0000303 -0.0005302 0.0000454 0.0001759 -0.0000810 0.0002661 -0.0002096 0.0005455
0.0003981 0.0011633 -0.0001023 0.0003254 -0.0002733 0.0006536 -0.0002051 -0.0001833 -0.0000133 0.0003733 -0.0000493 0.0000968 -0.0001282 -0.0007369 -0.0001245 0.0001100 -0.0001685 0.0000251 -0.0004313 0.0006990
0.0005600 0.0008812 0.0000580 0.0003376 -0.0004766 0.0005360 -0.0002500 -0.0004774 0.0001578 0.0006961 -0.0002150 -0.0003522 -0.0002977 -0.0011296 -0.0002815 -0.0001920 -0.0002924 -0.0004990 -0.0004350 0.0001749
0.0002754 0.0007884 0.0000821 0.0001697 -0.0005730 0.0004365 -0.0002527 -0.0006223 0.0002182 0.0007601 -0.0002565 -0.0005623 -0.0004659 -0.0011123 -0.0002892 -0.0002837 -0.0003097 -0.0007433 -0.0004014 0.0001300
-0.0000014 0.0011127 0.0001341 0.0002410 -0.0005412 0.0004570 -0.0002129 -0.0006096 0.0002335 0.0008196 -0.0002297 -0.0005088 -0.0003987 -0.0010515 -0.0002847 -0.0001825 -0.0002790 -0.0007135 -0.0003408 0.0003590
0.0000704 0.0011973 0.0002095 0.0003861 -0.0005089 0.0005260 -0.0001698 -0.0005494 0.0002443 0.0009735 -0.0002018 -0.0003835 -0.0002154 -0.0010991 -0.0003173 -0.0001153 -0.0002982 -0.0005569 -0.0000130 0.0000762
0.0001655 0.0011114 0.0001726 0.0003236 -0.0005146 0.0004636 -0.0001694 -0.0005623 0.0002470 0.0009344 -0.0002159 -0.0004747 -0.0002118 -0.0010985 -0.0003793 -0.0001876 -0.0003329 -0.0006289 -0.0000324 -0.0001193
0.0001617 0.0012176 0.0000936 0.0001115 -0.0005093 0.0003372 -0.0001107 -0.0007239 0.0002664 0.0007751 -0.0002296 -0.0006337 -0.0001226 -0.0011726 -0.0003902 -0.0002828 -0.0002938 -0.0008185 -0.0002527 -0.0001318
0.0002609 0.0012518 0.0001204 0.0000999 -0.0004860 0.0002898 -0.0000394 -0.0008118 0.0003022 0.0007950 -0.0001910 -0.0005955 0.0000828 -0.0012802 -0.0003221 -0.0002684 -0.0002565 -0.0006821 -0.0003595 0.0003516
0.0006432 0.0010575 0.0001869 0.0002805 -0.0004650 0.0003150 -0.0000823 -0.0007159 0.0003128 0.0009178 -0.0001473 -0.0005075 0.0001023 -0.0011997 -0.0002513 -0.0002789 -0.0002487 -0.0005958 -0.0005291 0.0006537
0.0007813 0.0009301 0.0001583 0.0002441 -0.0004804 0.0002210 -0.0001159 -0.0007864 0.0003335 0.0007991 -0.0001718 -0.0006347 -0.0001026 -0.0011076 -0.0002566 -0.0005687 -0.0001585 -0.0007730 -0.0003163 -0.0000773
0.0006138 0.0007629 0.0001041 -0.0002340 -0.0005422 -0.0000953 -0.0001055 -0.0011457 0.0003698 0.0006578 -0.0001568 -0.0007576 -0.0001306 -0.0012690 -0.0002878 -0.0009531 0.0000208 -0.0009455 -0.0001986 -0.0003729
0.0005378 0.0010453 0.0000896 -0.0005954 -0.0004450 0.0000398 -0.0001295 -0.0010500 0.0003451 0.0006321 -0.0000212 -0.0004589 -0.0000701 -0.0011114 -0.0001712 -0.0007305 0.0001249 -0.0007949 -0.0002387 0.0001927
0.0004217 0.0016618 0.0001196 -0.0003876 -0.0003107 0.0003573 -0.0001786 -0.0008339 0.0002971 0.0006050 0.0000538 -0.0002371 -0.0001175 -0.0008406 -0.0000525 -0.0003404 0.0000907 -0.0005822 0.0001447 0.0003655
0.0002471 0.0019036 0.0000237 -0.0006199 -0.0003789 0.0002938 -0.0002957 -0.0012227 0.0002412 0.0004421 0.0000217 -0.0004515 -0.0000904 -0.0010303 -0.0000237 -0.0004633 0.0000403 -0.0006602 0.0003276 -0.0002112
0.0000730 0.0016658 -0.0002139 -0.0013966 -0.0004700 0.0001545 -0.0003123 -0.0018067 0.0001765 0.0000390 -0.0000192 -0.0007144 -0.0001048 -0.0011753 0.0000138 -0.0006251 0.0000913 -0.0007439 0.0002418 -0.0004276
-0.0000632 0.0014030 -0.0003041 -0.0015568 -0.0004593 0.0002750 -0.0002744 -0.0020265 0.0001156 -0.0001782 -0.0000245 -0.0007648 0.0000422 -0.0013118 0.0000350 -0.0005881 0.0001760 -0.0006709 0.0002336 -0.0002188
0.0001324 0.0016703 -0.0002362 -0.0009881 -0.0003927 0.0010118 -0.0003800 -0.0017484 -0.0000145 -0.0000925 0.0000162 -0.0006644 0.0002607 -0.0014166 0.0000568 -0.0004159 0.0002056 -0.0004985 0.0002199 0.0000113
0.0003301 0.0021814 -0.0001949 -0.0004187 -0.0004219 0.0016035 -0.0004613 -0.0012377 -0.0000903 0.0002366 0.0000607 -0.0004260 0.0002953 -0.0012499 0.0000673 -0.0002548 0.0001698 -0.0003816 0.0002111 0.0000987
0.0003469 0.0022071 -0.0002188 -0.0005685 -0.0004605 0.0013703 -0.0004710 -0.0010211 -0.0000481 0.0003094 0.0000580 -0.0004131 0.0002434 -0.0012427 0.0001059 -0.0004340 0.0001827 -0.0004798 -0.0001577 0.0001147
0.0003186 0.0018067 -0.0002216 -0.0009594 -0.0004157 0.0009837 -0.0005072 -0.0011473 -0.0000207 0.0001162 0.0000645 -0.0005034 0.0002407 -0.0013309 0.0000946 -0.0005243 0.0002322 -0.0004713 -0.0004974 0.0004414
0.0001635 0.0015399 -0.0002523 -0.0010455 -0.0004275 0.0009570 -0.0005024 -0.0012285 -0.0000243 0.0000815 0.0001012 -0.0004057 0.0000611 -0.0011062 0.0000852 -0.0003733 0.0002646 -0.0002799 -0.0003587 0.0008303
0.0000759 0.0015314 -0.0002724 -0.0009110 -0.0004595 0.0010638 -0.0004789 -0.0011123 -0.0000332 0.0002487 0.0001251 -0.0002587 -0.0001196 -0.0009157 0.0000898 -0.0002306 0.0002438 -0.0000512 -0.0001769 0.0011059
-0.0000402 0.0017555 -0.0002598 -0.0007864 -0.0004755 0.0011787 -0.0004579 -0.0009571 -0.0000488 0.0004263 0.0001148 -0.0001510 -0.0000981 -0.0008556 0.0000360 -0.0002012 0.0001981 -0.0000231 0.0000477 0.0008980
-0.0002013 0.0018964 -0.0002850 -0.0009325 -0.0004848 0.0010895 -0.0004662 -0.0009693 -0.0000533 0.0003661 0.0000889 -0.0002040 -0.0000676 -0.0008885 -0.0000250 -0.0002616 0.0001761 -0.0001563 0.0000919 0.0006900
-0.0002882 0.0019808 -0.0002725 -0.0011345 -0.0004747 0.0008281 -0.0004423 -0.0010134 -0.0000290 0.0003327 0.0000985 -0.0001810 0.0000157 -0.0009475 -0.0000465 -0.0001888 0.0001279 -0.0000728 -0.0000588 0.0008443
-0.0000248 0.0017429 -0.0002839 -0.0010752 -0.0004703 0.0006790 -0.0003565 -0.0009055 0.0000014 0.0004893 0.0001259 0.0000180 0.0000977 -0.0008140 -0.0000193 -0.0000164 0.0000760 0.0001976 -0.0000663 0.0012485
0.0001753 0.0017773 -0.0003461 -0.0008755 -0.0004682 0.0006929 -0.0003526 -0.0006366 0.0000055 0.0006620 0.0001327 0.0001871 0.0001661 -0.0007275 -0.0000081 0.0000748 0.0000562 0.0002866 -0.0002316 0.0012519
0.0003483 0.0017621 -0.0003479 -0.0009959 -0.0004353 0.0005744 -0.0003426 -0.0005569 0.0000111 0.0005928 0.0001130 0.0001250 0.0002117 -0.0008271 -0.0000144 -0.0000110 0.0000759 0.0001071 -0.0004406 0.0011185
0.0005895 0.0013516 -0.0003035 -0.0012438 -0.0003802 0.0003437 -0.0003783 -0.0006078 0.0000355 0.0004895 0.0001089 0.0000383 0.0000563 -0.0007524 0.0000119 -0.0000548 0.0000970 0.0001136 -0.0002010 0.0011527
0.0004247 0.0015266 -0.0002525 -0.0011203 -0.0003701 0.0003009 -0.0004638 -0.0004503 0.0000578 0.0006757 0.0001178 0.0001381 -0.0000982 -0.0004649 0.0000585 -0.0000049 0.0002164 0.0003707 -0.0002814 0.0014950
0.0001130 0.0017565 -0.0001920 -0.0009510 -0.0003729 0.0001842 -0.0004984 -0.0001880 0.0000656 0.0008168 0.0001270 0.0002100 -0.0000520 -0.0003306 0.0000418 -0.0002053 0.0003372 0.0004789 -0.0004673 0.0012612
-0.0001120 0.0013561 -0.0002474 -0.0013841 -0.0003524 -0.0001019 -0.0004759 -0.0002720 0.0000266 0.0006363 0.0001342 0.0001039 0.0001283 -0.0004028 -0.0000456 -0.0006059 0.0004268 0.0003966 -0.0003849 -0.0000061
-0.0003216 0.0006544 -0.0004444 -0.0022184 -0.0003756 -0.0005521 -0.0004187 -0.0005134 0.0000078 0.0003594 0.0001809 0.0001223 0.0001613 -0.0001481 -0.0001436 -0.0007576 0.0005259 0.0004094 -0.0002422 -0.0004487
-0.0005634 0.0001131 -0.0005520 -0.0025849 -0.0004161 -0.0010058 -0.0002529 -0.0006516 0.0000399 0.0003359 0.0002535 0.0003424 0.0001396 0.0001083 -0.0001755 -0.0007430 0.0006271 0.0005481 0.0000635 -0.0002558
-0.0005894 -0.0001262 -0.0005412 -0.0025174 -0.0004266 -0.0011450 -0.0001653 -0.0007350 0.0000581 0.0005227 0.0002841 0.0005069 0.0003240 0.0000305 -0.0001576 -0.0006459 0.0006295 0.0006747 -0.0001125 -0.0000953
-0.0005934 -0.0001290 -0.0005308 -0.0025079 -0.0003985 -0.0011312 -0.0002497 -0.0005959 0.0000479 0.0004168 0.0002900 0.0004666 0.0003901 0.0001605 -0.0001648 -0.0005258 0.0005268 0.0005911 -0.0004035 0.0001105
-0.0002645 -0.0006044 -0.0005643 -0.0025603 -0.0003752 -0.0011399 -0.0002826 -0.0005701 0.0000664 0.0001494 0.0002932 0.0003272 0.0004941 0.0001280 -0.0001391 -0.0004346 0.0005016 0.0005702 -0.0002111 0.0002947
0.0001082 -0.0009870 -0.0005433 -0.0024097 -0.0003499 -0.0011231 -0.0002731 -0.0005206 0.0001176 0.0001245 0.0003023 0.0003380 0.0004182 0.0001535 -0.0000276 -0.0002703 0.0005187 0.0006329 -0.0003604 0.0011557
0.0000186 -0.0007187 -0.0004499 -0.0020437 -0.0003182 -0.0011217 -0.0002002 -0.0003549 0.0001566 0.0002473 0.0002969 0.0003395 0.0001629 0.0003171 0.0000830 -0.0001859 0.0004909 0.0004730 -0.0005135 0.0013677
0.0000179 -0.0006445 -0.0002998 -0.0019371 -0.0002463 -0.0010911 -0.0001448 -0.0003837 0.0002028 0.0002895 0.0002509 0.0001001 0.0000856 0.0000711 0.0001939 -0.0001860 0.0004197 0.0003098 -0.0005651 0.0011778
0.0000604 -0.0006776 -0.0001867 -0.0019299 -0.0001585 -0.0010364 -0.0001611 -0.0003413 0.0002500 0.0002376 0.0002282 -0.0001392 -0.0000128 -0.0000221 0.0002522 -0.0001451 0.0004090 0.0003096 -0.0002416 0.0012203
-0.0002417 -0.0001887 -0.0001504 -0.0017977 -0.0001195 -0.0009466 -0.0001755 -0.0002338 0.0002642 0.0003345 0.0002629 -0.0000739 0.0000089 0.0000312 0.0002854 -0.0000469 0.0004771 0.0004936 0.0002741 0.0010085
-0.0004682 0.0002977 -0.0001226 -0.0017815 -0.0001001 -0.0007202 -0.0001058 -0.0003203 0.0002280 0.0003587 0.0002676 -0.0000861 0.0002044 -0.0001905 0.0002759 -0.0001211 0.0004925 0.0003896 -0.0000287 0.0008469
-0.0003516 0.0001919 -0.0001511 -0.0018769 -0.0001158 -0.0007111 -0.0000937 -0.0005037 0.0001830 0.0001166 0.0002349 -0.0003032 0.0002861 -0.0005771 0.0002140 -0.0004876 0.0005006 0.0000309 0.0000018 -0.0000449
-0.0001579 -0.0001062 -0.0001857 -0.0018453 -0.0001670 -0.0007490 -0.0000894 -0.0008392 0.0001995 -0.0000728 0.0001341 -0.0006879 0.0001742 -0.0010287 0.0000540 -0.0007685 0.0003680 -0.0004432 0.0000813 -0.0004885
0.0002327 -0.0000196 -0.0000774 -0.0015403 -0.0002351 -0.0005817 -0.0000794 -0.0012348 0.0002627 0.0000650 0.0000418 -0.0009314 0.0002377 -0.0012489 0.0000105 -0.0007404 0.0002593 -0.0007208 -0.0002490 -0.0001941
0.0004000 0.0004079 -0.0000020 -0.0014764 -0.0001955 -0.0004334 -0.0000817 -0.0013515 0.0002633 0.0000476 0.0000495 -0.0009352 0.0003272 -0.0012380 0.0000843 -0.0008146 0.0002613 -0.0008454 -0.0004511 -0.0000597
0.0003973 0.0004569 -0.0000618 -0.0017527 -0.0001245 -0.0003160 -0.0001551 -0.0012989 0.0002379 -0.0002818 0.0000918 -0.0009903 0.0002627 -0.0012782 0.0001567 -0.0009973 0.0002614 -0.0009828 -0.0003622 -0.0002441
0.0004861 0.0000595 -0.0000557 -0.0018166 -0.0001043 -0.0003394 -0.0002616 -0.0011595 0.0002538 -0.0003819 0.0001414 -0.0009694 0.0000689 -0.0011349 0.0002671 -0.0009849 0.0004091 -0.0008699 -0.0000482 -0.0005485
0.0003221 -0.0002104 0.0000098 -0.0015516 -0.0000700 -0.0004490 -0.0002233 -0.0008821 0.0002903 -0.0001486 0.0001847 -0.0008471 -0.0000869 -0.0008520 0.0002585 -0.0008455 0.0005225 -0.0006731 0.0000253 -0.0000930
-0.0000030 -0.0000967 0.0000831 -0.0013829 -0.0000446 -0.0005238 -0.0001182 -0.0007041 0.0003137 0.0000460 0.0002097 -0.0008325 -0.0000501 -0.0008188 0.0002519 -0.0008624 0.0006152 -0.0006667 0.0001884 -0.0003201
-0.0001441 -0.0004324 0.0000864 -0.0015846 -0.0000550 -0.0007091 -0.0000370 -0.0007442 0.0003196 -0.0000367 0.0002001 -0.0009744 -0.0000345 -0.0009372 0.0002317 -0.0010221 0.0005959 -0.0007988 0.0004468 -0.0009336
-0.0000829 -0.0009960 0.0000501 -0.0017484 -0.0000671 -0.0008884 -0.0000535 -0.0006907 0.0003287 -0.0000835 0.0001899 -0.0010061 -0.0000005 -0.0009340 0.0002274 -0.0010204 0.0005622 -0.0006884 0.0005265 -0.0004368
-0.0002110 -0.0008189 0.0000503 -0.0015443 -0.0000443 -0.0008541 -0.0000139 -0.0005185 0.0003237 0.0000891 0.0001981 -0.0008745 0.0002759 -0.0010459 0.0002423 -0.0008616 0.0005655 -0.0004420 0.0005766 0.0000321
-0.0002909 -0.0006887 0.0000625 -0.0013272 -0.0000530 -0.0007182 0.0000220 -0.0003901 0.0003079 0.0002877 0.0002192 -0.0006886 0.0004117 -0.0010128 0.0002387 -0.0006502 0.0005388 -0.0001362 0.0005804 0.0005047
0.0000898 -0.0009477 0.0000488 -0.0013012 -0.0000711 -0.0006273 -0.0000103 -0.0002772 0.0002877 0.0003114 0.0002027 -0.0006939 0.0003122 -0.0008924 0.0002101 -0.0006962 0.0005383 -0.0002016 0.0002927 0.0005853
0.0003195 -0.0012414 0.0000123 -0.0014333 -0.0000600 -0.0007018 -0.0000637 -0.0002841 0.0002804 0.0001785 0.0001623 -0.0008400 0.0002599 -0.0010062 0.0002195 -0.0008673 0.0006118 -0.0004429 -0.0001491 0.0005014
0.0002533 -0.0014296 0.0000184 -0.0014558 -0.0000481 -0.0007661 -0.0001004 -0.0002452 0.0002867 0.0001917 0.0001592 -0.0008150 0.0002074 -0.0009763 0.0002397 -0.0008107 0.0006688 -0.0003645 -0.0000860 0.0007333
0.0001021 -0.0012704 0.0001149 -0.0013158 -0.0000291 -0.0007028 -0.0001007 -0.0001007 0.0002794 0.0003665 0.0001819 -0.0006506 0.0001899 -0.0007989 0.0002499 -0.0006403 0.0006268 -0.0000878 0.0001390 0.0009678
-0.0000610 -0.0009896 0.0001905 -0.0012058 -0.0000194 -0.0005855 -0.0001361 0.0000703 0.0002547 0.0004442 0.0001808 -0.0006384 0.0000939 -0.0006713 0.0002378 -0.0006516 0.0005903 -0.0001577 0.0003417 0.0005021
-0.0002838 -0.0010539 0.0001554 -0.0013231 -0.0000306 -0.0006176 -0.0001718 0.0000486 0.0002320 0.0003133 0.0001598 -0.0007966 0.0000040 -0.0007030 0.0001821 -0.0007717 0.0006035 -0.0004179 0.0004544 0.0000160
-0.0005583 -0.0010003 0.0001353 -0.0014343 -0.0000261 -0.0007153 -0.0001087 -0.0000761 0.0002294 0.0002781 0.0001663 -0.0008182 -0.0000043 -0.0006899 0.0001790 -0.0007262 0.0005931 -0.0003279 0.0003816 0.0003538
-0.0005993 -0.0008338 0.0001460 -0.0012928 0.0000003 -0.0006872 -0.0000672 0.0000153 0.0002221 0.0004346 0.0001935 -0.0006709 0.0001741 -0.0006960 0.0001760 -0.0005118 0.0005392 -0.0000629 0.0004429 0.0007991
-0.0000842 -0.0011780 0.0001150 -0.0010750 0.0000106 -0.0005531 -0.0001286 0.0002520 0.0001973 0.0006513 0.0002098 -0.0004588 0.0002694 -0.0006016 0.0001749 -0.0003559 0.0005303 0.0000741 0.0004318 0.0008563
0.0001585 -0.0012517 0.0000340 -0.0011484 -0.0000035 -0.0005103 -0.0001451 0.0002253 0.0001814 0.0005552 0.0001676 -0.0005272 0.0003638 -0.0006574 0.0002025 -0.0004273 0.0005311 -0.0000330 0.0003890 0.0004121
0.0000235 -0.0012664 0.0000025 -0.0013827 0.0000003 -0.0006170 -0.0001001 0.0000256 0.0002007 0.0003566 0.0001361 -0.0006841 0.0004979 -0.0008667 0.0002571 -0.0004998 0.0005740 -0.0001216 0.0002248 0.0004137
0.0002996 -0.0015512 0.0000981 -0.0013492 0.0000317 -0.0005996 -0.0001241 0.0001169 0.0002215 0.0004726 0.0001535 -0.0004994 0.0004039 -0.0007123 0.0002682 -0.0003666 0.0006266 0.0000295 -0.0000897 0.0011157
0.0004626 -0.0012006 0.0001626 -0.0010732 0.0000600 -0.0004576 -0.0002075 0.0003598 0.0002294 0.0006881 0.0001972 -0.0002094 0.0001888 -0.0003803 0.0002861 -0.0001419 0.0006479 0.0002916 -0.0001213 0.0017703
0.0004139 -0.0008771 0.0001637 -0.0007953 0.0000487 -0.0003042 -0.0002655 0.0005375 0.0002137 0.0009215 0.0002224 0.0000013 -0.0000403 -0.0001905 0.0002964 -0.0001137 0.0006521 0.0002525 0.0001797 0.0012837
-0.0000799 -0.0008004 0.0001685 -0.0009525 0.0000504 -0.0003351 -0.0002300 0.0004263 0.0001855 0.0008162 0.0001816 -0.0001428 -0.0001228 -0.0002103 0.0002614 -0.0001638 0.0005767 0.0000222 0.0002969 0.0004958
-0.0005564 -0.0007204 0.0001474 -0.0010797 0.0000701 -0.0003894 -0.0002159 0.0002963 0.0001780 0.0005762 0.0001530 -0.0003530 -0.0001262 -0.0002799 0.0002379 -0.0000823 0.0004840 0.0000087 0.0003127 0.0005245
-0.0005838 -0.0007984 0.0001892 -0.0008157 0.0000809 -0.0002965 -0.0002027 0.0003826 0.0001753 0.0006334 0.0001576 -0.0002375 -0.0000596 -0.0003136 0.0002505 0.0000336 0.0004961 0.0001255 0.0005971 0.0006540
-0.0004459 -0.0008029 0.0002174 -0.0004595 0.0000752 -0.0001281 -0.0001046 0.0004787 0.0001604 0.0008193 0.0001498 -0.0000180 -0.0000635 -0.0001820 0.0002597 0.0002428 0.0005007 0.0003614 0.0006770 0.0010748
-0.0002994 -0.0006511 0.0001956 -0.0001985 0.0000518 0.0000763 -0.0001135 0.0006024 0.0001446 0.0008719 0.0001065 0.0000039 0.0000739 -0.0003558 0.0002312 0.0002056 0.0003994 0.0003130 0.0001813 0.0012660
0.0000113 -0.0010220 0.0001873 -0.0002667 0.0000398 0.0000805 -0.0001340 0.0005052 0.0001654 0.0007213 0.0000404 -0.0001491 0.0001003 -0.0006624 0.0001796 0.0000162 0.0003356 -0.0000170 -0.0001380 0.0011046
0.0002902 -0.0015235 0.0002076 -0.0002927 0.0000246 -0.0000018 -0.0001392 0.0004028 0.0002039 0.0007071 0.0000115 -0.0001802 -0.0000501 -0.0006593 0.0001254 0.0000905 0.0002709 -0.0000850 -0.0001746 0.0012881
0.0001987 -0.0010515 0.0002136 -0.0002644 0.0000312 0.0001985 -0.0002077 0.0005377 0.0002316 0.0009077 0.0000145 -0.0000279 -0.0000626 -0.0006143 0.0001751 0.0002720 0.0002170 -0.0000285 -0.0002846 0.0015153
0.0000407 -0.0004569 0.0002370 -0.0003541 0.0001571 0.0007350 -0.0001913 0.0007909 0.0002082 0.0008913 0.0001076 0.0004408 -0.0001321 -0.0004469 0.0001158 0.0002527 0.0001167 -0.0002189 -0.0002348 0.0013033
-0.0000781 -0.0002430 0.0003050 -0.0002289 0.0005654 0.0019969 0.0000346 0.0014256 0.0001391 0.0007316 0.0003280 0.0012342 -0.0002432 -0.0002122 0.0000108 0.0001961 -0.0000181 -0.0003635 -0.0001605 0.0011222
0.0000632 0.0000247 0.0002583 -0.0000868 0.0008199 0.0028607 0.0001239 0.0016889 0.0001068 0.0006876 0.0004080 0.0015536 -0.0003250 -0.0002080 0.0000783 0.0004484 -0.0000777 -0.0003217 0.0001538 0.0008695
0.0002600 0.0007150 0.0001796 -0.0001239 0.0006631 0.0026101 0.0000913 0.0013047 0.0001225 0.0007902 0.0003203 0.0013195 -0.0003581 -0.0002863 0.0001447 0.0007324 -0.0001211 -0.0002072 0.0003218 0.0008599
0.0002295 0.0012454 0.0002056 0.0000855 0.0005007 0.0023043 0.0001236 0.0011039 0.0001606 0.0009349 0.0002473 0.0010495 -0.0001912 -0.0004499 0.0001215 0.0007052 -0.0001231 -0.0001637 0.0003114 0.0005836
0.0001568 0.0012208 0.0001795 0.0000040 0.0005376 0.0022957 0.0001168 0.0011638 0.0001288 0.0006825 0.0002247 0.0008388 0.0000473 -0.0006498 0.0001154 0.0004998 -0.0000963 -0.0003626 0.0003037 0.0001751
0.0004508 0.0009662 0.0000505 -0.0003980 0.0005150 0.0021607 0.0000939 0.0009977 0.0001175 0.0004460 0.0002080 0.0007245 0.0001308 -0.0006785 0.0001444 0.0004940 -0.0000552 -0.0003826 0.0000956 0.0006419
0.0007250 0.0008331 0.0000183 -0.0003342 0.0003849 0.0018451 0.0000328 0.0007778 0.0001832 0.0005963 0.0001788 0.0007337 0.0001084 -0.0006068 0.0001998 0.0006503 -0.0000317 -0.0001025 -0.0001951 0.0012178
0.0007414 0.0009568 0.0000649 -0.0000551 0.0003250 0.0017289 -0.0000202 0.0008118 0.0002096 0.0007481 0.0001471 0.0007160 -0.0000977 -0.0004577 0.0002395 0.0006399 0.0000122 -0.0001078 -0.0002666 0.0010469
0.0006664 0.0005247 0.0001882 0.0001224 0.0002891 0.0014600 -0.0000845 0.0006497 0.0002427 0.0006511 0.0001004 0.0004077 -0.0002288 -0.0005935 0.0002230 0.0005027 0.0000588 -0.0003013 -0.0000642 0.0004948
0.0004705 0.0001314 0.0002658 0.0001704 0.0002825 0.0011969 -0.0001502 0.0005274 0.0002795 0.0005289 0.0000591 0.0001473 -0.0002217 -0.0007066 0.0002305 0.0004594 0.0001015 -0.0001750 0.0000272 0.0006076
0.0001341 0.0004480 0.0002751 0.0002905 0.0002698 0.0011419 -0.0001879 0.0006180 0.0002976 0.0006544 0.0000348 0.0001913 -0.0002024 -0.0005961 0.0002153 0.0005323 0.0001596 0.0001061 0.0002027 0.0008180
-0.0001000 0.0006219 0.0002901 0.0003995 0.0002353 0.0011020 -0.0001676 0.0006807 0.0002555 0.0008522 0.0000621 0.0004214 -0.0000641 -0.0005212 0.0001401 0.0006485 0.0001155 0.0002362 0.0000977 0.0011380
-0.0001124 0.0008429 0.0002181 0.0001973 0.0002084 0.0010737 -0.0001900 0.0006700 0.0001749 0.0007528 0.0000646 0.0003694 -0.0001188 -0.0003981 0.0000732 0.0005865 0.0000171 0.0001069 0.0001303 0.0009344
0.0001507 0.0007039 0.0001341 0.0000202 0.0001756 0.0010051 -0.0001344 0.0004966 0.0001613 0.0005567 0.0000408 0.0001974 -0.0002134 -0.0004592 0.0000520 0.0004815 -0.0000238 0.0000533 0.0004672 0.0002362
0.0003991 0.0001724 0.0001086 -0.0000576 0.0001309 0.0009318 -0.0001025 0.0004108 0.0001996 0.0006405 0.0000561 0.0003543 -0.0000345 -0.0004575 0.0000444 0.0005159 0.0000578 0.0003024 0.0001256 0.0005334
0.0001819 0.0001899 0.0000418 -0.0002142 0.0001087 0.0008178 -0.0001738 0.0005539 0.0002228 0.0008695 0.0000864 0.0006811 0.0000417 -0.0001721 -0.0000073 0.0006866 0.0001553 0.0006726 -0.0001606 0.0014627
0.0002623 0.0001281 -0.0000335 -0.0003299 0.0000842 0.0006962 -0.0002535 0.0006759 0.0002207 0.0009631 0.0000678 0.0007498 -0.0000411 -0.0001464 -0.0000673 0.0006633 0.0001932 0.0005926 -0.0001522 0.0013004
0.0004931 -0.0004420 -0.0000527 -0.0005248 0.0000329 0.0004815 -0.0003656 0.0006294 0.0002142 0.0008841 0.0000093 0.0005907 -0.0000960 -0.0002297 -0.0000810 0.0005421 0.0002065 0.0004439 -0.0000171 0.0006786
0.0002092 -0.0006056 -0.0000831 -0.0005708 -0.0000086 0.0003446 -0.0003944 0.0006281 0.0001974 0.0009141 -0.0000284 0.0005472 -0.0002122 -0.0000394 -0.0000670 0.0006576 0.0001598 0.0007077 0.0001112 0.0008716
-0.0001240 -0.0002289 -0.0000335 -0.0003925 -0.0000257 0.0003780 -0.0004382 0.0008365 0.0001512 0.0010791 -0.0000389 0.0006382 -0.0003879 0.0002344 -0.0001037 0.0008649 0.0000982 0.0010363 -0.0002056 0.0015930
-0.0001395 -0.0000728 0.0000154 -0.0002312 -0.0000351 0.0004392 -0.0004782 0.0009619 0.0001089 0.0011488 -0.0000685 0.0006448 -0.0004140 0.0002546 -0.0001847 0.0008715 0.0000435 0.0010508 -0.0004069 0.0015694
-0.0002095 -0.0001835 -0.0000350 -0.0002918 -0.0000575 0.0004060 -0.0004488 0.0009092 0.0000854 0.0010112 -0.0000927 0.0005696 -0.0002865 0.0001419 -0.0002703 0.0007514 -0.0000143 0.0009131 -0.0001067 0.0010939
-0.0003961 -0.0000988 -0.0000953 -0.0003814 -0.0000722 0.0003555 -0.0003919 0.0008705 0.0000509 0.0009761 -0.0000751 0.0006950 -0.0001417 0.0001450 -0.0003461 0.0008281 -0.0000811 0.0010675 0.0002716 0.0009722
-0.0004176 -0.0000275 -0.0001437 -0.0003436 -0.0000830 0.0004004 -0.0003750 0.0009101 0.0000097 0.0010499 -0.0000880 0.0008888 -0.0000817 0.0001555 -0.0003969 0.0009211 -0.0001292 0.0012297 -0.0001156 0.0016573
-0.0000474 -0.0001808 -0.0002347 -0.0004831 -0.0001444 0.0003850 -0.0003744 0.0008239 -0.0000028 0.0010140 -0.0001568 0.0007685 -0.0001462 0.0000001 -0.0004338 0.0007843 -0.0002041 0.0009726 -0.0006183 0.0019856
0.0002434 -0.0003379 -0.0003033 -0.0007802 -0.0001908 0.0003023 -0.0003531 0.0005918 0.0000385 0.0009176 -0.0002271 0.0005108 -0.0003439 -0.0001143 -0.0004113 0.0006663 -0.0002738 0.0006340 -0.0006282 0.0014285
0.0003045 -0.0002325 -0.0003563 -0.0009264 -0.0001925 0.0003241 -0.0003848 0.0005561 0.0000656 0.0008933 -0.0002536 0.0004865 -0.0004606 -0.0000426 -0.0003783 0.0007681 -0.0003374 0.0006714 -0.0006727 0.0016445
0.0003821 0.0002391 -0.0003458 -0.0008843 -0.0001982 0.0004872 -0.0004915 0.0007081 0.0000428 0.0009840 -0.0002635 0.0005976 -0.0004564 0.0000122 -0.0003811 0.0008852 -0.0004309 0.0006859 -0.0006425 0.0017715
0.0003028 0.0005271 -0.0003369 -0.0010333 -0.0002112 0.0006301 -0.0005773 0.0006503 0.0000035 0.0008148 -0.0002781 0.0004760 -0.0006084 -0.0000769 -0.0003792 0.0007778 -0.0005060 0.0003107 -0.0000708 0.0008879
0.0000671 0.0005493 -0.0003985 -0.0012348 -0.0001681 0.0008578 -0.0005278 0.0003567 -0.0000031 0.0005079 -0.0002627 0.0003123 -0.0007209 -0.0001972 -0.0003440 0.0006458 -0.0005275 -0.0000038 -0.0000710 0.0007287
-0.0002330 0.0010019 -0.0003649 -0.0011157 -0.0001243 0.0010202 -0.0003594 0.0001291 0.0000321 0.0005196 -0.0002378 0.0003520 -0.0005959 -0.0002413 -0.0003071 0.0006998 -0.0004855 0.0000271 -0.0003679 0.0013175
-0.0001844 0.0012134 -0.0003012 -0.0008166 -0.0001218 0.0009482 -0.0002523 0.0001505 0.0000764 0.0006977 -0.0002292 0.0003279 -0.0005113 -0.0003880 -0.0002960 0.0006453 -0.0004923 -0.0000350 -0.0001436 0.0008718
0.0003199 0.0005706 -0.0003418 -0.0008388 -0.0001129 0.0007913 -0.0002024 0.0000804 0.0001271 0.0005878 -0.0002271 0.0001264 -0.0003876 -0.0006474 -0.0003078 0.0004423 -0.0005223 -0.0003179 -0.0000820 0.0004064
0.0005440 0.0003082 -0.0003726 -0.0009297 -0.0000967 0.0006463 -0.0000560 -0.0001454 0.0002079 0.0003772 -0.0002379 -0.0000816 -0.0002233 -0.0008475 -0.0003044 0.0003034 -0.0004820 -0.0004998 0.0002574 0.0000654
0.0004875 0.0002034 -0.0002743 -0.0007227 -0.0000645 0.0005361 0.0000786 -0.0001850 0.0003070 0.0004547 -0.0002219 -0.0000872 -0.0002106 -0.0008753 -0.0002176 0.0002720 -0.0003865 -0.0004634 0.0003196 0.0000605
0.0007483 -0.0001818 -0.0001484 -0.0006155 -0.0000280 0.0004635 0.0000705 -0.0001085 0.0003531 0.0005462 -0.0002003 -0.0001192 -0.0001839 -0.0008935 -0.0001414 0.0001710 -0.0002613 -0.0005839 -0.0000578 0.0003291
0.0008201 -0.0001661 -0.0001504 -0.0007654 -0.0000014 0.0002937 -0.0000032 -0.0001152 0.0003847 0.0004099 -0.0001647 -0.0002918 -0.0002567 -0.0008622 -0.0000519 -0.0000523 -0.0001313 -0.0007942 -0.0001313 0.0002585
0.0007399 -0.0003029 -0.0001755 -0.0009904 0.0000194 0.0000714 -0.0000106 -0.0002438 0.0004248 0.0002468 -0.0001087 -0.0003871 -0.0003820 -0.0008319 0.0000362 -0.0001904 -0.0000470 -0.0008008 0.0001438 0.0001269
0.0003978 -0.0002534 -0.0000765 -0.0010255 0.0000409 -0.0000098 0.0000941 -0.0002844 0.0004412 0.0003240 -0.0000637 -0.0002774 -0.0003529 -0.0007942 0.0000365 -0.0000920 -0.0000143 -0.0006094 0.0002543 0.0004043
-0.0000381 0.0002396 -0.0000045 -0.0008221 0.0000577 0.0000156 0.0001181 -0.0001317 0.0004457 0.0005335 -0.0000344 -0.0001120 -0.0002560 -0.0007263 0.0000220 0.0001048 0.0000336 -0.0002924 0.0003677 0.0008433
-0.0001265 0.0003614 0.0000197 -0.0007035 0.0000668 0.0000693 0.0000413 0.0000148 0.0004302 0.0005901 -0.0000128 -0.0001606 -0.0002580 -0.0007755 0.0000254 0.0000164 0.0000377 -0.0003437 0.0006587 0.0002540
-0.0000726 -0.0000862 -0.0000310 -0.0008861 0.0000643 -0.0000450 0.0000786 -0.0001463 0.0004187 0.0003869 0.0000032 -0.0003665 -0.0002007 -0.0008513 0.0000375 -0.0002361 0.0000654 -0.0006511 0.0005652 -0.0000852
-0.0000392 -0.0003101 -0.0000884 -0.0010069 0.0000808 -0.0001905 0.0001363 -0.0002863 0.0004354 0.0002767 0.0000167 -0.0003973 0.0000025 -0.0009504 0.0000565 -0.0002803 0.0001346 -0.0006354 0.0002340 0.0003277
0.0004055 -0.0004858 -0.0000552 -0.0009514 0.0001013 -0.0001957 0.0001566 -0.0002750 0.0004395 0.0003796 0.0000476 -0.0003034 0.0001186 -0.0010238 0.0000899 -0.0001973 0.0001637 -0.0004167 0.0001307 0.0004387
0.0008461 -0.0008689 -0.0000340 -0.0008313 0.0001086 -0.0000940 0.0000790 -0.0001098 0.0003981 0.0004646 0.0001225 -0.0000134 0.0000408 -0.0008339 0.0000778 -0.0000104 0.0001358 -0.0001491 0.0000949 0.0008291
0.0007059 -0.0007143 -0.0000451 -0.0007423 0.0001896 0.0001874 0.0000289 0.0000068 0.0003520 0.0003478 0.0001688 0.0001718 -0.0001836 -0.0006070 0.0000897 -0.0000173 0.0001087 -0.0003060 0.0000037 0.0006193
0.0004365 -0.0005393 0.0000517 -0.0009092 0.0003186 0.0003636 0.0000748 -0.0001159 0.0003724 0.0001416 0.0002065 0.0001342 -0.0002370 -0.0007241 0.0001358 -0.0002525 0.0001738 -0.0006545 -0.0001208 0.0001551
0.0002678 -0.0007376 0.0001308 -0.0011710 0.0003945 0.0004032 0.0001127 -0.0001724 0.0004010 0.0000897 0.0003264 0.0004153 -0.0001775 -0.0007014 0.0000867 -0.0003797 0.0002043 -0.0006295 -0.0001243 0.0005917
0.0002783 -0.0006095 0.0000667 -0.0012441 0.0005903 0.0009810 0.0002220 0.0002322 0.0003483 0.0001633 0.0004336 0.0008545 -0.0003499 -0.0002402 0.0001095 -0.0001445 0.0001793 -0.0004063 0.0002161 0.0007446
0.0001018 -0.0002816 0.0000042 -0.0012006 0.0006794 0.0012479 0.0002824 0.0003613 0.0003114 0.0002025 0.0004252 0.0008334 -0.0003523 -0.0002061 0.0001957 -0.0000318 0.0001682 -0.0004542 0.0006768 0.0001394
-0.0001056 -0.0004038 -0.0000154 -0.0012156 0.0005467 0.0007344 0.0002439 -0.0000817 0.0003189 0.0001320 0.0003633 0.0004708 -0.0000180 -0.0006333 0.0001740 -0.0001536 0.0001579 -0.0006577 0.0005784 -0.0001138
-0.0002004 -0.0004988 0.0000337 -0.0011769 0.0004862 0.0003963 0.0002348 -0.0002557 0.0003383 0.0001115 0.0003345 0.0002782 0.0000993 -0.0007919 0.0001456 -0.0001269 0.0001749 -0.0005461 0.0002250 0.0002898
0.0001246 -0.0008185 0.0000599 -0.0009977 0.0004495 0.0003111 0.0002307 -0.0001956 0.0003813 0.0002583 0.0002923 0.0002434 0.0000928 -0.0008255 0.0001389 -0.0000336 0.0002244 -0.0002750 0.0002090 0.0006790
0.0004128 -0.0009126 0.0000453 -0.0007666 0.0003974 0.0003004 0.0001687 -0.0000134 0.0003977 0.0004933 0.0002454 0.0002488 0.0001649 -0.0008557 0.0001316 0.0000259 0.0002829 -0.0002038 0.0000336 0.0007717
0.0004132 -0.0008255 0.0000404 -0.0008111 0.0003565 0.0001995 0.0001403 -0.0000685 0.0003933 0.0004340 0.0001959 0.0000540 0.0000730 -0.0009403 0.0001474 -0.0001563 0.0003506 -0.0004853 -0.0001176 0.0004250
0.0004946 -0.0011557 0.0000890 -0.0011317 0.0003428 -0.0000154 0.0000880 -0.0002362 0.0004154 0.0002516 0.0001756 -0.0001907 -0.0000983 -0.0009928 0.0001778 -0.0003085 0.0003935 -0.0005942 -0.0000602 0.0003953
0.0003848 -0.0010284 0.0001379 -0.0012425 0.0003358 -0.0001368 0.0000393 -0.0001823 0.0004232 0.0003440 0.0001895 -0.0001704 -0.0002557 -0.0007490 0.0001969 -0.0002406 0.0004044 -0.0004230 0.0001100 0.0006217
-0.0000590 -0.0004346 0.0001483 -0.0011110 0.0003316 -0.0001329 0.0000206 -0.0000167 0.0004083 0.0005108 0.0001831 -0.0000317 -0.0002191 -0.0006169 0.0001942 -0.0000898 0.0004073 -0.0001644 0.0003093 0.0008534
-0.0003860 -0.0001268 0.0001785 -0.0009275 0.0003086 -0.0000752 0.0000229 0.0001153 0.0003824 0.0007103 0.0001882 0.0001461 0.0000202 -0.0007451 0.0001535 0.0000497 0.0003853 0.0000562 0.0004307 0.0007799
-0.0004202 -0.0000390 0.0001604 -0.0009349 0.0002784 -0.0001151 0.0000324 0.0000691 0.0003350 0.0006907 0.0001609 0.0000810 0.0000052 -0.0007819 0.0000900 -0.0000352 0.0003532 -0.0000680 0.0004597 0.0002430
-0.0001934 -0.0002834 0.0000873 -0.0010625 0.0002406 -0.0002476 0.0000650 -0.0000807 0.0003071 0.0005370 0.0001255 -0.0001061 -0.0000823 -0.0007603 0.0000651 -0.0001938 0.0002812 -0.0001823 0.0004749 0.0000010
0.0001158 -0.0007234 0.0000719 -0.0010496 0.0002013 -0.0002867 0.0001223 -0.0001450 0.0003152 0.0005586 0.0001298 -0.0000528 0.0000180 -0.0008055 0.0000910 -0.0001341 0.0002584 -0.0000483 0.0003042 0.0003450
0.0000514 -0.0005082 0.0000757 -0.0008832 0.0001971 -0.0001945 0.0000956 -0.0000065 0.0003022 0.0007100 0.0001317 0.0001509 0.0001344 -0.0007172 0.0000917 0.0000790 0.0003046 0.0000960 -0.0000081 0.0010242
0.0002069 -0.0003059 0.0000880 -0.0007108 0.0001935 -0.0000686 -0.0000431 0.0002750 0.0002786 0.0009137 0.0001294 0.0003963 0.0002224 -0.0006597 0.0000610 0.0002001 0.0002866 0.0002100 -0.0001483 0.0011557
0.0004423 -0.0006673 0.0000974 -0.0008367 0.0001968 -0.0000924 -0.0001807 0.0003499 0.0002512 0.0008614 0.0001041 0.0003519 0.0000562 -0.0006743 0.0000592 0.0000757 0.0002980 0.0000903 -0.0002255 0.0009398
0.0000866 -0.0007692 0.0000542 -0.0009903 0.0001895 -0.0001868 -0.0001957 0.0002582 0.0002083 0.0007194 0.0000889 0.0002129 -0.0001969 -0.0004057 0.0000305 -0.0000712 0.0003379 0.0000302 -0.0002969 0.0009304
-0.0003843 -0.0003914 0.0000561 -0.0010928 0.0001601 -0.0003051 -0.0002046 0.0002545 0.0001664 0.0007703 0.0001085 0.0003493 -0.0003449 -0.0000685 -0.0000567 -0.0001642 0.0004231 0.0001959 -0.0002391 0.0009753
-0.0004943 -0.0002845 0.0000576 -0.0012128 0.0001143 -0.0004145 -0.0002401 0.0002253 0.0001285 0.0009300 0.0001201 0.0005680 -0.0003121 -0.0000041 -0.0001327 -0.0000973 0.0004283 0.0004787 -0.0001449 0.0013307
-0.0004943 -0.0002891 0.0000103 -0.0012061 0.0000734 -0.0003928 -0.0003179 0.0002645 0.0001039 0.0009641 0.0000936 0.0005694 -0.0002096 -0.0000501 -0.0001723 -0.0001051 0.0003194 0.0004413 0.0000027 0.0010602
-0.0005428 -0.0002640 -0.0000567 -0.0013280 0.0000492 -0.0004579 -0.0003048 0.0001725 0.0000865 0.0008144 0.0000484 0.0004125 -0.0001560 -0.0001263 -0.0002099 -0.0002447 0.0002859 0.0001633 0.0002896 0.0004054
-0.0005917 -0.0004612 -0.0000972 -0.0014308 0.0000527 -0.0005805 -0.0001940 -0.0000011 0.0000873 0.0007757 0.0000328 0.0003999 -0.0000428 -0.0001921 -0.0001971 -0.0002526 0.0002932 0.0001734 -0.0000674 0.0009165
-0.0002320 -0.0006945 -0.0001087 -0.0013052 0.0000600 -0.0005432 -0.0002336 0.0000959 0.0000834 0.0009116 0.0000415 0.0005240 -0.0001327 -0.0000365 -0.0002006 -0.0001010 0.0002731 0.0003656 -0.0003899 0.0015024
0.0000373 -0.0005973 -0.0001156 -0.0010896 0.0000417 -0.0004196 -0.0003211 0.0002827 0.0000767 0.0010898 0.0000261 0.0007239 -0.0002312 0.0001566 -0.0001976 0.0001028 0.0002585 0.0006094 -0.0003276 0.0015190
-0.0000216 -0.0005292 -0.0001245 -0.0011118 0.0000334 -0.0003833 -0.0003583 0.0003467 0.0000640 0.0010200 -0.0000050 0.0006536 -0.0003043 0.0001143 -0.0001875 -0.0000098 0.0002647 0.0004146 -0.0004885 0.0011850
-0.0001974 -0.0006412 -0.0001011 -0.0013726 0.0000523 -0.0005250 -0.0003925 0.0002464 0.0000538 0.0007843 -0.0000273 0.0004238 -0.0003446 0.0000185 -0.0002053 -0.0002151 0.0002255 0.0001500 -0.0003947 0.0006819
-0.0004076 -0.0006522 -0.0000636 -0.0014579 0.0000569 -0.0006379 -0.0003922 0.0001911 0.0000623 0.0007409 -0.0000196 0.0003946 -0.0002858 0.0000247 -0.0001887 -0.0002090 0.0001821 0.0002500 -0.0002747 0.0007829
-0.0005221 -0.0005827 -0.0000651 -0.0013002 0.0000530 -0.0006058 -0.0003827 0.0002955 0.0000583 0.0008700 -0.0000172 0.0005145 -0.0003785 0.0001427 -0.0001932 -0.0000669 0.0001812 0.0004882 -0.0000319 0.0010055
-0.0006213 -0.0003381 -0.0000862 -0.0010464 0.0000414 -0.0005090 -0.0003305 0.0004172 0.0000323 0.0010543 -0.0000388 0.0007249 -0.0004898 0.0003637 -0.0002027 0.0001307 0.0002109 0.0007665 0.0002716 0.0012532
-0.0006218 -0.0001004 -0.0000955 -0.0008104 0.0000061 -0.0003681 -0.0003171 0.0005425 -0.0000074 0.0012216 -0.0000628 0.0008359 -0.0003141 0.0002520 -0.0002356 0.0001677 0.0002327 0.0007126 0.0002564 0.0011619
-0.0003817 -0.0004546 -0.0001383 -0.0009408 -0.0000003 -0.0004230 -0.0003217 0.0004568 -0.0000331 0.0010897 -0.0000946 0.0007180 -0.0000984 0.0000005 -0.0002795 0.0000328 0.0001912 0.0004966 -0.0000074 0.0007968
-0.0002393 -0.0007856 -0.0001862 -0.0011412 -0.0000019 -0.0005634 -0.0003393 0.0003419 -0.0000122 0.0008891 -0.0001130 0.0006293 -0.0000456 -0.0000572 -0.0002912 0.0000250 0.0001707 0.0004798 -0.0001099 0.0008893
-0.0002705 -0.0006698 -0.0001705 -0.0010660 -0.0000140 -0.0005297 -0.0003769 0.0004158 0.0000136 0.0009655 -0.0001102 0.0007428 -0.0000692 0.0000312 -0.0002266 0.0001206 0.0002193 0.0005875 -0.0002507 0.0012363
-0.0001004 -0.0007244 -0.0001215 -0.0009709 0.0000075 -0.0004436 -0.0004409 0.0005608 0.0000003 0.0011226 -0.0001191 0.0009193 -0.0001803 0.0002150 -0.0001964 0.0002867 0.0002255 0.0007955 -0.0003402 0.0017143
-0.0001277 -0.0004957 -0.0001185 -0.0008687 0.0000269 -0.0003619 -0.0005435 0.0007302 -0.0000204 0.0011305 -0.0001346 0.0008930 -0.0003951 0.0003158 -0.0002345 0.0002484 0.0001996 0.0006915 -0.0001411 0.0014434
-0.0001958 -0.0005552 -0.0001526 -0.0009834 0.0000308 -0.0004344 -0.0005108 0.0006403 -0.0000161 0.0009677 -0.0001455 0.0007120 -0.0004882 0.0003033 -0.0002529 0.0000687 0.0001297 0.0004461 -0.0000020 0.0009228
-0.0004483 -0.0007248 -0.0001110 -0.0011231 0.0000546 -0.0005544 -0.0003500 0.0004496 -0.0000019 0.0009251 -0.0001561 0.0006774 -0.0004657 0.0002566 -0.0002655 0.0001188 0.0001020 0.0004402 -0.0000390 0.0010869
-0.0008047 -0.0001883 -0.0000563 -0.0009292 0.0000687 -0.0004957 -0.0002598 0.0004466 0.0000373 0.0010541 -0.0001671 0.0007285 -0.0003976 0.0001549 -0.0002830 0.0002202 0.0000719 0.0005079 -0.0000549 0.0012877
-0.0007712 0.0001889 -0.0000028 -0.0007288 0.0000457 -0.0004334 -0.0002607 0.0005215 0.0000751 0.0012191 -0.0001760 0.0007518 -0.0003244 0.0000773 -0.0003131 0.0001937 -0.0000318 0.0004661 0.0002220 0.0007233
-0.0004159 -0.0003725 -0.0000428 -0.0008715 0.0000260 -0.0005669 -0.0002060 0.0003581 0.0001004 0.0010441 -0.0001855 0.0005619 -0.0003809 0.0000756 -0.0003267 -0.0000096 -0.0000373 0.0001643 0.0002771 0.0002507
-0.0001986 -0.0008050 -0.0001171 -0.0010813 0.0000379 -0.0007585 -0.0001493 0.0001052 0.0001304 0.0007494 -0.0001937 0.0003563 -0.0002318 -0.0001316 -0.0003004 -0.0001498 0.0000151 0.0000070 0.0001175 0.0002681
0.0001074 -0.0008333 -0.0001082 -0.0011046 0.0000591 -0.0007939 -0.0001210 0.0000370 0.0001759 0.0007553 -0.0001774 0.0003766 -0.0000775 -0.0002784 -0.0002331 -0.0001531 0.0000972 0.0000524 -0.0001789 0.0005951
0.0005026 -0.0010000 -0.0000660 -0.0010495 0.0001064 -0.0006571 -0.0001790 0.0001690 0.0002110 0.0008344 -0.0001103 0.0006183 -0.0002925 -0.0000572 -0.0002094 -0.0000498 0.0001464 0.0001784 -0.0003501 0.0010591
0.0004120 -0.0006982 -0.0000640 -0.0010514 0.0001654 -0.0005008 -0.0002555 0.0002766 0.0001981 0.0007479 -0.0000807 0.0006919 -0.0005025 0.0000387 -0.0002198 -0.0001230 0.0001286 -0.0000177 -0.0000817 0.0004337
-0.0000795 -0.0002208 -0.0001081 -0.0014788 0.0001732 -0.0005480 -0.0002444 0.0000453 0.0001877 0.0004745 -0.0000940 0.0004674 -0.0005142 -0.0001225 -0.0001655 -0.0003408 0.0001297 -0.0003255 0.0000659 -0.0001008
-0.0003037 -0.0000237 -0.0001415 -0.0018384 0.0001513 -0.0006000 -0.0001951 -0.0002317 0.0001933 0.0003566 -0.0000686 0.0004326 -0.0004244 -0.0002454 -0.0001678 -0.0003148 0.0001472 -0.0002216 -0.0000780 0.0003485
-0.0000877 0.0002324 -0.0001075 -0.0015730 0.0001395 -0.0004979 -0.0001684 -0.0001916 0.0001993 0.0004735 -0.0000350 0.0005621 -0.0003467 -0.0002032 -0.0002003 -0.0001950 0.0001954 -0.0000430 0.0000195 0.0005659
-0.0000443 0.0005559 -0.0000834 -0.0012302 0.0001139 -0.0003516 -0.0000956 -0.0000947 0.0001918 0.0006471 -0.0000104 0.0007627 -0.0002948 -0.0000810 -0.0001756 -0.0000386 0.0002273 0.0001641 0.0003595 0.0004048
-0.0000676 0.0004841 -0.0001485 -0.0012511 0.0001058 -0.0002960 -0.0000398 -0.0000862 0.0001635 0.0006920 -0.0000102 0.0008161 -0.0001708 -0.0000729 -0.0001308 0.0000264 0.0002153 0.0002291 0.0003453 0.0003820
-0.0000446 0.0003045 -0.0001906 -0.0013387 0.0001023 -0.0003149 -0.0000966 0.0000352 0.0001408 0.0006687 -0.0000144 0.0007736 -0.0001620 0.0000120 -0.0000810 0.0000267 0.0002283 0.0002067 0.0001159 0.0006658
0.0001330 0.0002287 -0.0001837 -0.0012712 0.0000849 -0.0002763 -0.0001877 0.0001788 0.0001299 0.0007361 0.0000026 0.0008411 -0.0000839 -0.0000007 -0.0000619 0.0001332 0.0002176 0.0003495 -0.0000473 0.0009883
0.0002805 0.0002270 -0.0001681 -0.0011703 0.0000916 -0.0002110 -0.0002456 0.0002972 0.0001180 0.0008362 0.0000128 0.0009573 -0.0000800 0.0000649 -0.0000448 0.0002619 0.0002163 0.0005282 -0.0001169 0.0012023
0.0001601 0.0003180 -0.0001953 -0.0011864 0.0000885 -0.0001776 -0.0002313 0.0002966 0.0000933 0.0007680 -0.0000073 0.0009026 -0.0002233 0.0001492 -0.0000622 0.0001906 0.0002362 0.0004175 -0.0002349 0.0010842
0.0000109 0.0002886 -0.0001828 -0.0013789 0.0001016 -0.0002895 -0.0002660 0.0001990 0.0000751 0.0006030 -0.0000096 0.0007412 -0.0003327 0.0000429 -0.0000623 0.0000144 0.0001981 0.0002432 -0.0002733 0.0008173
-0.0000445 0.0002368 -0.0001357 -0.0014461 0.0001366 -0.0003829 -0.0002939 0.0001550 0.0000799 0.0006056 0.0000092 0.0007645 -0.0004594 0.0000906 -0.0000452 0.0000584 0.0002149 0.0003304 0.0001964 0.0007167
-0.0001156 0.0004149 -0.0001269 -0.0012858 0.0001345 -0.0003011 -0.0002794 0.0002484 0.0000734 0.0007365 0.0000142 0.0009133 -0.0003930 0.0001639 -0.0000585 0.0002210 0.0002059 0.0005807 0.0002281 0.0011155
-0.0001291 0.0005140 -0.0001408 -0.0012064 0.0001241 -0.0002457 -0.0002303 0.0002618 0.0000497 0.0007362 -0.0000045 0.0008868 -0.0001153 -0.0000632 -0.0001109 0.0001635 0.0001046 0.0005227 0.0000733 0.0008278
-0.0001670 0.0003356 -0.0001849 -0.0014166 0.0001318 -0.0003883 -0.0001295 0.0000710 0.0000196 0.0003974 -0.0000056 0.0006347 0.0000578 -0.0002019 -0.0000567 0.0000106 0.0001524 0.0002811 0.0001098 0.0001946
-0.0001203 -0.0000614 -0.0002209 -0.0015515 0.0001727 -0.0005506 -0.0000117 0.0000963 -0.0000015 0.0000960 0.0000051 0.0005213 0.0000708 -0.0000859 0.0000822 0.0000738 0.0002863 0.0003530 0.0001581 0.0003225
-0.0000260 -0.0003868 -0.0002141 -0.0014385 0.0002123 -0.0005401 0.0000901 0.0002657 0.0000208 0.0001343 -0.0000059 0.0005995 0.0001131 -0.0000078 0.0001468 0.0002017 0.0003756 0.0005359 -0.0000798 0.0008517
-0.0000658 -0.0003783 -0.0002069 -0.0013243 0.0002190 -0.0004975 0.0000224 0.0003379 0.0000593 0.0002397 -0.0000200 0.0005765 -0.0000423 0.0000987 0.0001492 0.0000847 0.0003991 0.0003854 -0.0004004 0.0008538
-0.0000196 -0.0005313 -0.0001743 -0.0014558 0.0002217 -0.0006146 -0.0000973 0.0001603 0.0000964 0.0001466 -0.0000139 0.0004019 -0.0001988 -0.0000051 0.0001367 -0.0001825 0.0003936 0.0000288 -0.0001340 0.0001309
0.0000330 -0.0008087 -0.0001247 -0.0016137 0.0002382 -0.0007412 -0.0000780 -0.0000949 0.0001472 0.0000615 0.0000296 0.0003423 -0.0002484 -0.0001056 0.0001492 -0.0002574 0.0003981 -0.0000376 0.0002691 -0.0001267
-0.0001207 -0.0006766 -0.0000839 -0.0014905 0.0002445 -0.0006870 -0.0000384 -0.0000825 0.0001853 0.0001774 0.0000650 0.0004691 -0.0002962 0.0000722 0.0001378 -0.0001200 0.0003971 0.0001024 0.0004412 0.0001503
-0.0002855 -0.0002425 -0.0000446 -0.0012649 0.0002457 -0.0005150 -0.0000038 0.0000155 0.0001920 0.0003632 0.0001128 0.0007611 -0.0002646 0.0001629 0.0001163 -0.0000824 0.0003786 0.0001153 0.0005089 0.0000472
-0.0002787 -0.0002103 -0.0000263 -0.0013648 0.0002727 -0.0004962 0.0000144 -0.0001155 0.0001973 0.0002526 0.0001619 0.0007758 -0.0001039 -0.0001759 0.0000907 -0.0002572 0.0003628 -0.0000872 0.0006864 -0.0004927
-0.0000163 -0.0006223 -0.0000460 -0.0015542 0.0002632 -0.0006255 0.0000130 -0.0002598 0.0002351 0.0000583 0.0001808 0.0005936 0.0000388 -0.0003539 0.0000738 -0.0003145 0.0003929 -0.0001334 0.0004868 -0.0002429
0.0001376 -0.0005862 -0.0000600 -0.0013947 0.0002341 -0.0006510 0.0000409 -0.0001993 0.0002757 0.0001718 0.0001915 0.0006690 0.0000501 -0.0001904 0.0001061 -0.0001867 0.0004290 0.0000612 0.0002834 0.0003527
0.0000402 -0.0003388 -0.0000192 -0.0011778 0.0002330 -0.0006034 0.0000589 -0.0000938 0.0002850 0.0004021 0.0002094 0.0008659 0.0001627 -0.0001053 0.0001937 -0.0000098 0.0004710 0.0003764 0.0002541 0.0009644
0.0001763 -0.0003123 0.0000439 -0.0009680 0.0002521 -0.0005008 0.0000156 0.0000858 0.0002744 0.0006256 0.0002208 0.0009936 0.0002099 -0.0000479 0.0002156 0.0000679 0.0004693 0.0004356 0.0003007 0.0008164
0.0002031 -0.0002832 0.0000463 -0.0010127 0.0002672 -0.0005159 -0.0000603 0.0000985 0.0002774 0.0005060 0.0002257 0.0008631 -0.0000483 0.0001230 0.0002304 -0.0000159 0.0004932 0.0002433 0.0004160 0.0002440
0.0001454 -0.0003521 0.0000444 -0.0011904 0.0002756 -0.0006090 -0.0000458 -0.0000605 0.0002943 0.0003054 0.0002443 0.0007531 -0.0001508 0.0001171 0.0002849 -0.0000403 0.0005552 0.0002320 0.0005162 0.0002714
0.0000948 -0.0003223 0.0001036 -0.0011239 0.0002896 -0.0005779 0.0000022 -0.0000807 0.0003012 0.0004089 0.0002621 0.0008905 -0.0001057 0.0001793 0.0002802 0.0001296 0.0005462 0.0004837 0.0004613 0.0006897
-0.0000208 -0.0000440 0.0001231 -0.0009164 0.0002951 -0.0004792 -0.0000328 0.0001181 0.0002745 0.0006144 0.0002850 0.0010817 -0.0002530 0.0005166 0.0002390 0.0003844 0.0004858 0.0008515 0.0004144 0.0011459
-0.0000918 0.0002901 0.0001125 -0.0007236 0.0002800 -0.0003314 -0.0000698 0.0003042 0.0002517 0.0007319 0.0002751 0.0011201 -0.0002348 0.0004509 0.0001925 0.0004253 0.0004544 0.0008503 0.0006203 0.0007079
-0.0001074 0.0001482 0.0000805 -0.0008451 0.0002551 -0.0003662 -0.0000565 0.0001972 0.0002340 0.0006133 0.0002348 0.0010088 -0.0000992 0.0003104 0.0001679 0.0003202 0.0004457 0.0007208 0.0006066 0.0003579
-0.0001566 -0.0000031 0.0000496 -0.0009851 0.0002380 -0.0004725 -0.0000244 0.0000909 0.0002188 0.0005448 0.0002138 0.0009902 0.0001079 0.0002581 0.0001900 0.0003501 0.0004983 0.0007907 0.0003392 0.0008263
0.0000385 0.0000174 0.0000586 -0.0008425 0.0002241 -0.0004216 -0.0000423 0.0002127 0.0002149 0.0007013 0.0002099 0.0010953 0.0002229 0.0002070 0.0002109 0.0005031 0.0005429 0.0010281 0.0001929 0.0011925
0.0002708 -0.0000486 0.0000662 -0.0006316 0.0002062 -0.0003160 -0.0001150 0.0003981 0.0002025 0.0009092 0.0001926 0.0012435 0.0000496 0.0004090 0.0001884 0.0007629 0.0005262 0.0013434 0.0001328 0.0017929
0.0001286 0.0001287 0.0000472 -0.0005784 0.0001971 -0.0002311 -0.0001688 0.0005103 0.0001761 0.0009181 0.0001575 0.0011993 -0.0000964 0.0004589 0.0001875 0.0006916 0.0005173 0.0012510 -0.0000520 0.0016563
-0.0000576 0.0001133 0.0000469 -0.0007928 0.0002047 -0.0003212 -0.0002161 0.0004135 0.0001505 0.0007476 0.0001307 0.0010562 -0.0001645 0.0004037 0.0002059 0.0004499 0.0005325 0.0010151 -0.0001953 0.0011113
-0.0001823 0.0000611 0.0000566 -0.0008853 0.0002125 -0.0004081 -0.0002386 0.0003439 0.0001321 0.0007422 0.0001392 0.0010878 -0.0001757 0.0004852 0.0001876 0.0005175 0.0005194 0.0010880 -0.0000202 0.0012890
-0.0002471 0.0003461 0.0000395 -0.0006929 0.0002097 -0.0003100 -0.0002303 0.0004612 0.0001132 0.0009195 0.0001593 0.0012365 -0.0002798 0.0006688 0.0001509 0.0007021 0.0004686 0.0013256 0.0002453 0.0014836
-0.0002320 0.0005396 0.0000122 -0.0004457 0.0001826 -0.0001411 -0.0001460 0.0005432 0.0000895 0.0011290 0.0001675 0.0014086 -0.0003340 0.0008143 0.0001125 0.0008142 0.0004210 0.0014571 0.0002802 0.0013823
-0.0002390 0.0004510 -0.0000242 -0.0005041 0.0001612 -0.0001377 -0.0001300 0.0004757 0.0000583 0.0010307 0.0001300 0.0013317 -0.0001486 0.0005862 0.0000726 0.0006983 0.0003723 0.0012960 0.0003101 0.0009599
-0.0003227 0.0003771 -0.0000526 -0.0006838 0.0001592 -0.0002540 -0.0001556 0.0003571 0.0000465 0.0008276 0.0000952 0.0011910 0.0000157 0.0003293 0.0000424 0.0005891 0.0003281 0.0012015 0.0002264 0.0010869
-0.0002220 0.0003100 -0.0000608 -0.0006371 0.0001566 -0.0002529 -0.0001710 0.0003753 0.0000635 0.0008719 0.0000974 0.0012791 0.0000577 0.0003626 0.0000494 0.0006689 0.0003258 0.0013010 0.0001375 0.0013896
-0.0000705 0.0003367 -0.0000666 -0.0004742 0.0001590 -0.0001572 -0.0002419 0.0005630 0.0000756 0.0010193 0.0000873 0.0014383 0.0000403 0.0004858 0.0000898 0.0008059 0.0003758 0.0014183 0.0000081 0.0017234
-0.0001105 0.0004377 -0.0000721 -0.0004815 0.0001596 -0.0001353 -0.0002596 0.0005976 0.0000652 0.0009796 0.0000645 0.0013357 -0.0000350 0.0004733 0.0000940 0.0006857 0.0003931 0.0012541 -0.0002843 0.0017943
-0.0001791 0.0002526 -0.0000602 -0.0007139 0.0001763 -0.0002859 -0.0002740 0.0004436 0.0000645 0.0007898 0.0000517 0.0011114 -0.0001964 0.0003893 0.0000918 0.0004598 0.0003837 0.0009854 -0.0003143 0.0013480
-0.0001741 0.0000970 -0.0000478 -0.0007518 0.0001977 -0.0003998 -0.0002621 0.0004160 0.0000943 0.0007615 0.0000693 0.0010658 -0.0002826 0.0004427 0.0000961 0.0004758 0.0004072 0.0010115 -0.0000677 0.0013013
-0.0003451 0.0002685 0.0000210 -0.0004912 0.0002178 -0.0003947 -0.0002037 0.0004970 0.0001260 0.0008433 0.0000902 0.0011088 -0.0003491 0.0006232 0.0001110 0.0005099 0.0004534 0.0011019 0.0002618 0.0013313
-0.0005099 0.0003589 0.0000924 -0.0003657 0.0002373 -0.0004069 -0.0001035 0.0004019 0.0001397 0.0007777 0.0000850 0.0010001 -0.0001583 0.0004008 0.0000901 0.0003332 0.0004222 0.0009175 0.0003310 0.0009664
-0.0005688 0.0002504 0.0000763 -0.0006129 0.0002320 -0.0005829 -0.0000113 0.0000885 0.0001718 0.0004875 0.0000785 0.0007064 -0.0000037 0.0001214 0.0001036 0.0000303 0.0003918 0.0006290 0.0003276 0.0003127
-0.0003889 0.0000087 0.0000430 -0.0007107 0.0002153 -0.0007856 0.0000891 -0.0001779 0.0002309 0.0003249 0.0000952 0.0005576 0.0000184 0.0000963 0.0001753 -0.0000742 0.0004714 0.0005416 0.0003143 0.0002411
-0.0000481 -0.0002459 0.0000462 -0.0005830 0.0002160 -0.0008236 0.0001481 -0.0001990 0.0002877 0.0003913 0.0001049 0.0006185 0.0001463 0.0000312 0.0002427 0.0000130 0.0006009 0.0005872 0.0001882 0.0006539
0.0000838 -0.0002100 0.0000687 -0.0004234 0.0002272 -0.0007407 0.0001271 -0.0000731 0.0003154 0.0005414 0.0001004 0.0006844 0.0001634 0.0000676 0.0003206 0.0000078 0.0006557 0.0005789 0.0001692 0.0005146
0.0001509 -0.0002699 0.0000954 -0.0005785 0.0002475 -0.0008042 0.0000515 -0.0001160 0.0003267 0.0003633 0.0000877 0.0004892 0.0001551 -0.0000742 0.0003407 -0.0001958 0.0006969 0.0002712 0.0003990 -0.0002595
0.0001189 -0.0005753 0.0001342 -0.0008857 0.0002852 -0.0010144 0.0000225 -0.0003125 0.0003476 0.0000680 0.0000998 0.0002608 0.0000420 -0.0002096 0.0003679 -0.0004004 0.0007793 0.0000273 0.0006334 -0.0005836
-0.0001243 -0.0005198 0.0001689 -0.0008218 0.0002937 -0.0010510 0.0000642 -0.0003648 0.0003811 0.0001070 0.0001366 0.0002767 -0.0000452 -0.0001234 0.0003663 -0.0004007 0.0007698 0.0000998 0.0005080 -0.0001187
-0.0003999 0.0000582 0.0002027 -0.0006553 0.0003141 -0.0009063 0.0001104 -0.0003052 0.0004006 0.0002377 0.0001744 0.0003915 -0.0001364 0.0000575 0.0003627 -0.0002799 0.0007498 0.0002482 0.0005377 0.0000194
-0.0004696 0.0003182 0.0002142 -0.0006171 0.0003244 -0.0007423 0.0001038 -0.0002461 0.0003732 0.0003656 0.0001841 0.0004508 -0.0000698 -0.0000234 0.0003411 -0.0002723 0.0006751 0.0001680 0.0007398 -0.0004327
-0.0002352 -0.0001990 0.0001440 -0.0008261 0.0002916 -0.0008252 0.0000751 -0.0002864 0.0003410 0.0002084 0.0001604 0.0002860 0.0000035 -0.0002093 0.0002753 -0.0004230 0.0005552 -0.0000824 0.0006009 -0.0004542
-0.0001520 -0.0004403 0.0000733 -0.0009797 0.0002839 -0.0009712 0.0001516 -0.0004169 0.0003499 -0.0000364 0.0001497 0.0001220 0.0001376 -0.0003779 0.0002671 -0.0005143 0.0005353 -0.0002006 0.0007015 -0.0006645
-0.0001441 -0.0004501 0.0001007 -0.0009283 0.0002998 -0.0009521 0.0002256 -0.0004562 0.0003691 -0.0000105 0.0001613 0.0001709 0.0003286 -0.0005592 0.0003040 -0.0004656 0.0005809 -0.0001659 0.0007062 -0.0005904
0.0002784 -0.0007232 0.0001448 -0.0008133 0.0003073 -0.0008513 0.0001790 -0.0003857 0.0003592 0.0001365 0.0001787 0.0003104 0.0001774 -0.0003283 0.0003020 -0.0002801 0.0005826 -0.0000148 0.0002587 0.0003752
0.0004146 -0.0004393 0.0001274 -0.0006464 0.0002978 -0.0007055 0.0000898 -0.0002243 0.0003418 0.0001962 0.0001695 0.0003156 -0.0001094 -0.0000980 0.0002985 -0.0002590 0.0005491 -0.0000620 0.0001104 0.0005390
0.0003425 -0.0005411 0.0001061 -0.0007926 0.0002802 -0.0007492 0.0000595 -0.0002154 0.0003325 0.0000391 0.0001557 0.0001618 -0.0002645 -0.0001860 0.0003064 -0.0004071 0.0005404 -0.0003234 0.0004586 -0.0001827
0.0000541 -0.0007041 0.0001475 -0.0009789 0.0002916 -0.0008540 0.0001083 -0.0003133 0.0003212 -0.0000368 0.0001534 0.0001208 -0.0002086 -0.0002555 0.0002701 -0.0003470 0.0005006 -0.0003014 0.0006721 -0.0003347
-0.0003581 -0.0001900 0.0001823 -0.0008425 0.0003131 -0.0007858 0.0001565 -0.0002388 0.0003092 0.0000794 0.0001715 0.0002084 -0.0000888 -0.0002106 0.0002595 -0.0001715 0.0004458 -0.0001003 0.0006504 0.0001525
-0.0004709 0.0000998 0.0001970 -0.0006826 0.0003208 -0.0006581 0.0001238 -0.0000817 0.0002895 0.0001868 0.0001972 0.0002661 -0.0001123 -0.0002766 0.0002275 -0.0001586 0.0003728 -0.0001474 0.0006072 -0.0000387
-0.0005042 -0.0000494 0.0001433 -0.0007704 0.0003146 -0.0006756 0.0002169 -0.0002340 0.0002759 0.0000236 0.0001688 0.0001265 -0.0002487 -0.0003670 0.0001982 -0.0002915 0.0002994 -0.0003542 0.0005031 -0.0006183
-0.0004436 -0.0003231 0.0000720 -0.0009049 0.0003042 -0.0007693 0.0003088 -0.0003990 0.0002774 -0.0001590 0.0001351 -0.0000441 0.0000382 -0.0006232 0.0002214 -0.0003193 0.0002690 -0.0003490 0.0004159 -0.0003866
0.0000204 -0.0005490 0.0000572 -0.0007932 0.0003139 -0.0007395 0.0003114 -0.0003116 0.0002809 -0.0000774 0.0001249 -0.0000231 0.0001637 -0.0006169 0.0002507 -0.0002090 0.0002697 -0.0001361 0.0000834 0.0004064
0.0003708 -0.0006336 0.0000620 -0.0005817 0.0003163 -0.0006163 0.0002822 -0.0001786 0.0002909 0.0000838 0.0001153 0.0000629 0.0000071 -0.0004209 0.0002632 -0.0001557 0.0002956 -0.0001091 0.0000476 0.0003821
0.0002404 -0.0005600 0.0000520 -0.0006303 0.0003071 -0.0006144 0.0002108 -0.0002022 0.0002926 -0.0000433 0.0000803 -0.0001093 0.0000032 -0.0004998 0.0002861 -0.0003194 0.0003280 -0.0003956 0.0002106 -0.0002285
0.0000861 -0.0006135 0.0001070 -0.0008614 0.0003370 -0.0007403 0.0001880 -0.0003493 0.0003126 -0.0003090 0.0000750 -0.0003447 -0.0000554 -0.0006020 0.0003276 -0.0004100 0.0003582 -0.0006049 0.0002683 -0.0004293
-0.0000558 -0.0002944 0.0002303 -0.0006872 0.0003699 -0.0006897 0.0002301 -0.0003902 0.0003425 -0.0003268 0.0001643 -0.0001106 -0.0001969 -0.0005654 0.0003622 -0.0002464 0.0003289 -0.0006470 0.0002177 0.0001144
0.0000440 0.0003820 0.0002678 -0.0003691 0.0005015 -0.0000351 0.0003163 -0.0003852 0.0003748 -0.0002301 0.0002802 0.0003887 -0.0003297 -0.0003850 0.0003857 0.0000599 0.0002696 -0.0006310 0.0005954 0.0000175
-0.0000486 0.0007074 0.0002468 -0.0003769 0.0006237 0.0004696 0.0004476 -0.0004892 0.0004459 -0.0002053 0.0003049 0.0004534 -0.0001999 -0.0005745 0.0004006 0.0000976 0.0001916 -0.0007563 0.0009726 -0.0007621
-0.0003466 0.0007485 0.0002249 -0.0005228 0.0006131 0.0004504 0.0005239 -0.0006469 0.0005107 -0.0003064 0.0002802 0.0002748 0.0000309 -0.0008900 0.0003989 0.0000155 0.0001671 -0.0009423 0.0006131 -0.0007195
-0.0003096 0.0010280 0.0002875 -0.0002756 0.0006256 0.0005388 0.0004775 -0.0007305 0.0004840 -0.0003528 0.0002806 0.0002327 0.0001876 -0.0009566 0.0004050 0.0000649 0.0002609 -0.0007468 0.0005856 -0.0002930
0.0002007 0.0006722 0.0003132 0.0001656 0.0005428 0.0003772 0.0003919 -0.0005986 0.0004522 -0.0001672 0.0002435 0.0001530 0.0002075 -0.0008456 0.0004023 0.0001391 0.0003155 -0.0003183 0.0006158 0.0002085
0.0005201 0.0002621 0.0002713 0.0004111 0.0004004 0.0000926 0.0003189 -0.0003048 0.0004571 0.0001311 0.0001968 0.0001310 0.0001367 -0.0006814 0.0004001 0.0001484 0.0003877 -0.0002897 0.0004176 0.0002015
0.0004015 0.0003642 0.0002659 0.0002579 0.0003720 -0.0000033 0.0003220 -0.0003920 0.0004572 -0.0000007 0.0001819 -0.0000251 0.0000907 -0.0008109 0.0004244 -0.0000251 0.0004683 -0.0006430 0.0005124 -0.0003331
0.0004451 -0.0000032 0.0003352 -0.0000942 0.0003838 -0.0001615 0.0002996 -0.0006006 0.0004807 -0.0002189 0.0001796 -0.0002684 -0.0000336 -0.0009640 0.0003952 -0.0000939 0.0004643 -0.0007132 0.0004058 -0.0001678
0.0003286 -0.0000209 0.0003973 -0.0000859 0.0003328 -0.0003159 0.0002510 -0.0005153 0.0004932 -0.0000825 0.0001730 -0.0002832 -0.0001997 -0.0007371 0.0003978 0.0000010 0.0005085 -0.0004575 0.0004272 0.0002708
-0.0002290 0.0005750 0.0004080 0.0000733 0.0002987 -0.0003471 0.0002530 -0.0003317 0.0004729 0.0001271 0.0001807 -0.0001574 -0.0001453 -0.0005474 0.0004482 0.0001520 0.0005578 -0.0001567 0.0006529 0.0004654
-0.0004951 0.0007525 0.0004244 0.0001915 0.0002992 -0.0002682 0.0002802 -0.0002828 0.0004062 0.0002744 0.0002498 0.0002227 0.0000615 -0.0004920 0.0003867 0.0002807 0.0004668 0.0000314 0.0006229 0.0005541
-0.0005016 0.0009484 0.0003163 -0.0000368 0.0005257 0.0006096 0.0004483 0.0003068 0.0002676 0.0000460 0.0004839 0.0012052 0.0001038 0.0001176 0.0002623 0.0001919 0.0003581 0.0000835 0.0007483 0.0002450
-0.0001128 0.0016234 0.0000284 -0.0004431 0.0010746 0.0026063 0.0009059 0.0016543 0.0000580 -0.0001702 0.0007661 0.0022519 0.0001857 0.0008834 0.0002979 0.0001411 0.0003838 0.0003830 0.0008530 0.0001802
0.0003599 0.0016487 0.0000193 -0.0000125 0.0014914 0.0041202 0.0013260 0.0026546 -0.0000527 0.0000094 0.0009149 0.0028450 0.0003649 0.0011866 0.0004712 0.0003676 0.0005129 0.0009505 0.0009246 0.0003802
0.0002988 0.0013644 0.0001654 0.0007075 0.0015542 0.0043692 0.0013725 0.0029613 -0.0000335 0.0002879 0.0010035 0.0033248 0.0003214 0.0015087 0.0005521 0.0007492 0.0005310 0.0014404 0.0008242 0.0010520
0.0004420 0.0015452 0.0000703 0.0008209 0.0015867 0.0046498 0.0012702 0.0033598 -0.0000646 0.0005394 0.0010923 0.0039327 0.0002636 0.0018538 0.0005241 0.0011893 0.0004306 0.0016639 0.0005965 0.0016728
0.0005861 0.0015993 -0.0000602 0.0005215 0.0015839 0.0047272 0.0010996 0.0031494 -0.0000586 0.0004875 0.0010404 0.0037688 0.0001438 0.0014640 0.0005395 0.0011744 0.0003884 0.0013014 0.0005820 0.0010451
0.0000518 0.0011265 -0.0000462 0.0002717 0.0011530 0.0031360 0.0006769 0.0016416 0.0000935 0.0003620 0.0008065 0.0028069 -0.0001224 0.0008042 0.0005471 0.0009807 0.0004303 0.0007620 0.0004877 0.0003743
-0.0006851 0.0008179 0.0001139 0.0002978 0.0006500 0.0012699 0.0002981 0.0004664 0.0001860 0.0004506 0.0005025 0.0016457 -0.0002330 0.0002768 0.0005801 0.0010352 0.0005139 0.0006055 0.0004615 0.0001333
-0.0007708 0.0006940 0.0002136 0.0004816 0.0004698 0.0007281 0.0001737 0.0002874 0.0001507 0.0006352 0.0002754 0.0007539 -0.0001868 -0.0001377 0.0005470 0.0009977 0.0005311 0.0008542 0.0007623 0.0000304
-0.0005394 0.0004664 0.0001732 0.0006586 0.0003780 0.0006899 0.0001189 0.0004815 0.0000913 0.0008528 0.0001966 0.0006517 -0.0001065 -0.0000569 0.0004216 0.0008774 0.0005195 0.0011271 0.0007385 0.0002276
-0.0006038 0.0005279 0.0000731 0.0005881 0.0002995 0.0006134 0.0001627 0.0005465 0.0000499 0.0007977 0.0001122 0.0005655 0.0001285 -0.0002948 0.0003421 0.0006923 0.0005086 0.0009897 0.0007249 0.0001228
-0.0006238 0.0003347 0.0000373 0.0003898 0.0002656 0.0004941 0.0001940 0.0004227 0.0000406 0.0006464 0.0000588 0.0004104 0.0002018 -0.0005343 0.0002945 0.0005310 0.0004939 0.0008229 0.0006525 0.0001278
-0.0002053 -0.0000555 0.0000501 0.0003329 0.0002587 0.0004618 0.0000766 0.0004647 0.0000342 0.0007223 0.0000577 0.0004695 0.0000775 -0.0003574 0.0002660 0.0005739 0.0005008 0.0009015 0.0002122 0.0007178
-0.0001040 0.0001679 0.0000443 0.0005048 0.0002451 0.0005335 -0.0000387 0.0006822 0.0000254 0.0008962 0.0000439 0.0006295 -0.0001926 -0.0000183 0.0002702 0.0007001 0.0004748 0.0010982 0.0000140 0.0013330
-0.0002406 0.0003005 0.0000204 0.0005124 0.0002192 0.0005753 -0.0000264 0.0006999 -0.0000041 0.0008861 0.0000207 0.0005704 -0.0004664 0.0000993 0.0002867 0.0005389 0.0004647 0.0009444 0.0001772 0.0007537
-0.0005430 0.0001615 0.0000277 0.0001965 0.0002128 0.0004546 -0.0000319 0.0005430 -0.0000403 0.0007138 -0.0000113 0.0003737 -0.0004379 -0.0000166 0.0002373 0.0003488 0.0004897 0.0006608 0.0002833 0.0003173
-0.0009376 0.0004153 0.0000193 0.0000843 0.0002063 0.0003674 -0.0000960 0.0005536 -0.0000455 0.0006845 -0.0000119 0.0003646 -0.0003010 -0.0000397 0.0001888 0.0004464 0.0004173 0.0008097 0.0002870 0.0007699
-0.0009827 0.0006563 -0.0000113 0.0002176 0.0001923 0.0004269 -0.0000859 0.0006188 -0.0000535 0.0008169 0.0000024 0.0004870 -0.0001558 -0.0001017 0.0001764 0.0005898 0.0003494 0.0010574 0.0004711 0.0008888
-0.0008818 0.0006593 -0.0000614 0.0003604 0.0001800 0.0005475 -0.0000212 0.0006573 -0.0000738 0.0009174 -0.0000207 0.0004884 -0.0001945 -0.0000707 0.0001615 0.0005135 0.0003522 0.0009417 0.0005120 0.0006072
-0.0008180 0.0005457 -0.0001410 0.0001955 0.0001639 0.0004620 -0.0000156 0.0005608 -0.0000816 0.0007231 -0.0000621 0.0002558 -0.0001291 -0.0002707 0.0001238 0.0002505 0.0003391 0.0006499 0.0003805 0.0003203
-0.0004604 0.0000908 -0.0001527 0.0000088 0.0001548 0.0002522 -0.0000148 0.0003744 -0.0000596 0.0005075 -0.0000809 0.0001028 0.0000486 -0.0004941 0.0001203 0.0001260 0.0003819 0.0005699 0.0003476 0.0002059
-0.0001685 -0.0003387 -0.0001023 0.0001482 0.0001616 0.0001883 -0.0000367 0.0004043 -0.0000139 0.0005555 -0.0000738 0.0001502 -0.0000938 -0.0003102 0.0001562 0.0001750 0.0004162 0.0006960 0.0001708 0.0006489
