-0.0000000 -0.0000000 -0.0000000 -0.0000000 -0.0000000 -0.0000000 -0.0000000 -0.0000000 -0.0000000 -0.0000000 -0.0000000 -0.0000000 -0.0000000 -0.0000000 -0.0000000 -0.0000000 -0.0000000 -0.0000000 -0.0000000 -0.0000000
-0.0000000 -0.0000000 -0.0000000 -0.0000000 -0.0000000 -0.0000000 -0.0000000 -0.0000000 -0.0000000 -0.0000000 -0.0000000 -0.0000000 -0.0000000 -0.0000000 -0.0000000 -0.0000000 -0.0000000 -0.0000000 -0.0000000 -0.0000000
0.0003468 0.0004320 -0.0005242 -0.0013370 0.0005506 -0.0000716 -0.0004085 -0.0015430 -0.0001559 -0.0002794 -0.0004910 -0.0009678 -0.0007451 -0.0014212 0.0003299 0.0005261 0.0028299 -0.0030575 -0.0030209 0.0006046
-0.0016183 0.0044306 -0.0005399 -0.0018301 0.0005402 -0.0000591 -0.0005519 -0.0018792 -0.0002058 -0.0004082 -0.0005097 -0.0011839 -0.0007660 -0.0014679 0.0002126 0.0006358 0.0042094 -0.0045112 -0.0086866 0.0129506
-0.0036167 -0.0076505 -0.0004804 -0.0015329 0.0002428 -0.0002420 -0.0004141 -0.0018520 -0.0001870 -0.0004983 -0.0004992 -0.0013075 -0.0008183 -0.0013277 0.0000305 0.0009567 0.0002376 0.0054439 -0.0072304 0.0128628
-0.0155438 0.0106808 -0.0004309 -0.0011379 0.0000499 -0.0002658 -0.0001506 -0.0018476 -0.0001586 -0.0005176 -0.0005341 -0.0013877 -0.0006015 -0.0015554 -0.0000215 0.0008010 -0.0102409 0.0020283 -0.0068215 0.0114283
-0.0012726 0.0035669 -0.0003500 -0.0009714 -0.0000891 -0.0002789 0.0000829 -0.0018160 -0.0001264 -0.0004966 -0.0005364 -0.0013673 -0.0002437 -0.0017195 0.0000726 0.0004318 -0.0056983 -0.0010802 -0.0077373 0.0154702
0.0080759 -0.0121150 -0.0003786 -0.0006142 -0.0001696 -0.0003501 -0.0000074 -0.0014923 -0.0000963 -0.0004145 -0.0004842 -0.0012010 -0.0001649 -0.0012546 0.0000877 0.0002727 -0.0026788 0.0090974 -0.0045113 0.0149309
0.0034901 0.0031590 -0.0002548 -0.0002289 -0.0002234 -0.0003366 -0.0001333 -0.0008834 -0.0000619 -0.0002897 -0.0004235 -0.0010287 -0.0004602 -0.0006317 0.0000376 0.0000093 -0.0001124 0.0060886 -0.0018411 0.0029670
0.0031070 -0.0001964 -0.0000015 -0.0001396 -0.0002522 -0.0002774 -0.0002107 -0.0005281 -0.0000474 -0.0001847 -0.0003533 -0.0008422 -0.0005319 -0.0003804 0.0001279 -0.0004182 -0.0004238 0.0083547 0.0034460 -0.0016388
-0.0064077 0.0054887 0.0000396 -0.0000190 -0.0002567 -0.0003003 -0.0001234 -0.0004950 -0.0000395 -0.0001680 -0.0002784 -0.0007860 -0.0003466 -0.0002396 -0.0000298 -0.0007585 -0.0032221 0.0094721 0.0006027 0.0014298
-0.0115146 0.0126942 0.0000726 0.0001817 -0.0002148 -0.0003927 0.0001902 -0.0005091 -0.0000153 -0.0002700 -0.0002149 -0.0008814 -0.0001368 -0.0001034 -0.0005169 -0.0009764 -0.0029941 -0.0005204 -0.0010065 -0.0123682
-0.0033514 0.0035849 0.0000494 0.0002967 -0.0001061 -0.0004546 0.0003605 -0.0003863 0.0000103 -0.0003383 -0.0001765 -0.0008698 0.0003359 -0.0001239 -0.0006860 -0.0009117 -0.0128778 0.0121362 -0.0059250 0.0061774
0.0018506 0.0062485 -0.0000752 0.0003696 -0.0000100 -0.0004623 0.0001964 -0.0001882 0.0000413 -0.0003201 -0.0001541 -0.0007577 0.0005039 -0.0001020 -0.0005186 -0.0008642 -0.0082343 0.0048573 -0.0038647 0.0065989
0.0055351 0.0029761 -0.0000399 0.0003650 0.0000303 -0.0004431 0.0001409 -0.0000916 0.0000682 -0.0002448 -0.0001278 -0.0006351 0.0002343 0.0001526 -0.0002920 -0.0010827 0.0052435 -0.0137175 0.0058083 -0.0171599
0.0040102 -0.0010454 0.0000512 0.0004339 0.0000726 -0.0004250 0.0000525 0.0001276 0.0000785 -0.0001127 -0.0000886 -0.0004691 -0.0000063 0.0005081 -0.0001029 -0.0009610 -0.0027755 0.0102410 -0.0029470 0.0103157
-0.0037066 0.0058710 0.0001953 0.0005066 0.0001194 -0.0003975 -0.0000181 0.0002856 0.0000740 0.0000321 -0.0000331 -0.0003125 -0.0001035 0.0005831 -0.0002026 -0.0011101 -0.0069023 0.0117119 -0.0015799 0.0083490
-0.0194339 0.0150684 0.0003262 0.0004634 0.0001506 -0.0003583 0.0001851 0.0002674 0.0000711 0.0001907 0.0000242 -0.0001753 0.0001995 0.0005382 -0.0004322 -0.0013056 -0.0105856 0.0063949 0.0234809 -0.0587972
-0.0097534 0.0016375 0.0002083 0.0005200 0.0001568 -0.0003088 0.0003409 0.0001767 0.0000715 0.0002590 0.0000507 -0.0001356 0.0005680 0.0004313 -0.0006652 -0.0010763 -0.0217543 0.0215367 -0.0046602 0.0055937
0.0057942 -0.0081556 0.0000934 0.0005871 0.0001723 -0.0003291 0.0003391 0.0002000 0.0000922 0.0001395 0.0000404 -0.0002570 0.0005536 0.0002680 -0.0006147 -0.0012178 -0.0166972 0.0159116 -0.0100434 0.0197108
0.0064114 -0.0072790 0.0000557 0.0005291 0.0002048 -0.0003824 0.0002861 0.0002551 0.0001233 0.0000289 0.0000316 -0.0003450 0.0003741 0.0003702 -0.0003172 -0.0011658 0.0017502 0.0058916 -0.0001302 -0.0045406
0.0050939 -0.0115049 0.0001096 0.0004056 0.0002248 -0.0004032 0.0001525 0.0002467 0.0001414 0.0000308 0.0000445 -0.0003453 0.0000852 0.0005805 -0.0000722 -0.0012369 0.0082278 0.0004611 -0.0016012 0.0013662
0.0032966 -0.0139223 0.0003113 0.0003135 0.0002476 -0.0003978 0.0002106 0.0002265 0.0001362 0.0000966 0.0000689 -0.0003150 -0.0001235 0.0006691 -0.0001440 -0.0015304 0.0065291 -0.0024261 -0.0029341 0.0061869
-0.0072749 -0.0004469 0.0003889 0.0004394 0.0002644 -0.0003484 0.0002794 0.0002776 0.0001259 0.0002061 0.0000997 -0.0002412 -0.0000427 0.0007830 -0.0005040 -0.0012128 -0.0032738 0.0124102 0.0007143 0.0109555
-0.0122384 0.0064653 0.0001953 0.0006932 0.0002568 -0.0002669 0.0003320 0.0002945 0.0001087 0.0003333 0.0001033 -0.0001601 0.0003049 0.0006467 -0.0007674 -0.0010461 -0.0119916 0.0131245 0.0010595 0.0081285
-0.0012540 -0.0020477 0.0001708 0.0007430 0.0002427 -0.0001891 0.0004569 0.0002304 0.0001204 0.0003524 0.0000874 -0.0001517 0.0005319 0.0004939 -0.0007852 -0.0011911 -0.0008739 -0.0099076 0.0094742 -0.0261352
-0.0002895 0.0042176 0.0002146 0.0007279 0.0002674 -0.0001771 0.0004213 0.0002626 0.0001481 0.0002152 0.0000757 -0.0002508 0.0005797 0.0005822 -0.0004651 -0.0012954 0.0050146 -0.0083762 -0.0100627 0.0116436
0.0009910 0.0095958 0.0002496 0.0007022 0.0003001 -0.0001845 0.0002253 0.0003076 0.0001435 0.0001213 0.0000908 -0.0003479 0.0003545 0.0007426 -0.0001633 -0.0014439 0.0017447 0.0002257 -0.0103827 0.0162930
0.0022644 0.0092900 0.0004078 0.0006594 0.0003187 -0.0001699 0.0000498 0.0005029 0.0001460 0.0001265 0.0001415 -0.0003691 0.0001609 0.0008429 -0.0001742 -0.0015257 -0.0000554 0.0023088 0.0044335 0.0021497
-0.0045028 0.0054688 0.0004651 0.0006685 0.0003433 -0.0001582 0.0000762 0.0005544 0.0001387 0.0001837 0.0001701 -0.0003340 0.0002075 0.0008808 -0.0002465 -0.0014089 0.0030214 -0.0072736 0.0069871 -0.0009049
-0.0108664 0.0097638 0.0004153 0.0007915 0.0003364 -0.0001114 0.0002788 0.0003891 0.0001130 0.0002768 0.0001482 -0.0002402 0.0002405 0.0009731 -0.0004737 -0.0011850 0.0003308 -0.0098207 0.0019181 0.0003644
-0.0071861 0.0112248 0.0003520 0.0009625 0.0003195 -0.0000507 0.0004167 0.0004980 0.0001052 0.0003758 0.0001306 -0.0001231 0.0005144 0.0009952 -0.0005685 -0.0010398 -0.0201008 0.0094685 -0.0020202 0.0012877
-0.0009820 0.0029829 0.0002575 0.0010144 0.0003138 -0.0000132 0.0003710 0.0006313 0.0001073 0.0004787 0.0001065 -0.0000244 0.0008524 0.0008251 -0.0005096 -0.0009665 -0.0092037 0.0095266 -0.0013465 -0.0094267
0.0035758 -0.0033444 0.0003379 0.0009755 0.0003147 0.0000139 0.0003367 0.0005841 0.0001070 0.0004467 0.0000763 -0.0001061 0.0007330 0.0007286 -0.0003380 -0.0011455 0.0020180 -0.0016213 0.0041887 -0.0151477
0.0032245 -0.0029973 0.0005697 0.0008062 0.0003243 -0.0000051 0.0002001 0.0006814 0.0001159 0.0002493 0.0000870 -0.0003339 0.0003071 0.0010098 0.0000049 -0.0013443 0.0058480 -0.0007877 0.0103901 -0.0213404
-0.0028630 -0.0027433 0.0006156 0.0006643 0.0003340 -0.0000430 0.0001472 0.0006047 0.0001110 0.0001253 0.0001151 -0.0004486 0.0001284 0.0010989 0.0000428 -0.0014051 0.0027012 0.0094487 0.0066034 -0.0212651
-0.0083508 0.0031718 0.0005848 0.0006817 0.0003531 -0.0000482 0.0004938 0.0003286 0.0000883 0.0001355 0.0001256 -0.0004312 0.0002914 0.0008533 -0.0001707 -0.0014658 -0.0014829 0.0003345 0.0021924 -0.0162901
-0.0061567 0.0029070 0.0005519 0.0007083 0.0003733 -0.0000462 0.0005971 0.0003872 0.0000900 0.0001803 0.0001261 -0.0003500 0.0005473 0.0006958 -0.0003219 -0.0012690 -0.0052467 -0.0025238 0.0040858 -0.0051604
0.0034914 -0.0136940 0.0004380 0.0007931 0.0003878 -0.0000072 0.0004728 0.0004825 0.0000898 0.0002605 0.0000898 -0.0002264 0.0006788 0.0007051 -0.0004450 -0.0009886 -0.0041812 0.0086021 -0.0031711 0.0128645
0.0031234 -0.0022724 0.0004111 0.0010074 0.0003937 0.0000587 0.0002887 0.0007361 0.0000975 0.0003529 0.0000810 -0.0001151 0.0005608 0.0007389 -0.0002611 -0.0011546 0.0044102 -0.0007638 -0.0091369 0.0185354
0.0004747 0.0003812 0.0005503 0.0010091 0.0004022 0.0000975 0.0001111 0.0009219 0.0001056 0.0004432 0.0001148 -0.0000199 0.0003207 0.0009211 0.0000006 -0.0015024 0.0096562 -0.0132652 -0.0074470 0.0143925
-0.0041883 -0.0031482 0.0006176 0.0009572 0.0004076 0.0001311 0.0000808 0.0008817 0.0000777 0.0005683 0.0001291 0.0000881 0.0001215 0.0012050 -0.0001403 -0.0012889 0.0068140 -0.0073197 -0.0044145 0.0124046
-0.0168514 0.0136117 0.0005784 0.0010856 0.0003939 0.0001632 0.0002028 0.0008767 0.0000666 0.0005391 0.0001253 0.0000528 0.0002142 0.0010846 -0.0005295 -0.0010968 0.0006899 -0.0078101 -0.0000063 0.0047229
-0.0127430 0.0103327 0.0004961 0.0010999 0.0003854 0.0001394 0.0004432 0.0006646 0.0000702 0.0003330 0.0001081 -0.0001476 0.0005409 0.0008139 -0.0007009 -0.0010443 -0.0255625 0.0129834 -0.0004551 0.0008683
0.0000851 0.0066223 0.0004328 0.0010342 0.0004004 0.0000798 0.0004085 0.0005467 0.0000751 0.0002036 0.0000900 -0.0002530 0.0006946 0.0006594 -0.0005739 -0.0011097 -0.0144511 0.0076690 -0.0067286 0.0037294
0.0051933 0.0041029 0.0004802 0.0009724 0.0004140 0.0000677 0.0002843 0.0006237 0.0000814 0.0001890 0.0000978 -0.0002352 0.0006833 0.0006764 -0.0003579 -0.0012588 0.0031317 -0.0055960 0.0066969 -0.0130367
0.0061763 -0.0018370 0.0005110 0.0009640 0.0004061 0.0000945 0.0000991 0.0008081 0.0000889 0.0002292 0.0001112 -0.0001788 0.0004421 0.0009738 -0.0000839 -0.0012961 -0.0003084 0.0081943 0.0082232 -0.0059361
0.0000294 0.0039970 0.0006557 0.0009690 0.0004003 0.0001227 0.0000263 0.0009055 0.0000798 0.0003052 0.0001156 -0.0000979 0.0000806 0.0011166 0.0000072 -0.0014682 -0.0007950 0.0056741 -0.0009821 0.0054299
-0.0105220 0.0056449 0.0007903 0.0009236 0.0004016 0.0001302 0.0002162 0.0007796 0.0000584 0.0004030 0.0001243 -0.0000000 0.0003114 0.0009694 -0.0002978 -0.0012333 0.0043880 -0.0059719 -0.0010111 -0.0029563
-0.0087776 -0.0058788 0.0006401 0.0010622 0.0003860 0.0001524 0.0003138 0.0008165 0.0000389 0.0005180 0.0001291 0.0001159 0.0006648 0.0009485 -0.0005736 -0.0007670 -0.0084749 0.0108275 -0.0051794 0.0069685
0.0002150 -0.0071381 0.0005197 0.0012519 0.0003676 0.0002097 0.0003521 0.0010361 0.0000391 0.0006218 0.0000919 0.0002366 0.0006598 0.0010721 -0.0005386 -0.0009283 -0.0201113 0.0216097 -0.0071953 0.0143536
-0.0014204 0.0047927 0.0004785 0.0012502 0.0003686 0.0002130 0.0003307 0.0010212 0.0000640 0.0005245 0.0000768 0.0001498 0.0005552 0.0009951 -0.0001374 -0.0011382 -0.0006860 0.0121228 -0.0019399 -0.0000960
-0.0006118 -0.0013119 0.0004912 0.0011159 0.0003821 0.0001475 0.0001848 0.0008290 0.0000676 0.0002956 0.0000879 -0.0000738 0.0002907 0.0009598 0.0002260 -0.0012817 0.0080330 0.0038020 -0.0083386 0.0026150
0.0014211 -0.0121341 0.0006876 0.0009322 0.0003990 0.0001025 0.0001310 0.0008289 0.0000707 0.0001947 0.0001040 -0.0001609 -0.0000222 0.0010043 0.0000554 -0.0012515 0.0062792 0.0013741 -0.0041075 -0.0029518
-0.0092393 -0.0021534 0.0007379 0.0009125 0.0004034 0.0001016 0.0001836 0.0008464 0.0000678 0.0002031 0.0001367 -0.0001381 0.0001392 0.0009172 -0.0003871 -0.0006385 -0.0020296 0.0130194 0.0012383 0.0127207
-0.0203010 0.0039974 0.0005457 0.0010552 0.0003938 0.0001042 0.0002292 0.0007658 0.0000478 0.0002528 0.0001385 -0.0000752 0.0004141 0.0007485 -0.0005801 -0.0006970 -0.0095164 0.0118687 -0.0003813 0.0127334
-0.0049164 0.0014655 0.0004270 0.0011723 0.0003845 0.0001359 0.0003110 0.0007055 0.0000536 0.0003202 0.0001135 0.0000051 0.0005186 0.0006313 -0.0005001 -0.0013246 0.0003052 -0.0140231 0.0044428 -0.0115780
0.0026716 0.0005448 0.0002787 0.0012871 0.0003825 0.0002073 0.0002830 0.0008560 0.0000665 0.0004320 0.0000927 0.0001534 0.0006564 0.0007720 -0.0003093 -0.0014052 0.0017535 -0.0012788 -0.0070533 0.0125237
0.0044559 0.0040857 0.0002896 0.0012511 0.0003914 0.0002660 -0.0000228 0.0010619 0.0000742 0.0004086 0.0001084 0.0001648 0.0005454 0.0009064 -0.0001596 -0.0014303 -0.0020087 0.0113730 -0.0000229 -0.0018466
0.0045336 0.0016717 0.0005526 0.0010436 0.0003848 0.0002672 -0.0000449 0.0010577 0.0000791 0.0001986 0.0002002 0.0000135 0.0003843 0.0009961 -0.0002209 -0.0016751 0.0039839 -0.0058478 0.0279991 -0.0601254
0.0003166 -0.0074774 0.0007332 0.0009220 0.0003494 0.0003126 0.0001605 0.0010703 0.0000966 0.0000724 0.0003239 0.0000106 0.0004680 0.0012479 -0.0004264 -0.0022678 0.0039215 -0.0111410 0.0214715 -0.0488802
-0.0054219 0.0031848 0.0007869 0.0009914 0.0003464 0.0004808 0.0003470 0.0011556 0.0001002 0.0000851 0.0004270 0.0001541 0.0005829 0.0015619 -0.0012239 -0.0028838 -0.0131398 0.0092858 0.0026015 -0.0104607
-0.0059649 0.0109905 0.0007397 0.0011486 0.0003325 0.0006332 0.0005012 0.0013367 0.0001036 0.0001268 0.0004979 0.0003571 0.0010059 0.0016765 -0.0018647 -0.0028624 -0.0256561 0.0173704 -0.0036039 0.0064533
-0.0047348 0.0054447 0.0006387 0.0012448 0.0002464 0.0007032 0.0005336 0.0014345 0.0001194 0.0001876 0.0005414 0.0006113 0.0014065 0.0017580 -0.0014259 -0.0028797 -0.0006214 -0.0008529 -0.0028688 0.0000911
0.0036880 -0.0090789 0.0006963 0.0013334 0.0001256 0.0007451 0.0004796 0.0015545 0.0001347 0.0002619 0.0005999 0.0008511 0.0012558 0.0020114 -0.0010438 -0.0028861 0.0054826 -0.0024630 0.0103344 -0.0250612
0.0017318 0.0002451 0.0008131 0.0013635 0.0000131 0.0007887 0.0004058 0.0017792 0.0001373 0.0003518 0.0006713 0.0010221 0.0009852 0.0023914 -0.0009955 -0.0026674 0.0037291 0.0110312 0.0166998 -0.0320168
-0.0131157 0.0144338 0.0008362 0.0012552 -0.0000223 0.0008055 0.0003861 0.0017467 0.0001115 0.0002860 0.0007210 0.0009586 0.0008806 0.0024849 -0.0011260 -0.0024744 0.0024440 0.0131285 0.0024445 -0.0016295
-0.0146958 0.0126635 0.0008142 0.0012105 -0.0000330 0.0007563 0.0005127 0.0015741 0.0001127 0.0000424 0.0007311 0.0007512 0.0010100 0.0021018 -0.0015271 -0.0023346 -0.0004299 0.0002542 -0.0092484 0.0019612
-0.0009677 -0.0030966 0.0007128 0.0011591 -0.0000442 0.0006938 0.0007181 0.0013114 0.0001254 -0.0000922 0.0007317 0.0006410 0.0013048 0.0017662 -0.0015197 -0.0023547 -0.0024663 0.0012343 -0.0047285 0.0092925
0.0073678 -0.0163217 0.0005599 0.0011488 -0.0000837 0.0006469 0.0007123 0.0011953 0.0001322 -0.0001018 0.0007092 0.0006494 0.0013498 0.0018242 -0.0011747 -0.0024726 -0.0050817 0.0129023 -0.0045860 0.0227291
0.0079202 -0.0096697 0.0006076 0.0011574 -0.0001305 0.0006139 0.0005476 0.0014017 0.0001433 -0.0000673 0.0006685 0.0007144 0.0010091 0.0019432 -0.0008990 -0.0027115 0.0019092 0.0054342 -0.0023597 0.0078058
0.0057818 -0.0091528 0.0007380 0.0010981 -0.0001219 0.0006146 0.0004036 0.0014653 0.0001398 -0.0000073 0.0006870 0.0007425 0.0009482 0.0018057 -0.0007569 -0.0027677 0.0091651 -0.0062416 0.0109133 -0.0177692
-0.0008807 -0.0030476 0.0007237 0.0011001 -0.0001209 0.0006305 0.0003500 0.0013865 0.0001182 0.0000884 0.0007018 0.0007901 0.0009165 0.0018789 -0.0007851 -0.0025382 0.0065805 -0.0053635 0.0071983 -0.0092785
-0.0095253 0.0102652 0.0007231 0.0010749 -0.0001184 0.0006416 0.0004852 0.0012680 0.0001162 0.0000440 0.0006870 0.0007311 0.0009331 0.0018010 -0.0012294 -0.0023502 0.0003610 -0.0077697 0.0021909 -0.0080944
-0.0194477 0.0148797 0.0006449 0.0010231 -0.0001116 0.0005982 0.0006163 0.0011082 0.0001300 -0.0001535 0.0006773 0.0005246 0.0011719 0.0016398 -0.0016140 -0.0019150 -0.0124580 0.0106693 0.0050702 -0.0096385
-0.0001090 0.0003595 0.0005060 0.0010454 -0.0001326 0.0005539 0.0005838 0.0009811 0.0001409 -0.0002537 0.0006589 0.0004199 0.0012595 0.0015711 -0.0012829 -0.0022896 -0.0084686 0.0112976 0.0013696 0.0030847
0.0098120 -0.0081823 0.0005127 0.0010018 -0.0001375 0.0005363 0.0005693 0.0008661 0.0001584 -0.0002531 0.0006699 0.0004261 0.0011397 0.0015577 -0.0009460 -0.0026332 0.0037813 -0.0066627 0.0058145 0.0021100
0.0071242 -0.0058399 0.0005810 0.0009469 -0.0001220 0.0005232 0.0004373 0.0009965 0.0001576 -0.0001947 0.0006913 0.0004705 0.0009065 0.0018921 -0.0008615 -0.0020186 0.0056583 0.0016975 0.0047483 -0.0014263
0.0004147 0.0041165 0.0007316 0.0009793 -0.0001481 0.0005338 0.0003516 0.0011892 0.0001434 -0.0001059 0.0007077 0.0005503 0.0007804 0.0020073 -0.0009746 -0.0020037 0.0030945 0.0050804 -0.0072076 0.0137734
-0.0112562 0.0108249 0.0008029 0.0009802 -0.0001829 0.0005123 0.0005131 0.0010845 0.0001487 -0.0001246 0.0007285 0.0005025 0.0011520 0.0017403 -0.0011414 -0.0022955 -0.0013534 -0.0017937 0.0003254 0.0023358
-0.0065225 -0.0023963 0.0006545 0.0009868 -0.0002108 0.0004528 0.0005848 0.0009171 0.0001710 -0.0002789 0.0007303 0.0003242 0.0014631 0.0014884 -0.0012200 -0.0022553 -0.0056430 0.0001624 0.0015844 -0.0037920
0.0032539 -0.0071660 0.0006198 0.0009790 -0.0002298 0.0004033 0.0006038 0.0008764 0.0001849 -0.0003491 0.0007061 0.0002732 0.0013980 0.0014840 -0.0013072 -0.0022858 -0.0043986 0.0039662 -0.0074986 0.0061579
0.0032293 -0.0008884 0.0005626 0.0009911 -0.0002360 0.0004018 0.0005700 0.0009130 0.0002029 -0.0003206 0.0007020 0.0003343 0.0012242 0.0016878 -0.0010606 -0.0020216 0.0025705 0.0127395 0.0020800 -0.0121661
0.0029821 -0.0037337 0.0005996 0.0009612 -0.0002653 0.0003917 0.0003644 0.0009900 0.0002147 -0.0002373 0.0007323 0.0003841 0.0010168 0.0018353 -0.0006265 -0.0022704 0.0058402 0.0094706 0.0049710 -0.0102967
-0.0005655 -0.0051949 0.0008756 0.0009740 -0.0003431 0.0003495 0.0004119 0.0010553 0.0002167 -0.0000701 0.0007577 0.0004596 0.0010033 0.0019476 -0.0007648 -0.0026966 0.0059125 -0.0033818 0.0007534 -0.0011325
-0.0063944 -0.0046936 0.0009449 0.0012537 -0.0004312 0.0003197 0.0005220 0.0012547 0.0002319 0.0001042 0.0007705 0.0005867 0.0011139 0.0023264 -0.0013610 -0.0020824 -0.0068439 0.0123741 0.0039256 0.0081261
-0.0073307 -0.0043177 0.0007725 0.0016831 -0.0005576 0.0003391 0.0005524 0.0014091 0.0002679 0.0001284 0.0007671 0.0005777 0.0013242 0.0023768 -0.0016423 -0.0025274 -0.0194039 0.0230445 0.0077913 -0.0014453
-0.0006817 -0.0036334 0.0008414 0.0019074 -0.0006487 0.0003953 0.0007023 0.0014898 0.0003359 -0.0000175 0.0007571 0.0004250 0.0014439 0.0022006 -0.0017861 -0.0034537 0.0001312 -0.0009934 0.0086389 -0.0238474
0.0021977 -0.0050023 0.0010440 0.0020619 -0.0006866 0.0004959 0.0008098 0.0017020 0.0003829 -0.0000428 0.0007842 0.0003950 0.0013938 0.0025811 -0.0017298 -0.0035088 0.0099149 -0.0097313 -0.0176234 0.0151493
0.0043699 -0.0032061 0.0012912 0.0024820 -0.0008160 0.0006360 0.0007174 0.0022545 0.0004231 0.0001119 0.0008236 0.0004802 0.0013226 0.0030711 -0.0015555 -0.0038066 0.0086221 -0.0063659 -0.0124225 0.0163059
0.0028848 0.0020239 0.0017583 0.0033677 -0.0011449 0.0008519 0.0009413 0.0032778 0.0004844 0.0003057 0.0008697 0.0006254 0.0013153 0.0035473 -0.0018147 -0.0039298 0.0045710 -0.0132464 0.0016335 0.0078032
-0.0066721 -0.0021202 0.0022468 0.0043188 -0.0014852 0.0011400 0.0014485 0.0040832 0.0005073 0.0004463 0.0008953 0.0007879 0.0015940 0.0038347 -0.0021515 -0.0037904 -0.0044128 -0.0093225 0.0083449 -0.0064422
-0.0050408 -0.0075451 0.0024521 0.0049722 -0.0015625 0.0013934 0.0017378 0.0043812 0.0004852 0.0005628 0.0008705 0.0009433 0.0018194 0.0040009 -0.0026620 -0.0035335 -0.0087221 0.0015378 0.0200182 -0.0479182
0.0018543 -0.0052730 0.0024788 0.0056001 -0.0015411 0.0015507 0.0018874 0.0046649 0.0004794 0.0007246 0.0008282 0.0010891 0.0019691 0.0042506 -0.0029253 -0.0036487 -0.0080015 0.0068779 0.0222410 -0.0555203
0.0008418 -0.0093752 0.0025630 0.0060829 -0.0015091 0.0016032 0.0018739 0.0049487 0.0004766 0.0008582 0.0007868 0.0011866 0.0021181 0.0043530 -0.0023621 -0.0043321 0.0005986 0.0006769 -0.0013016 -0.0014210
0.0001193 -0.0044066 0.0027801 0.0061853 -0.0014397 0.0016071 0.0017583 0.0050163 0.0004579 0.0007676 0.0007764 0.0011351 0.0019344 0.0044090 -0.0019424 -0.0046320 0.0041590 -0.0019462 -0.0054262 0.0112732
0.0043915 -0.0098372 0.0029455 0.0060450 -0.0013706 0.0015607 0.0017672 0.0048725 0.0004382 0.0005897 0.0007968 0.0009778 0.0018618 0.0043619 -0.0019742 -0.0045127 0.0036537 0.0059941 0.0021038 0.0019430
0.0116702 -0.0374019 0.0028459 0.0059125 -0.0012931 0.0015272 0.0018688 0.0047111 0.0004127 0.0005628 0.0008031 0.0009393 0.0018249 0.0044480 -0.0024309 -0.0039575 -0.0017842 0.0134630 -0.0060056 0.0128164
-0.0033362 -0.0067687 0.0027350 0.0058666 -0.0012578 0.0015417 0.0020388 0.0046830 0.0003946 0.0006111 0.0007741 0.0010034 0.0018927 0.0044041 -0.0028261 -0.0037911 -0.0166228 0.0144208 -0.0097176 0.0088758
-0.0060112 0.0019930 0.0026296 0.0058776 -0.0012671 0.0015610 0.0021607 0.0046511 0.0003839 0.0007127 0.0007399 0.0010950 0.0021227 0.0042074 -0.0023260 -0.0043058 -0.0015403 -0.0048479 0.0004834 -0.0117736
0.0032878 -0.0172794 0.0025021 0.0059050 -0.0012476 0.0015594 0.0020593 0.0047188 0.0003711 0.0008576 0.0006974 0.0012023 0.0021231 0.0042559 -0.0019264 -0.0040754 0.0053902 0.0009670 -0.0065590 0.0089735
0.0055753 -0.0139307 0.0025206 0.0058461 -0.0011710 0.0016006 0.0018979 0.0048281 0.0003533 0.0009748 0.0006827 0.0012277 0.0018138 0.0043786 -0.0019077 -0.0037232 0.0027619 0.0040197 -0.0093746 0.0154614
0.0062187 -0.0165256 0.0025300 0.0057429 -0.0010751 0.0016046 0.0018155 0.0046862 0.0003468 0.0008819 0.0006949 0.0010545 0.0015512 0.0044650 -0.0020483 -0.0036337 0.0033837 -0.0003264 -0.0008042 0.0123953
-0.0057205 -0.0077491 0.0025103 0.0056368 -0.0010477 0.0015172 0.0018846 0.0043978 0.0003391 0.0007208 0.0006835 0.0008808 0.0016260 0.0043273 -0.0023454 -0.0038873 0.0002872 0.0025893 -0.0019136 0.0135120
-0.0110372 0.0018680 0.0025493 0.0055973 -0.0009719 0.0015431 0.0021124 0.0041720 0.0003307 0.0007150 0.0006442 0.0008281 0.0018404 0.0040139 -0.0027352 -0.0042649 0.0009226 -0.0063381 -0.0056732 0.0062177
-0.0047370 -0.0037266 0.0024607 0.0056666 -0.0007758 0.0017053 0.0021628 0.0041794 0.0003332 0.0007546 0.0005645 0.0008208 0.0019808 0.0038609 -0.0026377 -0.0036171 -0.0009406 -0.0019392 -0.0048354 0.0073136
0.0006761 0.0033951 0.0023283 0.0054909 -0.0005701 0.0019533 0.0019204 0.0041779 0.0003185 0.0007685 0.0004323 0.0006841 0.0018517 0.0036907 -0.0019313 -0.0029827 0.0004758 0.0000897 -0.0000932 -0.0073772
0.0043992 0.0018117 0.0023516 0.0052529 -0.0006142 0.0020386 0.0017875 0.0042105 0.0003230 0.0008032 0.0003743 0.0005462 0.0016781 0.0036699 -0.0014410 -0.0032446 0.0069215 -0.0087844 0.0121195 -0.0174051
0.0044659 -0.0083887 0.0025363 0.0055226 -0.0008067 0.0019134 0.0017924 0.0045189 0.0003692 0.0008109 0.0004501 0.0005925 0.0016626 0.0041555 -0.0013899 -0.0031587 0.0021356 0.0044711 0.0013533 0.0124024
-0.0078058 0.0033732 0.0027939 0.0061249 -0.0008787 0.0018530 0.0018827 0.0047764 0.0004140 0.0007566 0.0005508 0.0007026 0.0016481 0.0045247 -0.0014500 -0.0024894 -0.0014051 0.0052417 -0.0104441 0.0190534
-0.0216004 0.0139875 0.0028804 0.0064793 -0.0008856 0.0018775 0.0020538 0.0047924 0.0004426 0.0007354 0.0005994 0.0008639 0.0019586 0.0044610 -0.0016579 -0.0018064 -0.0085510 0.0042533 -0.0080924 0.0074328
-0.0033716 -0.0139297 0.0027431 0.0065046 -0.0008315 0.0019606 0.0021327 0.0046808 0.0004561 0.0007848 0.0005804 0.0009667 0.0022242 0.0042288 -0.0016392 -0.0018679 -0.0115866 0.0089802 0.0048853 -0.0117740
0.0098418 -0.0213615 0.0027367 0.0064213 -0.0008054 0.0020037 0.0020677 0.0047390 0.0004555 0.0008924 0.0005255 0.0009888 0.0019517 0.0040274 -0.0014501 -0.0023243 -0.0022488 -0.0006799 0.0107666 -0.0191827
0.0067675 -0.0072826 0.0027072 0.0061161 -0.0007494 0.0021690 0.0018948 0.0046470 0.0004349 0.0009434 0.0004517 0.0008528 0.0015645 0.0036826 -0.0012485 -0.0019974 0.0023083 0.0110760 0.0035653 -0.0080431
0.0006668 -0.0083860 0.0024596 0.0056352 -0.0006703 0.0023148 0.0017135 0.0040494 0.0003877 0.0007186 0.0003904 0.0005439 0.0012271 0.0031780 -0.0008558 -0.0019869 0.0041954 0.0111779 0.0071753 -0.0229883
-0.0107556 -0.0043638 0.0023117 0.0052347 -0.0006559 0.0022592 0.0017315 0.0035549 0.0003442 0.0004516 0.0003453 0.0003528 0.0010845 0.0028655 -0.0009534 -0.0022043 0.0036027 0.0015799 0.0062999 -0.0199912
-0.0173115 0.0061129 0.0022393 0.0049333 -0.0006421 0.0022186 0.0017606 0.0033422 0.0003290 0.0004282 0.0003408 0.0003627 0.0013364 0.0027685 -0.0013213 -0.0017732 -0.0070936 0.0080580 0.0048375 0.0050527
-0.0011321 -0.0084256 0.0020184 0.0047179 -0.0006632 0.0021564 0.0016710 0.0031801 0.0003134 0.0004725 0.0003183 0.0004427 0.0015818 0.0027568 -0.0014024 -0.0017092 -0.0193466 0.0178246 0.0011566 0.0117111
0.0036505 -0.0099965 0.0018471 0.0046314 -0.0006936 0.0021161 0.0015244 0.0033010 0.0002974 0.0005236 0.0002800 0.0005468 0.0014508 0.0028871 -0.0012119 -0.0022585 -0.0012164 0.0051095 -0.0007505 0.0016126
0.0024639 -0.0083530 0.0018254 0.0045842 -0.0006805 0.0021009 0.0013858 0.0033667 0.0003010 0.0004768 0.0002896 0.0005441 0.0013001 0.0029871 -0.0008269 -0.0025741 0.0119914 -0.0158747 0.0002654 0.0011869
0.0043380 -0.0069405 0.0018939 0.0044598 -0.0006569 0.0020345 0.0012975 0.0032303 0.0002910 0.0003020 0.0003054 0.0004282 0.0011512 0.0031186 -0.0008081 -0.0021788 0.0105633 -0.0162552 -0.0004540 -0.0065166
-0.0034798 0.0037340 0.0019693 0.0044011 -0.0006474 0.0019565 0.0013227 0.0032288 0.0002687 0.0002319 0.0003376 0.0004002 0.0011035 0.0031899 -0.0013205 -0.0018702 0.0008261 -0.0048970 0.0044592 -0.0111849
-0.0205902 0.0107526 0.0019455 0.0043607 -0.0006704 0.0019027 0.0014281 0.0032594 0.0002615 0.0002895 0.0003532 0.0004935 0.0013820 0.0030975 -0.0014577 -0.0017384 -0.0121812 0.0032389 0.0081864 -0.0067327
-0.0015118 0.0009163 0.0018977 0.0043568 -0.0007078 0.0018797 0.0014917 0.0032475 0.0002527 0.0003853 0.0003363 0.0006226 0.0015456 0.0030921 -0.0013559 -0.0014547 -0.0102387 -0.0032061 0.0115550 -0.0240805
0.0037912 0.0022490 0.0018468 0.0044976 -0.0007852 0.0018560 0.0014714 0.0034508 0.0002556 0.0005250 0.0003223 0.0007737 0.0015115 0.0032558 -0.0012253 -0.0015147 -0.0008343 -0.0071335 0.0061944 -0.0142879
0.0025388 -0.0033607 0.0018281 0.0046969 -0.0009245 0.0017861 0.0013750 0.0038339 0.0002795 0.0006935 0.0003078 0.0009279 0.0012933 0.0036658 -0.0008546 -0.0017139 0.0016770 0.0032047 -0.0032763 0.0068963
-0.0005450 -0.0048351 0.0021143 0.0050453 -0.0011201 0.0016602 0.0013893 0.0043097 0.0003006 0.0008922 0.0003115 0.0009722 0.0011038 0.0038427 -0.0005474 -0.0023971 0.0040109 0.0016746 -0.0096815 0.0138355
-0.0127101 0.0088917 0.0024465 0.0053721 -0.0012420 0.0015153 0.0016003 0.0044863 0.0003159 0.0009314 0.0003151 0.0008337 0.0013816 0.0035767 -0.0009955 -0.0027827 0.0062145 -0.0069485 0.0033080 -0.0092100
-0.0000674 -0.0138286 0.0024857 0.0056352 -0.0012111 0.0014086 0.0017765 0.0043795 0.0003271 0.0009080 0.0002888 0.0007131 0.0015634 0.0034892 -0.0017329 -0.0023808 -0.0039715 0.0087030 0.0064030 -0.0057389
0.0025209 -0.0117899 0.0024315 0.0058901 -0.0011965 0.0013745 0.0018380 0.0044895 0.0003515 0.0009889 0.0002406 0.0007811 0.0015499 0.0035973 -0.0017832 -0.0022231 -0.0153573 0.0188688 -0.0055953 0.0167955
-0.0013484 0.0013186 0.0024113 0.0059905 -0.0012315 0.0013793 0.0018241 0.0045840 0.0003650 0.0011027 0.0002225 0.0008948 0.0015116 0.0037117 -0.0012982 -0.0020375 0.0017951 0.0038440 -0.0061187 0.0061331
0.0073557 -0.0157455 0.0023942 0.0060924 -0.0012693 0.0013784 0.0016577 0.0046419 0.0003575 0.0012512 0.0002263 0.0009939 0.0013873 0.0037438 -0.0009233 -0.0021793 0.0081564 -0.0008156 0.0031167 -0.0182693
0.0098425 -0.0196953 0.0024481 0.0061578 -0.0012777 0.0013852 0.0015611 0.0047608 0.0003511 0.0013822 0.0002470 0.0010398 0.0011609 0.0037715 -0.0010908 -0.0022643 0.0045736 0.0015440 -0.0006225 -0.0172117
0.0007649 -0.0094564 0.0025046 0.0060460 -0.0012722 0.0013720 0.0015786 0.0047004 0.0003257 0.0013236 0.0002585 0.0009618 0.0011346 0.0038341 -0.0015400 -0.0018304 -0.0066665 0.0163316 -0.0020644 0.0145795
-0.0121044 0.0014474 0.0023295 0.0059517 -0.0013278 0.0013403 0.0016003 0.0044980 0.0003062 0.0012346 0.0002352 0.0008514 0.0012671 0.0036340 -0.0017967 -0.0020941 -0.0240529 0.0238839 -0.0003580 0.0134863
-0.0020909 -0.0030335 0.0021185 0.0057737 -0.0013532 0.0014440 0.0015265 0.0043980 0.0003156 0.0012762 0.0002016 0.0008189 0.0013910 0.0034298 -0.0018299 -0.0028577 -0.0072726 -0.0014906 0.0076468 -0.0208639
0.0075842 -0.0143350 0.0020564 0.0055286 -0.0013406 0.0015563 0.0013914 0.0045282 0.0003145 0.0013450 0.0001686 0.0008842 0.0014422 0.0035714 -0.0016857 -0.0029884 0.0031174 -0.0014589 -0.0104708 0.0142834
0.0088390 -0.0088643 0.0021000 0.0054765 -0.0013703 0.0015517 0.0011990 0.0047772 0.0002957 0.0014588 0.0001578 0.0009802 0.0012651 0.0037290 -0.0014493 -0.0028806 0.0015566 0.0075823 -0.0141029 0.0177431
0.0016862 0.0035453 0.0021688 0.0054932 -0.0013724 0.0015589 0.0011131 0.0049731 0.0002786 0.0015589 0.0001694 0.0010618 0.0010854 0.0038760 -0.0013939 -0.0031853 -0.0007089 0.0066921 0.0044170 -0.0052807
-0.0101295 -0.0004911 0.0021886 0.0054988 -0.0013782 0.0015585 0.0011857 0.0050421 0.0002674 0.0016522 0.0001797 0.0010978 0.0010691 0.0039787 -0.0015773 -0.0033608 -0.0049874 0.0065136 0.0007784 0.0055346
-0.0065859 -0.0065875 0.0021238 0.0055202 -0.0014225 0.0015076 0.0013342 0.0048718 0.0002479 0.0015734 0.0001629 0.0009901 0.0011750 0.0038067 -0.0021121 -0.0030304 -0.0141768 0.0084499 -0.0070538 0.0133765
-0.0036244 0.0000741 0.0020132 0.0055033 -0.0014369 0.0014391 0.0014144 0.0047691 0.0002473 0.0014006 0.0001300 0.0008548 0.0013703 0.0036846 -0.0022803 -0.0030679 -0.0172549 0.0125789 -0.0073409 0.0094179
0.0027987 -0.0110652 0.0019681 0.0054346 -0.0014211 0.0013977 0.0013519 0.0047099 0.0002575 0.0013662 0.0001111 0.0008392 0.0013953 0.0036866 -0.0018219 -0.0033939 -0.0007325 0.0024199 -0.0102573 0.0082800
0.0063471 -0.0082252 0.0020893 0.0053185 -0.0014140 0.0013814 0.0012369 0.0047260 0.0002580 0.0014171 0.0001158 0.0008920 0.0011777 0.0037492 -0.0015914 -0.0032812 0.0055734 -0.0063640 0.0009234 0.0001191
0.0002301 0.0016364 0.0022111 0.0052532 -0.0014400 0.0013744 0.0011973 0.0048458 0.0002554 0.0015213 0.0001478 0.0009576 0.0010813 0.0038030 -0.0015570 -0.0032493 0.0048787 0.0003133 0.0019558 -0.0022652
-0.0071533 -0.0007797 0.0021718 0.0053046 -0.0014548 0.0013917 0.0011901 0.0049288 0.0002269 0.0016459 0.0001530 0.0010482 0.0011656 0.0037166 -0.0017520 -0.0030314 0.0002394 0.0101129 -0.0081258 0.0097569
-0.0067137 0.0011445 0.0020696 0.0054029 -0.0014517 0.0014362 0.0013525 0.0049467 0.0001994 0.0017573 0.0001205 0.0011796 0.0012520 0.0036750 -0.0019226 -0.0025729 -0.0121754 0.0124283 -0.0093431 0.0069549
0.0013091 -0.0054588 0.0019815 0.0054460 -0.0014999 0.0014244 0.0015159 0.0047814 0.0002155 0.0017512 0.0000998 0.0011633 0.0013331 0.0035832 -0.0014245 -0.0026401 -0.0074287 0.0062910 0.0000015 -0.0007839
0.0081190 -0.0171502 0.0019509 0.0055020 -0.0015243 0.0013243 0.0013866 0.0047269 0.0002562 0.0016457 0.0000451 0.0009294 0.0013445 0.0032839 -0.0013505 -0.0027713 0.0010334 0.0065421 -0.0029529 0.0085336
0.0016304 -0.0026314 0.0020772 0.0054764 -0.0012550 0.0013722 0.0013060 0.0046884 0.0002741 0.0016110 -0.0002366 0.0001855 0.0008807 0.0025870 -0.0015418 -0.0037168 0.0049864 -0.0019862 -0.0024956 0.0002492
-0.0048393 0.0021227 0.0022652 0.0054441 -0.0009188 0.0015554 0.0013455 0.0045063 0.0002894 0.0016696 -0.0006037 -0.0007097 0.0004373 0.0020352 -0.0013857 -0.0043534 0.0068875 -0.0107532 0.0033376 0.0019520
-0.0115027 -0.0015542 0.0022992 0.0057190 -0.0007998 0.0017077 0.0014648 0.0043042 0.0003101 0.0017897 -0.0007356 -0.0010185 0.0003754 0.0019182 -0.0015183 -0.0039093 0.0008936 -0.0107597 0.0062998 -0.0013252
-0.0120494 -0.0024906 0.0022865 0.0059533 -0.0008175 0.0017653 0.0016085 0.0042116 0.0003120 0.0019410 -0.0007569 -0.0009533 0.0005139 0.0017410 -0.0020544 -0.0035739 -0.0009190 -0.0179557 0.0098364 -0.0156017
-0.0084424 -0.0004490 0.0022555 0.0060102 -0.0008534 0.0017830 0.0016594 0.0043029 0.0002944 0.0020784 -0.0007914 -0.0007760 0.0006719 0.0019118 -0.0022758 -0.0029002 -0.0022882 -0.0034424 -0.0074496 0.0131362
0.0023267 0.0033710 0.0022046 0.0060319 -0.0007774 0.0018771 0.0015019 0.0044042 0.0002772 0.0020533 -0.0007916 -0.0006874 0.0007348 0.0019369 -0.0014485 -0.0033287 -0.0013849 0.0005983 -0.0129417 0.0150115
0.0059625 -0.0008024 0.0022169 0.0059631 -0.0007008 0.0018852 0.0013715 0.0043510 0.0002752 0.0018837 -0.0007525 -0.0007720 0.0006100 0.0019081 -0.0008388 -0.0038746 0.0062811 -0.0185026 0.0053387 -0.0074755
0.0034258 -0.0084958 0.0022998 0.0058102 -0.0006935 0.0018089 0.0013704 0.0042568 0.0002726 0.0017916 -0.0007299 -0.0008302 0.0004523 0.0020717 -0.0011321 -0.0029355 -0.0015883 -0.0039422 0.0063359 -0.0045505
-0.0025785 0.0042507 0.0023351 0.0057616 -0.0007224 0.0017566 0.0014041 0.0042006 0.0002546 0.0017901 -0.0007168 -0.0007904 0.0004311 0.0021020 -0.0014129 -0.0024158 -0.0134822 0.0064164 -0.0022474 0.0019177
-0.0108976 0.0104780 0.0022700 0.0058117 -0.0007402 0.0017694 0.0014829 0.0041635 0.0002376 0.0018476 -0.0007347 -0.0007272 0.0006728 0.0020784 -0.0015511 -0.0026055 -0.0209552 0.0045061 -0.0004712 -0.0034261
0.0002676 -0.0150693 0.0021823 0.0058358 -0.0007264 0.0018094 0.0014933 0.0041955 0.0002237 0.0019286 -0.0007667 -0.0006382 0.0008977 0.0019796 -0.0015211 -0.0024465 -0.0035139 -0.0157249 0.0075478 -0.0212663
0.0110643 -0.0263858 0.0021758 0.0058189 -0.0007290 0.0018302 0.0014774 0.0041456 0.0002271 0.0019068 -0.0007908 -0.0006321 0.0007846 0.0019843 -0.0012624 -0.0023172 0.0059659 -0.0211628 0.0071886 -0.0151115
0.0048301 -0.0056811 0.0021935 0.0057125 -0.0007331 0.0017857 0.0014351 0.0040574 0.0002304 0.0017533 -0.0007827 -0.0007258 0.0005427 0.0020942 -0.0009562 -0.0020511 0.0034254 0.0059956 0.0011627 -0.0073594
-0.0038053 0.0009386 0.0021848 0.0055795 -0.0007253 0.0017076 0.0013052 0.0040596 0.0002188 0.0016494 -0.0007551 -0.0007782 0.0003162 0.0021406 -0.0007126 -0.0023706 0.0042630 0.0057894 0.0044904 -0.0242559
-0.0083954 -0.0068275 0.0021862 0.0055162 -0.0007389 0.0016753 0.0013717 0.0040386 0.0002223 0.0016524 -0.0007302 -0.0007603 0.0002559 0.0021283 -0.0007945 -0.0024502 -0.0002299 -0.0004422 0.0002241 -0.0065657
-0.0005945 -0.0182408 0.0021046 0.0055479 -0.0008319 0.0016351 0.0014619 0.0040230 0.0002120 0.0016948 -0.0007258 -0.0006809 0.0004685 0.0021468 -0.0012450 -0.0018836 -0.0177013 0.0150482 0.0011560 0.0123742
0.0007444 -0.0075774 0.0019847 0.0057030 -0.0008171 0.0016643 0.0014835 0.0040361 0.0002040 0.0018184 -0.0007508 -0.0006549 0.0006597 0.0020999 -0.0016183 -0.0019664 -0.0232851 0.0168993 0.0001964 0.0122902
0.0031162 -0.0044683 0.0019160 0.0056862 -0.0006397 0.0018030 0.0014581 0.0040765 0.0001985 0.0018926 -0.0007724 -0.0006225 0.0005650 0.0020837 -0.0012013 -0.0026662 0.0032304 -0.0093330 -0.0095047 0.0093689
0.0027616 -0.0105621 0.0019451 0.0054125 -0.0005261 0.0018355 0.0013645 0.0039544 0.0001851 0.0017176 -0.0007429 -0.0006659 0.0004326 0.0021992 -0.0005355 -0.0033024 0.0131892 -0.0206531 -0.0073238 0.0074721
0.0044572 -0.0126524 0.0019957 0.0052653 -0.0004984 0.0017383 0.0013087 0.0037783 0.0001801 0.0014825 -0.0006761 -0.0007600 0.0002839 0.0025482 -0.0004750 -0.0024428 0.0082016 -0.0109545 -0.0066844 0.0089225
-0.0031539 0.0007299 0.0019829 0.0052198 -0.0004359 0.0017358 0.0013627 0.0037019 0.0001577 0.0013595 -0.0005926 -0.0006650 0.0003490 0.0027269 -0.0008993 -0.0013879 0.0004304 -0.0080806 0.0033791 -0.0051519
-0.0187331 0.0164389 0.0018438 0.0049702 -0.0002477 0.0019081 0.0014651 0.0035717 0.0001278 0.0012926 -0.0005533 -0.0005763 0.0007358 0.0024747 -0.0012857 -0.0010481 -0.0117102 -0.0024188 0.0069335 -0.0081965
-0.0059095 0.0069274 0.0016803 0.0047605 -0.0000737 0.0020789 0.0014939 0.0035322 0.0001152 0.0013290 -0.0005932 -0.0005192 0.0009342 0.0023138 -0.0012392 -0.0010581 -0.0027829 -0.0095933 0.0033591 -0.0100504
0.0053789 -0.0059639 0.0016050 0.0046525 -0.0000010 0.0021799 0.0015200 0.0035852 0.0001086 0.0013690 -0.0005912 -0.0004284 0.0008843 0.0023872 -0.0007888 -0.0014543 0.0089538 -0.0222770 0.0047627 -0.0024738
0.0102996 -0.0148227 0.0015415 0.0045725 -0.0000542 0.0021932 0.0014563 0.0037002 0.0001159 0.0014046 -0.0005844 -0.0003758 0.0006229 0.0025537 -0.0003923 -0.0014543 0.0059831 -0.0044624 -0.0002816 0.0124891
0.0081535 -0.0131183 0.0016474 0.0045226 -0.0000914 0.0021178 0.0014274 0.0036677 0.0001247 0.0012870 -0.0005812 -0.0005288 0.0002992 0.0025113 -0.0003287 -0.0016659 0.0037251 -0.0036024 -0.0046914 0.0178560
0.0046431 -0.0148731 0.0017101 0.0041880 0.0001411 0.0021995 0.0015421 0.0034040 0.0001055 0.0010047 -0.0005380 -0.0007458 0.0005187 0.0022592 -0.0006141 -0.0020694 0.0044018 -0.0100232 0.0031214 0.0011003
0.0038423 -0.0231520 0.0015789 0.0039691 0.0003485 0.0022981 0.0016318 0.0032811 0.0000884 0.0009158 -0.0005382 -0.0008226 0.0007216 0.0021285 -0.0013177 -0.0018031 -0.0042640 0.0007989 0.0025430 -0.0071852
-0.0029597 0.0003071 0.0014911 0.0040389 0.0003386 0.0022599 0.0016993 0.0034120 0.0000919 0.0009549 -0.0005848 -0.0008204 0.0006892 0.0020483 -0.0017827 -0.0017341 -0.0106702 -0.0050179 -0.0043732 0.0029153
0.0006127 0.0020783 0.0014865 0.0042527 0.0002143 0.0021709 0.0017165 0.0037245 0.0001226 0.0010071 -0.0005555 -0.0006411 0.0007596 0.0022326 -0.0011612 -0.0019840 0.0025150 -0.0028573 0.0014370 -0.0073627
0.0080188 -0.0151783 0.0016215 0.0046482 0.0000263 0.0020389 0.0015856 0.0040532 0.0001564 0.0011454 -0.0004846 -0.0003144 0.0007475 0.0027981 -0.0003882 -0.0016691 0.0061824 0.0009391 -0.0006630 -0.0042076
0.0063224 -0.0170512 0.0018790 0.0049830 -0.0000954 0.0019860 0.0015166 0.0041120 0.0001747 0.0012012 -0.0004200 -0.0001661 0.0005929 0.0033039 0.0001866 -0.0003688 0.0049486 -0.0018308 0.0047917 -0.0078345
-0.0029385 -0.0074696 0.0020268 0.0052702 -0.0002725 0.0018624 0.0014543 0.0040459 0.0001892 0.0010717 -0.0003871 -0.0002516 0.0006136 0.0035925 0.0004798 0.0012926 -0.0037694 0.0098112 0.0070266 0.0062881
-0.0088306 0.0003441 0.0020223 0.0054959 -0.0004298 0.0017346 0.0014691 0.0038686 0.0001921 0.0009580 -0.0004162 -0.0003619 0.0009401 0.0034657 0.0002865 0.0016272 -0.0135799 0.0070081 0.0027043 0.0113500
-0.0008406 -0.0130850 0.0020131 0.0055674 -0.0003448 0.0017932 0.0016109 0.0036608 0.0001992 0.0009454 -0.0004492 -0.0004004 0.0011594 0.0031616 0.0001313 0.0011854 0.0075280 -0.0305427 -0.0043333 0.0094278
0.0051965 -0.0157632 0.0019231 0.0056073 -0.0002103 0.0018925 0.0015983 0.0036637 0.0002059 0.0009842 -0.0004594 -0.0003467 0.0011620 0.0032432 0.0003199 0.0010756 0.0069081 -0.0132753 -0.0190190 0.0235242
0.0069713 -0.0027026 0.0019050 0.0056575 -0.0001655 0.0019169 0.0013534 0.0038538 0.0002097 0.0010687 -0.0004572 -0.0002371 0.0009788 0.0034792 0.0006139 0.0007128 0.0015221 -0.0050267 -0.0078900 0.0073915
0.0061579 -0.0027716 0.0020714 0.0057872 -0.0001691 0.0019166 0.0012732 0.0039880 0.0002247 0.0012206 -0.0004521 -0.0001886 0.0007476 0.0035877 0.0005395 0.0005092 0.0059938 -0.0144247 0.0087733 -0.0077744
-0.0078921 0.0009379 0.0021319 0.0057303 -0.0001802 0.0019278 0.0013620 0.0039199 0.0002165 0.0012161 -0.0004122 -0.0002551 0.0007593 0.0035095 0.0004536 0.0003904 0.0106471 -0.0267527 0.0092747 -0.0058149
-0.0142904 0.0031920 0.0021155 0.0055244 -0.0001762 0.0019033 0.0014296 0.0037900 0.0002034 0.0010670 -0.0003829 -0.0003917 0.0008793 0.0033663 0.0001055 0.0006295 0.0029518 -0.0182055 0.0057360 -0.0098324
-0.0031324 0.0020112 0.0020218 0.0055412 -0.0001482 0.0018991 0.0015035 0.0037455 0.0002157 0.0010189 -0.0004005 -0.0004445 0.0011386 0.0032264 -0.0001579 0.0010903 -0.0095372 0.0012061 -0.0031994 0.0012680
0.0055956 -0.0089242 0.0018665 0.0055524 -0.0001075 0.0019112 0.0014938 0.0036578 0.0002145 0.0010300 -0.0004350 -0.0003850 0.0013820 0.0029854 0.0002781 0.0009777 -0.0048300 0.0007275 -0.0024144 -0.0021445
0.0111828 -0.0207905 0.0019372 0.0054204 -0.0000638 0.0019387 0.0014120 0.0036584 0.0002136 0.0010769 -0.0004401 -0.0003312 0.0011491 0.0031158 0.0005819 0.0006725 0.0068651 -0.0162821 0.0069159 -0.0195306
0.0051640 -0.0068195 0.0019921 0.0053780 -0.0000295 0.0019742 0.0013210 0.0037801 0.0002178 0.0011628 -0.0004008 -0.0002904 0.0008380 0.0034098 0.0005491 0.0008783 0.0102048 -0.0086449 0.0101246 -0.0226453
0.0025302 -0.0079510 0.0020125 0.0053157 -0.0000094 0.0019900 0.0013096 0.0037658 0.0002017 0.0011274 -0.0003779 -0.0003573 0.0007730 0.0033654 0.0003681 0.0012045 0.0058324 0.0023299 0.0101522 -0.0278425
-0.0097742 0.0030975 0.0019964 0.0052239 0.0000048 0.0019740 0.0014845 0.0035931 0.0001944 0.0009800 -0.0003954 -0.0004980 0.0009310 0.0030747 0.0001691 0.0008558 0.0034764 -0.0144572 0.0216565 -0.0601239
-0.0132260 0.0044448 0.0018902 0.0051919 0.0000268 0.0019424 0.0016859 0.0033401 0.0002040 0.0009184 -0.0004084 -0.0005342 0.0011676 0.0028569 0.0003535 0.0006058 0.0064174 -0.0223081 0.0079886 -0.0150043
0.0057657 -0.0235343 0.0018142 0.0051264 0.0000424 0.0019566 0.0016427 0.0033084 0.0002143 0.0009430 -0.0004088 -0.0005042 0.0012442 0.0028399 0.0005233 0.0007807 0.0002781 -0.0016423 -0.0012392 0.0063502
0.0068324 -0.0185269 0.0017755 0.0050648 0.0000588 0.0019838 0.0014902 0.0034548 0.0002185 0.0009898 -0.0004106 -0.0004479 0.0009695 0.0029577 0.0006655 0.0006921 0.0014086 -0.0007382 -0.0025092 0.0072706
0.0093519 -0.0224577 0.0018414 0.0049884 0.0000866 0.0019905 0.0014079 0.0035019 0.0002254 0.0010355 -0.0003809 -0.0003876 0.0007550 0.0031084 0.0008122 0.0005519 0.0106300 -0.0155146 0.0018273 0.0084812
0.0046469 -0.0149961 0.0019013 0.0049235 0.0000916 0.0019881 0.0014016 0.0034081 0.0002383 0.0009825 -0.0003351 -0.0004597 0.0007356 0.0031261 0.0005291 0.0007792 0.0011855 -0.0023072 0.0069377 -0.0060692
-0.0155680 0.0110195 0.0018676 0.0048626 0.0000992 0.0019424 0.0015307 0.0032129 0.0002322 0.0008321 -0.0003270 -0.0006394 0.0008044 0.0029550 -0.0000321 0.0009092 -0.0024782 -0.0056939 0.0088890 -0.0223836
-0.0147118 0.0075761 0.0017831 0.0047880 0.0000929 0.0018934 0.0016638 0.0030352 0.0002257 0.0007276 -0.0003578 -0.0007993 0.0010539 0.0026442 -0.0002286 0.0011278 0.0005693 -0.0114972 -0.0031391 0.0055084
0.0036827 0.0016734 0.0015642 0.0041984 0.0000725 0.0020852 0.0013821 0.0029698 0.0002007 0.0006229 -0.0005083 -0.0009961 0.0009589 0.0021736 0.0001060 0.0007332 0.0031536 -0.0134699 -0.0093668 0.0120892
0.0069097 -0.0027621 0.0013561 0.0035530 -0.0001521 0.0021549 0.0010558 0.0032360 0.0002246 0.0007011 -0.0006200 -0.0011623 0.0007611 0.0020047 0.0003942 -0.0004503 0.0133427 -0.0347672 0.0024530 0.0029451
0.0042313 -0.0059981 0.0013826 0.0034842 -0.0003933 0.0020106 0.0010592 0.0035871 0.0002605 0.0008919 -0.0005505 -0.0010979 0.0006392 0.0024961 0.0001733 -0.0007351 0.0031025 -0.0027621 0.0021872 0.0121341
-0.0046936 0.0102913 0.0011692 0.0025314 0.0000145 0.0024525 0.0011057 0.0034098 0.0001836 0.0009442 -0.0004874 -0.0010039 0.0004311 0.0025130 -0.0006454 -0.0021912 0.0004618 -0.0010896 -0.0032564 0.0100491
-0.0067386 0.0085472 0.0007731 0.0011372 0.0009699 0.0031065 0.0013310 0.0029362 0.0001116 0.0008750 -0.0004605 -0.0011150 0.0006979 0.0020547 -0.0016734 -0.0038168 -0.0024738 -0.0093259 -0.0039625 0.0041068
0.0032650 -0.0059120 0.0004936 0.0003878 0.0014724 0.0032966 0.0015346 0.0025406 0.0000725 0.0005745 -0.0004244 -0.0012345 0.0010362 0.0018283 -0.0020822 -0.0032874 -0.0138662 0.0070770 -0.0052535 0.0105359
0.0046919 -0.0011271 0.0003709 -0.0000119 0.0012994 0.0030299 0.0015921 0.0024816 0.0000603 0.0002952 -0.0003942 -0.0011828 0.0010033 0.0018509 -0.0018441 -0.0031413 -0.0084798 0.0065263 -0.0053536 0.0111390
0.0033265 0.0066019 0.0005355 0.0000844 0.0010817 0.0027697 0.0016477 0.0028065 0.0000703 0.0001729 -0.0003021 -0.0010037 0.0008226 0.0022544 -0.0011197 -0.0035006 0.0007783 0.0112487 -0.0066350 0.0057642
-0.0017473 0.0071431 0.0008736 0.0008069 0.0008304 0.0025250 0.0017577 0.0032142 0.0001663 0.0004177 -0.0002057 -0.0009441 0.0006805 0.0024510 -0.0007730 -0.0042272 0.0038684 0.0089589 -0.0019848 -0.0068185
-0.0125382 0.0083898 0.0011255 0.0015026 0.0006392 0.0022374 0.0019711 0.0032178 0.0002172 0.0005817 -0.0001277 -0.0007721 0.0006725 0.0024809 -0.0008863 -0.0032649 0.0028746 0.0007850 -0.0014608 -0.0032402
-0.0214864 0.0149609 0.0010115 0.0011557 0.0007208 0.0023411 0.0019603 0.0029351 0.0001327 0.0003931 -0.0000710 -0.0004604 0.0008432 0.0027464 -0.0007633 -0.0010545 -0.0112664 0.0134288 0.0034776 0.0062888
-0.0086597 0.0054690 0.0007207 0.0010613 0.0007348 0.0023960 0.0018743 0.0028064 0.0001135 0.0003747 -0.0001111 -0.0004215 0.0011114 0.0027745 -0.0005622 -0.0003134 -0.0201199 0.0200074 0.0004533 0.0178472
0.0046925 -0.0049336 0.0006875 0.0013423 0.0006900 0.0022911 0.0018461 0.0026919 0.0001406 0.0002330 -0.0001563 -0.0005328 0.0011049 0.0026890 -0.0000940 -0.0008895 0.0020208 -0.0017985 -0.0060542 0.0160021
0.0112748 -0.0173020 0.0007820 0.0012318 0.0006684 0.0022459 0.0017126 0.0026177 0.0001578 0.0000421 -0.0001608 -0.0006513 0.0009272 0.0027393 0.0004293 -0.0013672 0.0132939 -0.0194069 -0.0120848 0.0115865
0.0086489 -0.0104856 0.0008359 0.0011277 0.0005536 0.0022167 0.0015111 0.0026273 0.0001577 0.0000060 -0.0001702 -0.0007118 0.0007871 0.0027017 0.0005366 -0.0010887 0.0077935 -0.0075641 -0.0088982 0.0133875
0.0007887 0.0078080 0.0008769 0.0010667 0.0005564 0.0022934 0.0014895 0.0026573 0.0001258 -0.0000089 -0.0002042 -0.0007950 0.0007274 0.0026790 0.0002223 -0.0005741 0.0057780 -0.0128037 0.0020127 0.0024835
-0.0040840 0.0015243 0.0008209 0.0012271 0.0006166 0.0023445 0.0016716 0.0025762 0.0001432 0.0001491 -0.0003403 -0.0010626 0.0008301 0.0026162 0.0000003 0.0002240 0.0065750 -0.0315574 0.0110240 -0.0153518
0.0033027 -0.0104933 0.0008964 0.0017670 0.0003702 0.0021825 0.0017784 0.0024861 0.0001971 0.0003271 -0.0005060 -0.0011797 0.0009947 0.0026937 0.0003354 0.0011723 0.0084726 -0.0273177 0.0052805 -0.0094409
0.0086560 -0.0064718 0.0009227 0.0020785 0.0002347 0.0022100 0.0017713 0.0025291 0.0002347 0.0003842 -0.0005540 -0.0011357 0.0011399 0.0028256 0.0006475 0.0013815 0.0087731 -0.0256058 -0.0015581 0.0047790
0.0109763 -0.0131217 0.0008928 0.0020040 0.0004154 0.0023592 0.0017293 0.0024650 0.0002715 0.0003306 -0.0005738 -0.0012414 0.0011029 0.0028299 0.0009771 0.0012110 0.0025717 -0.0068678 -0.0007879 0.0040594
0.0030999 0.0001322 0.0010777 0.0017050 0.0005973 0.0024617 0.0016015 0.0022706 0.0002362 0.0000551 -0.0005717 -0.0013337 0.0008889 0.0028856 0.0013461 0.0011493 0.0082037 -0.0132248 0.0098247 -0.0206872
-0.0075090 0.0126447 0.0012024 0.0013586 0.0008727 0.0027204 0.0015972 0.0020697 0.0001914 -0.0000777 -0.0005144 -0.0013437 0.0009440 0.0028894 0.0012120 0.0016017 0.0117583 -0.0183078 0.0280321 -0.0617413
-0.0051554 -0.0007242 0.0011012 0.0012588 0.0009816 0.0028449 0.0017092 0.0019849 0.0001922 0.0000327 -0.0004863 -0.0012451 0.0010340 0.0030065 0.0009372 0.0025500 0.0028001 -0.0020048 0.0002082 0.0068212
-0.0043988 0.0026771 0.0009502 0.0013038 0.0009119 0.0028217 0.0018469 0.0019863 0.0001959 0.0001654 -0.0005429 -0.0011091 0.0010425 0.0030209 0.0008646 0.0025608 0.0042287 -0.0173087 -0.0108051 0.0233411
0.0022711 -0.0023815 0.0009064 0.0014149 0.0009376 0.0028554 0.0019434 0.0019295 0.0002083 0.0002520 -0.0005795 -0.0009994 0.0011987 0.0028878 0.0014926 0.0023519 0.0069062 -0.0115490 0.0042577 -0.0087956
0.0089861 -0.0110717 0.0008200 0.0013952 0.0009994 0.0029529 0.0018143 0.0019359 0.0002058 0.0003029 -0.0005686 -0.0008809 0.0012141 0.0029081 0.0020451 0.0027774 -0.0004584 0.0069032 0.0034461 -0.0052463
0.0052626 -0.0003470 0.0009198 0.0012587 0.0010507 0.0029966 0.0016743 0.0018886 0.0002022 0.0001995 -0.0005552 -0.0009233 0.0008631 0.0030287 0.0021060 0.0031771 -0.0015657 0.0021828 -0.0060299 0.0080902
-0.0053133 0.0056226 0.0010754 0.0010429 0.0010823 0.0029750 0.0016065 0.0017733 0.0002021 0.0000089 -0.0005393 -0.0010504 0.0007009 0.0031203 0.0019811 0.0033377 -0.0006421 0.0004726 0.0022689 0.0132316
-0.0281070 0.0195480 0.0009747 0.0009968 0.0010752 0.0029229 0.0016800 0.0016272 0.0002005 -0.0000087 -0.0005134 -0.0011135 0.0008988 0.0029934 0.0016739 0.0033438 0.0043443 -0.0139611 0.0058726 0.0087526
-0.0048716 0.0043561 0.0008938 0.0010156 0.0010682 0.0029169 0.0018709 0.0014647 0.0002131 0.0000274 -0.0005191 -0.0010773 0.0011354 0.0027293 0.0013777 0.0032580 0.0223243 -0.0455566 0.0099766 -0.0181037
0.0011563 -0.0018266 0.0008107 0.0010818 0.0010704 0.0029495 0.0018701 0.0015399 0.0002227 0.0001012 -0.0005641 -0.0009865 0.0013023 0.0027630 0.0014442 0.0034747 0.0088588 -0.0072974 -0.0070391 0.0146389
0.0034619 0.0023527 0.0007397 0.0011731 0.0010670 0.0029581 0.0016701 0.0016714 0.0002139 0.0002048 -0.0005916 -0.0009028 0.0011791 0.0029119 0.0019504 0.0033089 0.0038776 -0.0034891 -0.0107976 0.0211186
0.0049201 0.0048309 0.0008839 0.0010619 0.0010926 0.0029792 0.0015383 0.0017660 0.0002153 0.0001861 -0.0005493 -0.0008989 0.0009619 0.0029867 0.0021433 0.0029514 0.0198059 -0.0463097 0.0019766 0.0080980
-0.0024596 0.0027703 0.0010046 0.0009103 0.0011564 0.0030200 0.0015337 0.0016735 0.0002173 0.0000410 -0.0005029 -0.0009931 0.0009464 0.0029353 0.0019437 0.0032750 0.0105748 -0.0290269 0.0091779 -0.0066416
-0.0066856 0.0009500 0.0009784 0.0008887 0.0011621 0.0030090 0.0016231 0.0014998 0.0002054 -0.0000287 -0.0004818 -0.0010473 0.0009263 0.0029221 0.0017719 0.0033428 -0.0101940 -0.0023505 0.0143918 -0.0341888
-0.0091367 0.0051805 0.0009107 0.0009165 0.0011268 0.0029783 0.0017610 0.0015080 0.0001985 0.0000155 -0.0004914 -0.0010047 0.0011823 0.0029011 0.0015926 0.0034189 -0.0103740 -0.0012977 0.0080597 -0.0171938
-0.0014408 0.0001374 0.0008116 0.0009290 0.0011376 0.0029977 0.0017970 0.0014933 0.0002031 0.0000857 -0.0005309 -0.0008978 0.0014772 0.0026706 0.0017931 0.0033839 0.0058509 -0.0185942 0.0079036 -0.0198234
0.0103722 -0.0137937 0.0008622 0.0008838 0.0011656 0.0030367 0.0017398 0.0014955 0.0002206 0.0001561 -0.0005627 -0.0007804 0.0012645 0.0027965 0.0020781 0.0032506 0.0111187 -0.0254965 0.0098130 -0.0244046
0.0081928 -0.0090539 0.0009303 0.0008739 0.0011746 0.0030666 0.0016637 0.0016251 0.0002163 0.0002558 -0.0005492 -0.0006536 0.0009809 0.0031655 0.0021283 0.0038478 0.0095512 -0.0029532 0.0048654 -0.0076329
-0.0013998 0.0003328 0.0009257 0.0008828 0.0011727 0.0030750 0.0015560 0.0017415 0.0001907 0.0003884 -0.0004976 -0.0005401 0.0008592 0.0032046 0.0021751 0.0041763 0.0091921 -0.0011918 -0.0013630 0.0077777
-0.0171568 0.0121820 0.0009303 0.0008657 0.0011839 0.0030847 0.0016965 0.0016302 0.0001747 0.0003833 -0.0004961 -0.0005569 0.0009468 0.0029208 0.0019502 0.0041277 0.0034835 -0.0104883 -0.0023502 0.0105931
-0.0280133 0.0201141 0.0008535 0.0008520 0.0012120 0.0030707 0.0018845 0.0014367 0.0001695 0.0002339 -0.0005196 -0.0006702 0.0012346 0.0026124 0.0018495 0.0043800 -0.0183196 0.0089656 0.0028979 0.0073346
-0.0028636 -0.0017581 0.0007022 0.0008079 0.0012397 0.0030490 0.0018478 0.0013702 0.0001758 0.0001490 -0.0005424 -0.0007078 0.0013191 0.0026346 0.0019478 0.0044446 -0.0149121 0.0085985 0.0032288 0.0060522
0.0070867 -0.0030278 0.0006774 0.0007693 0.0012573 0.0030540 0.0016897 0.0014733 0.0001914 0.0001701 -0.0005608 -0.0006623 0.0010646 0.0028224 0.0021401 0.0041176 0.0086249 -0.0153175 -0.0023705 0.0051377
0.0033918 0.0021802 0.0007859 0.0006722 0.0012617 0.0030610 0.0015581 0.0014852 0.0001921 0.0002351 -0.0005507 -0.0005849 0.0009199 0.0028545 0.0024544 0.0039541 0.0159805 -0.0308965 -0.0005899 0.0016769
-0.0001605 0.0035331 0.0008480 0.0006563 0.0012645 0.0030546 0.0015170 0.0014315 0.0001745 0.0003301 -0.0005422 -0.0004877 0.0008113 0.0029383 0.0024324 0.0043353 0.0130220 -0.0344067 0.0018382 -0.0022792
-0.0042383 0.0092506 0.0007741 0.0007937 0.0012836 0.0030594 0.0016013 0.0014549 0.0001459 0.0004485 -0.0005367 -0.0003672 0.0008256 0.0030177 0.0020526 0.0047207 0.0145476 -0.0399152 0.0014412 0.0006752
-0.0093276 0.0102034 0.0006631 0.0008453 0.0013010 0.0030728 0.0017635 0.0013766 0.0001275 0.0005607 -0.0005464 -0.0002342 0.0011450 0.0028998 0.0018892 0.0049294 0.0041385 -0.0214406 0.0001407 0.0114271
0.0053330 0.0010942 0.0006085 0.0007792 0.0013077 0.0030394 0.0017278 0.0013274 0.0001317 0.0005367 -0.0005823 -0.0002352 0.0013319 0.0026831 0.0021258 0.0047867 0.0041413 -0.0193705 -0.0010967 0.0075687
0.0105828 -0.0031964 0.0005799 0.0006590 0.0013176 0.0029512 0.0016419 0.0012318 0.0001410 0.0003818 -0.0005817 -0.0003737 0.0012088 0.0026808 0.0024451 0.0045861 0.0127268 -0.0329781 -0.0010824 0.0094612
0.0061398 -0.0036410 0.0005541 0.0005530 0.0013482 0.0028709 0.0015847 0.0011622 0.0001382 0.0003125 -0.0005789 -0.0004411 0.0010037 0.0028395 0.0025982 0.0048008 0.0047188 -0.0083815 -0.0042227 0.0193292
-0.0032943 0.0126957 0.0006748 0.0004463 0.0013684 0.0028346 0.0015100 0.0012104 0.0001242 0.0003292 -0.0005897 -0.0004234 0.0008774 0.0028366 0.0025513 0.0047383 0.0019607 -0.0054365 -0.0011385 0.0098117
-0.0070769 0.0132174 0.0007896 0.0003413 0.0013617 0.0028186 0.0015499 0.0012063 0.0001120 0.0003775 -0.0005744 -0.0003750 0.0011195 0.0026662 0.0023396 0.0047388 0.0031567 -0.0126225 0.0012536 0.0061349
0.0038782 -0.0160676 0.0006930 0.0003772 0.0013505 0.0028276 0.0016162 0.0012054 0.0000950 0.0004644 -0.0005763 -0.0002847 0.0013406 0.0026408 0.0021034 0.0050811 -0.0007848 -0.0048005 0.0001331 0.0090577
0.0021247 -0.0068452 0.0005654 0.0005396 0.0013450 0.0028566 0.0016292 0.0013234 0.0000914 0.0005550 -0.0006389 -0.0001459 0.0012215 0.0027769 0.0020765 0.0049835 -0.0003186 -0.0084715 0.0051564 -0.0009344
0.0003531 0.0038188 0.0005169 0.0006140 0.0013429 0.0028828 0.0016037 0.0014040 0.0001016 0.0006551 -0.0006632 -0.0000179 0.0011596 0.0028642 0.0024368 0.0048510 0.0085763 -0.0061761 0.0000288 0.0026268
0.0080096 -0.0077600 0.0005149 0.0006042 0.0013505 0.0029146 0.0014840 0.0014650 0.0000978 0.0007615 -0.0006402 0.0000651 0.0010101 0.0029609 0.0028448 0.0044634 0.0117348 -0.0088299 -0.0094323 0.0057142
0.0091386 -0.0160813 0.0006236 0.0004892 0.0013737 0.0029186 0.0014861 0.0014349 0.0000856 0.0007058 -0.0006097 -0.0000254 0.0008318 0.0028735 0.0028474 0.0041340 0.0114699 -0.0184829 0.0021912 -0.0123537
-0.0079760 0.0040691 0.0006623 0.0004121 0.0013911 0.0028793 0.0015022 0.0013359 0.0000819 0.0004985 -0.0005849 -0.0002137 0.0008332 0.0028581 0.0023955 0.0047113 -0.0033846 0.0086870 0.0004518 0.0212029
-0.0202206 0.0213368 0.0004983 0.0004403 0.0014028 0.0028421 0.0015243 0.0012213 0.0000780 0.0003814 -0.0005807 -0.0002893 0.0010164 0.0027578 0.0020872 0.0048948 -0.0061123 0.0060970 0.0002518 0.0244888
-0.0103489 0.0150257 0.0004116 0.0004208 0.0014102 0.0028433 0.0016354 0.0010789 0.0000946 0.0003538 -0.0006098 -0.0002571 0.0012156 0.0025065 0.0021124 0.0044655 0.0136726 -0.0237187 0.0077974 -0.0085018
0.0036230 -0.0031840 0.0004213 0.0004099 0.0014085 0.0028538 0.0016222 0.0010806 0.0001058 0.0003750 -0.0006434 -0.0001812 0.0012368 0.0025551 0.0023052 0.0044314 0.0129759 -0.0163737 -0.0050355 0.0060655
0.0054827 0.0030837 0.0004707 0.0003672 0.0014132 0.0028556 0.0014620 0.0011542 0.0000861 0.0004340 -0.0006393 -0.0001158 0.0010504 0.0027189 0.0025577 0.0044969 0.0078622 -0.0142227 -0.0168849 0.0297847
0.0016241 0.0102515 0.0005684 0.0003279 0.0014277 0.0028692 0.0013830 0.0012706 0.0000761 0.0005018 -0.0006063 -0.0000435 0.0007951 0.0029170 0.0025338 0.0044105 0.0090281 -0.0187444 -0.0018461 0.0186017
-0.0071722 0.0068148 0.0006195 0.0003116 0.0014347 0.0028841 0.0014253 0.0012898 0.0000584 0.0005834 -0.0005888 0.0000369 0.0008200 0.0029303 0.0023224 0.0045347 0.0085405 -0.0181253 0.0081032 0.0006543
-0.0055481 0.0044758 0.0006194 0.0003343 0.0014287 0.0028963 0.0015245 0.0011697 0.0000440 0.0006115 -0.0005942 0.0000559 0.0009818 0.0028129 0.0020624 0.0046909 0.0035681 -0.0124490 0.0039209 -0.0072896
0.0005668 0.0045473 0.0004912 0.0003883 0.0014228 0.0028611 0.0015961 0.0010873 0.0000530 0.0004607 -0.0006217 -0.0000433 0.0011494 0.0028248 0.0019917 0.0048519 -0.0091481 -0.0020158 -0.0057169 0.0034199
0.0024001 0.0033410 0.0003710 0.0003058 0.0014274 0.0027687 0.0015389 0.0009610 0.0000712 0.0002606 -0.0006512 -0.0001721 0.0012222 0.0027066 0.0022933 0.0047169 -0.0050154 -0.0036502 -0.0011696 -0.0069335
0.0090162 -0.0049344 0.0005538 0.0001185 0.0014340 0.0027135 0.0014502 0.0008567 0.0000910 0.0001726 -0.0006465 -0.0002299 0.0010968 0.0025658 0.0025457 0.0044620 0.0120486 -0.0293521 0.0071885 -0.0192600
0.0062978 -0.0044061 0.0007047 0.0000159 0.0014402 0.0027055 0.0013814 0.0009316 0.0000928 0.0001651 -0.0006100 -0.0002156 0.0009655 0.0026644 0.0025447 0.0046510 0.0121043 -0.0141885 0.0128034 -0.0264363
-0.0067967 -0.0012323 0.0006758 0.0000072 0.0014466 0.0026924 0.0013766 0.0009604 0.0000741 0.0002181 -0.0005687 -0.0001819 0.0008076 0.0028287 0.0023124 0.0049863 0.0050061 0.0034843 0.0028637 -0.0023847
-0.0139808 0.0092697 0.0005641 0.0001302 0.0014460 0.0027162 0.0015161 0.0009406 0.0000718 0.0002765 -0.0005747 -0.0001226 0.0008563 0.0027035 0.0020802 0.0048278 -0.0000799 -0.0095158 -0.0059063 0.0133338
-0.0023936 -0.0005805 0.0004920 0.0002063 0.0014389 0.0027489 0.0016310 0.0008840 0.0000755 0.0003376 -0.0005866 -0.0000355 0.0011666 0.0024318 0.0022979 0.0043851 -0.0017204 -0.0147893 0.0040084 0.0030775
0.0037922 -0.0037149 0.0004232 0.0002388 0.0014225 0.0027314 0.0015441 0.0009452 0.0000744 0.0004191 -0.0006211 0.0000732 0.0012246 0.0025260 0.0024193 0.0045780 0.0009534 -0.0022151 0.0011401 0.0109492
0.0028607 0.0067671 0.0004604 0.0001845 0.0014124 0.0026810 0.0014008 0.0010817 0.0000940 0.0003588 -0.0006256 0.0000206 0.0008358 0.0027347 0.0025005 0.0044643 0.0095032 -0.0150697 -0.0006228 0.0050838
0.0062955 -0.0029782 0.0005529 0.0000091 0.0014007 0.0025670 0.0013362 0.0008973 0.0001165 0.0001551 -0.0005634 -0.0002020 0.0006777 0.0026897 0.0026456 0.0041868 0.0140193 -0.0261690 0.0121067 -0.0192876
-0.0042188 0.0010223 0.0005508 -0.0001128 0.0013862 0.0024413 0.0013281 0.0006826 0.0001149 0.0000456 -0.0005378 -0.0003134 0.0007856 0.0025817 0.0023613 0.0045065 0.0088878 -0.0231550 0.0129048 -0.0199845
-0.0183610 0.0168543 0.0005643 -0.0001333 0.0013818 0.0023945 0.0014266 0.0006080 0.0001199 0.0000299 -0.0005450 -0.0003061 0.0009779 0.0024170 0.0018860 0.0046575 0.0092164 -0.0226685 0.0049181 -0.0056315
-0.0083719 0.0072354 0.0004616 -0.0000422 0.0013667 0.0023783 0.0015378 0.0005887 0.0001312 0.0000484 -0.0005571 -0.0002631 0.0012041 0.0023662 0.0018205 0.0048542 0.0057266 -0.0087701 -0.0084866 0.0208343
0.0061143 0.0016425 0.0003226 0.0000317 0.0013522 0.0023816 0.0014562 0.0006463 0.0001299 0.0000951 -0.0005720 -0.0002122 0.0012406 0.0023105 0.0021385 0.0046191 0.0041232 -0.0156488 -0.0094310 0.0140168
0.0106611 0.0013531 0.0004444 -0.0000626 0.0013610 0.0023909 0.0014080 0.0007009 0.0001376 0.0001400 -0.0005534 -0.0001873 0.0010795 0.0023248 0.0023947 0.0041548 0.0203764 -0.0518341 0.0047398 -0.0044842
0.0059221 0.0014245 0.0005312 -0.0001504 0.0013765 0.0023559 0.0012992 0.0007538 0.0001466 0.0000379 -0.0005140 -0.0003153 0.0007360 0.0026139 0.0024207 0.0043362 0.0099069 -0.0214441 0.0054817 0.0019545
-0.0048492 0.0145885 0.0005559 -0.0002073 0.0013869 0.0022906 0.0012639 0.0005734 0.0001513 -0.0001609 -0.0004839 -0.0005174 0.0006025 0.0025339 0.0022858 0.0044205 -0.0071456 -0.0019229 -0.0012023 0.0015177
-0.0213206 0.0262106 0.0005890 -0.0002898 0.0013841 0.0022567 0.0014586 0.0003286 0.0001602 -0.0002497 -0.0004748 -0.0006012 0.0009566 0.0022207 0.0019573 0.0045111 -0.0118994 -0.0062065 -0.0051378 -0.0030578
-0.0084483 0.0052029 0.0004330 -0.0002442 0.0013801 0.0022670 0.0015649 0.0002432 0.0001727 -0.0002623 -0.0004833 -0.0005837 0.0012345 0.0020336 0.0018134 0.0046635 -0.0089702 -0.0080710 -0.0010127 -0.0094860
0.0075860 -0.0059750 0.0004411 -0.0002721 0.0013861 0.0022906 0.0015627 0.0002565 0.0001842 -0.0002359 -0.0005140 -0.0005043 0.0012535 0.0019543 0.0019468 0.0045178 -0.0047237 -0.0068369 -0.0001170 -0.0009151
0.0088014 -0.0018021 0.0004556 -0.0002349 0.0013895 0.0023070 0.0014425 0.0004239 0.0002013 -0.0001822 -0.0005080 -0.0004244 0.0010935 0.0021288 0.0023426 0.0044412 0.0043794 0.0035300 0.0034960 -0.0038570
0.0061330 -0.0055111 0.0004522 -0.0002233 0.0013967 0.0023325 0.0013569 0.0004472 0.0002031 -0.0001012 -0.0004668 -0.0003636 0.0007836 0.0023184 0.0026563 0.0041690 0.0077366 -0.0031910 0.0017875 -0.0070677
-0.0116442 0.0105706 0.0006243 -0.0003943 0.0014140 0.0023743 0.0014857 0.0003555 0.0001918 -0.0000090 -0.0004310 -0.0003067 0.0005992 0.0023859 0.0024098 0.0041580 0.0098513 -0.0231433 0.0012424 -0.0056452
-0.0231248 0.0157375 0.0006727 -0.0003835 0.0014092 0.0024160 0.0015460 0.0004406 0.0001898 0.0000870 -0.0004186 -0.0002356 0.0007036 0.0024200 0.0019345 0.0048481 -0.0058530 -0.0017118 0.0039228 0.0120397
-0.0055031 0.0016509 0.0005179 -0.0003012 0.0013961 0.0024106 0.0015650 0.0003580 0.0001866 0.0000098 -0.0004507 -0.0003043 0.0010134 0.0021137 0.0017273 0.0049916 -0.0201222 -0.0022557 0.0090621 0.0045454
0.0044876 0.0004523 0.0004413 -0.0003788 0.0013906 0.0023554 0.0016367 0.0001110 0.0002044 -0.0002082 -0.0004693 -0.0004821 0.0011269 0.0018427 0.0019017 0.0043712 0.0177362 -0.0423129 0.0161619 -0.0246143
0.0079482 -0.0099392 0.0003877 -0.0004021 0.0013882 0.0023232 0.0015662 0.0000862 0.0002393 -0.0003155 -0.0004587 -0.0005644 0.0010778 0.0018462 0.0022022 0.0040670 0.0203593 -0.0332485 -0.0061353 0.0133724
0.0057105 -0.0057622 0.0003791 -0.0004055 0.0014058 0.0023223 0.0013959 0.0001593 0.0002376 -0.0003028 -0.0004523 -0.0005515 0.0008842 0.0018592 0.0024882 0.0039913 0.0105510 -0.0211054 -0.0083432 0.0171421
0.0000577 0.0097248 0.0005081 -0.0004704 0.0014214 0.0023474 0.0013155 0.0003275 0.0002181 -0.0002412 -0.0004028 -0.0005069 0.0006948 0.0020413 0.0022665 0.0040346 0.0049166 -0.0205065 0.0071897 -0.0116371
-0.0102234 0.0112177 0.0005652 -0.0005014 0.0014149 0.0023586 0.0014049 0.0003016 0.0002200 -0.0001954 -0.0003459 -0.0004841 0.0008997 0.0020370 0.0019673 0.0041479 0.0061163 -0.0328504 0.0187833 -0.0374287
0.0031312 -0.0034123 0.0005111 -0.0004829 0.0013691 0.0022925 0.0015148 0.0001687 0.0002179 -0.0001381 -0.0003684 -0.0004201 0.0010344 0.0020263 0.0018153 0.0042763 0.0087086 -0.0330033 0.0215726 -0.0529385
0.0086607 -0.0048088 0.0003748 -0.0003504 0.0013254 0.0022454 0.0015346 0.0002919 0.0002239 -0.0000558 -0.0004081 -0.0002951 0.0010733 0.0022842 0.0018051 0.0043203 0.0039064 -0.0129845 0.0035982 -0.0083275
0.0096540 -0.0124511 0.0003149 -0.0002513 0.0013355 0.0022589 0.0014696 0.0004245 0.0002351 0.0000422 -0.0004183 -0.0001963 0.0011298 0.0022805 0.0020588 0.0042985 -0.0000726 -0.0010168 -0.0029533 0.0083103
0.0089439 -0.0078961 0.0004903 -0.0003631 0.0013535 0.0022479 0.0013918 0.0004570 0.0002378 -0.0000105 -0.0004168 -0.0002867 0.0009368 0.0021155 0.0022735 0.0041028 0.0053842 -0.0108411 -0.0009408 0.0027989
0.0012637 0.0015088 0.0006203 -0.0005360 0.0013532 0.0022156 0.0013322 0.0003941 0.0002405 -0.0002031 -0.0003888 -0.0004904 0.0008043 0.0021271 0.0022513 0.0041734 0.0120463 -0.0162197 0.0028779 -0.0001775
-0.0070633 -0.0031061 0.0005419 -0.0005617 0.0013506 0.0021653 0.0013200 0.0002897 0.0002280 -0.0002945 -0.0003596 -0.0005815 0.0008154 0.0021501 0.0020151 0.0044248 0.0060743 -0.0031910 -0.0015968 0.0152327
-0.0096147 0.0062169 0.0004542 -0.0004955 0.0013391 0.0021461 0.0014646 0.0002578 0.0002271 -0.0003067 -0.0003771 -0.0005703 0.0009523 0.0019800 0.0017880 0.0042579 0.0038219 -0.0160037 -0.0051631 0.0206910
0.0006503 0.0004383 0.0004246 -0.0004635 0.0013317 0.0021571 0.0015937 0.0002262 0.0002508 -0.0002956 -0.0003839 -0.0005208 0.0011847 0.0017488 0.0019331 0.0040341 0.0120418 -0.0390704 -0.0000574 0.0085925
0.0089641 -0.0114484 0.0003888 -0.0004717 0.0013367 0.0021932 0.0015540 0.0002365 0.0002579 -0.0002394 -0.0003854 -0.0004255 0.0012000 0.0018146 0.0022423 0.0039970 0.0073849 -0.0105679 -0.0001510 0.0051956
0.0038407 0.0059973 0.0004012 -0.0004147 0.0013518 0.0022622 0.0014189 0.0003987 0.0002613 -0.0001613 -0.0003920 -0.0003136 0.0008670 0.0020780 0.0023208 0.0038908 0.0098136 -0.0092233 -0.0044507 0.0057347
0.0006448 0.0074475 0.0004768 -0.0003882 0.0013663 0.0022970 0.0013368 0.0004524 0.0002559 -0.0000753 -0.0003673 -0.0002310 0.0007053 0.0022229 0.0023046 0.0038668 0.0114282 -0.0198180 0.0053532 -0.0070485
-0.0031996 0.0014916 0.0004963 -0.0003868 0.0013690 0.0023210 0.0013353 0.0004106 0.0002404 0.0000197 -0.0003440 -0.0001574 0.0007367 0.0023092 0.0019829 0.0041272 0.0032623 -0.0162508 0.0048597 -0.0025287
-0.0118452 0.0128391 0.0004607 -0.0003285 0.0013653 0.0023496 0.0014169 0.0003829 0.0002364 -0.0000109 -0.0003423 -0.0002061 0.0009079 0.0021481 0.0016235 0.0040174 0.0072091 -0.0294522 0.0008086 0.0019428
-0.0068918 0.0066334 0.0003874 -0.0003599 0.0013598 0.0023307 0.0015388 0.0002698 0.0002298 -0.0001704 -0.0003728 -0.0003466 0.0011751 0.0018789 0.0016837 0.0040384 0.0017977 -0.0099173 -0.0015609 0.0063573
0.0052969 0.0028072 0.0003330 -0.0004242 0.0013633 0.0022917 0.0014887 0.0002152 0.0002337 -0.0002616 -0.0003918 -0.0004156 0.0011870 0.0018329 0.0019134 0.0039063 0.0024541 -0.0065801 0.0024630 -0.0026416
0.0087744 0.0046030 0.0003982 -0.0005064 0.0013805 0.0022813 0.0014468 0.0001415 0.0002421 -0.0002614 -0.0003526 -0.0004362 0.0010653 0.0019577 0.0021768 0.0034657 0.0192479 -0.0433190 0.0145835 -0.0215290
0.0059572 0.0012776 0.0004258 -0.0004932 0.0013826 0.0022978 0.0014041 0.0001696 0.0002476 -0.0002328 -0.0003184 -0.0004038 0.0008769 0.0021484 0.0022200 0.0037094 0.0123904 -0.0237493 0.0057595 0.0033715
-0.0046348 0.0101467 0.0005283 -0.0004674 0.0013789 0.0023115 0.0013189 0.0003195 0.0002379 -0.0001787 -0.0003151 -0.0003279 0.0006884 0.0022004 0.0021600 0.0037037 0.0035223 -0.0137584 0.0013432 0.0062898
-0.0127154 0.0114087 0.0005862 -0.0005102 0.0013816 0.0023132 0.0014254 0.0003066 0.0002169 -0.0001027 -0.0003207 -0.0002397 0.0009749 0.0020378 0.0019365 0.0037759 -0.0006602 -0.0143208 0.0078800 -0.0115934
-0.0033999 -0.0020042 0.0004756 -0.0004717 0.0013661 0.0023303 0.0015465 0.0002704 0.0002160 -0.0000240 -0.0003372 -0.0001480 0.0012330 0.0019795 0.0017633 0.0041271 -0.0129879 0.0063874 -0.0016395 0.0032142
0.0002085 0.0024686 0.0004520 -0.0003920 0.0013506 0.0023636 0.0015364 0.0004159 0.0002188 0.0000635 -0.0003925 -0.0000413 0.0012024 0.0020898 0.0017646 0.0040961 -0.0107522 0.0082086 -0.0074029 0.0116037
-0.0002927 0.0073813 0.0003692 -0.0002801 0.0013546 0.0023790 0.0014903 0.0005120 0.0002175 0.0000583 -0.0004213 -0.0000305 0.0011147 0.0021683 0.0019426 0.0042576 0.0080757 -0.0003740 0.0017265 -0.0067548
0.0008685 0.0004724 0.0003495 -0.0003670 0.0013731 0.0023682 0.0014144 0.0003765 0.0002199 -0.0000876 -0.0004017 -0.0001962 0.0009032 0.0021317 0.0022656 0.0039084 0.0121565 -0.0068860 0.0027175 -0.0079881
0.0030401 -0.0065360 0.0005087 -0.0005709 0.0013780 0.0023357 0.0013843 0.0002982 0.0002072 -0.0001938 -0.0003597 -0.0003562 0.0006192 0.0020827 0.0022019 0.0035873 0.0139670 -0.0226306 -0.0016864 0.0001568
-0.0027633 -0.0017268 0.0005607 -0.0005974 0.0013810 0.0023037 0.0014294 0.0002862 0.0001941 -0.0002053 -0.0003439 -0.0003759 0.0006036 0.0021936 0.0018210 0.0040920 -0.0002419 0.0028853 -0.0024769 0.0226586
-0.0184426 0.0169003 0.0004160 -0.0004738 0.0013736 0.0022939 0.0015024 0.0001814 0.0001859 -0.0001860 -0.0003430 -0.0003539 0.0009898 0.0019999 0.0015177 0.0043035 -0.0058646 0.0004622 -0.0006104 0.0196175
-0.0080908 0.0137278 0.0003425 -0.0004017 0.0013525 0.0022818 0.0015318 0.0001515 0.0001885 -0.0001470 -0.0003536 -0.0003036 0.0011916 0.0017641 0.0015246 0.0038952 0.0142919 -0.0324459 0.0041861 -0.0031432
0.0041324 -0.0026614 0.0003528 -0.0004038 0.0013399 0.0022904 0.0014977 0.0002266 0.0002032 -0.0001018 -0.0003878 -0.0002041 0.0010770 0.0019667 0.0017869 0.0037407 0.0122241 -0.0223094 -0.0041566 0.0074325
0.0049197 0.0060231 0.0002868 -0.0003145 0.0013381 0.0023063 0.0013547 0.0002986 0.0002031 -0.0000389 -0.0003948 -0.0001269 0.0008556 0.0021190 0.0020232 0.0036358 0.0062179 -0.0194485 -0.0056327 -0.0021349
0.0027983 0.0089545 0.0003751 -0.0003351 0.0013514 0.0022992 0.0012173 0.0004548 0.0001930 -0.0000547 -0.0003564 -0.0001833 0.0006229 0.0022007 0.0020772 0.0032897 0.0077317 -0.0265206 0.0054980 -0.0024531
0.0034293 -0.0127377 0.0005202 -0.0004728 0.0013590 0.0022622 0.0012362 0.0003922 0.0001823 -0.0001966 -0.0003067 -0.0003702 0.0006634 0.0020928 0.0019505 0.0034255 0.0073224 -0.0283950 0.0065752 0.0009018
-0.0027737 -0.0067155 0.0005216 -0.0005463 0.0013560 0.0022071 0.0013662 0.0001642 0.0001740 -0.0003128 -0.0003183 -0.0004730 0.0008030 0.0019178 0.0017239 0.0035061 -0.0052244 -0.0027481 0.0009204 0.0070861
-0.0043375 0.0061421 0.0004564 -0.0005387 0.0013523 0.0021863 0.0015070 0.0000694 0.0001776 -0.0003466 -0.0003444 -0.0004729 0.0010440 0.0018531 0.0015643 0.0036170 -0.0127963 0.0092135 -0.0006906 0.0104342
-0.0007044 0.0026926 0.0003596 -0.0004817 0.0013492 0.0021857 0.0015180 -0.0000012 0.0001853 -0.0003379 -0.0003661 -0.0004485 0.0012625 0.0016878 0.0017372 0.0036623 -0.0043233 0.0002596 0.0013661 -0.0027438
0.0029604 0.0004488 0.0004041 -0.0004679 0.0013424 0.0021748 0.0014659 0.0000299 0.0001959 -0.0003041 -0.0003802 -0.0004088 0.0010559 0.0017863 0.0018921 0.0035489 0.0020045 -0.0036836 0.0147205 -0.0377436
0.0067362 -0.0010415 0.0004848 -0.0004606 0.0013408 0.0021811 0.0013487 0.0001934 0.0001992 -0.0002395 -0.0003619 -0.0003501 0.0007672 0.0021381 0.0020364 0.0037583 0.0044461 0.0092446 0.0193904 -0.0466884
0.0033887 -0.0062595 0.0005282 -0.0004861 0.0013417 0.0022025 0.0012400 0.0002804 0.0001934 -0.0001658 -0.0003315 -0.0002841 0.0005824 0.0022568 0.0021684 0.0037433 0.0080442 0.0036281 0.0081498 -0.0292463
-0.0087035 -0.0059657 0.0005294 -0.0004666 0.0013452 0.0022191 0.0013875 0.0002188 0.0001844 -0.0000814 -0.0003118 -0.0002392 0.0005457 0.0020779 0.0019205 0.0036768 0.0067840 -0.0161363 -0.0014267 -0.0083950
-0.0193949 0.0098950 0.0004543 -0.0004554 0.0013500 0.0022259 0.0015031 0.0001348 0.0001720 -0.0001514 -0.0003125 -0.0003322 0.0008274 0.0018391 0.0016771 0.0039235 -0.0142675 0.0017379 -0.0000242 0.0172407
-0.0055986 0.0067988 0.0003346 -0.0004934 0.0013465 0.0021858 0.0014626 0.0000054 0.0001726 -0.0003665 -0.0003309 -0.0005287 0.0010677 0.0016615 0.0015413 0.0040556 -0.0145554 0.0050471 0.0027913 0.0161692
0.0056504 -0.0004998 0.0002521 -0.0004794 0.0013555 0.0021655 0.0014325 -0.0000662 0.0001871 -0.0005048 -0.0003558 -0.0006373 0.0009805 0.0015502 0.0017243 0.0037030 0.0050101 -0.0118179 0.0019114 0.0003915
0.0038419 0.0016010 0.0003245 -0.0005933 0.0013629 0.0021829 0.0013252 -0.0001018 0.0001971 -0.0005600 -0.0003543 -0.0006590 0.0008573 0.0015586 0.0019976 0.0036215 0.0120354 -0.0240139 -0.0078443 0.0106724
0.0023490 0.0024184 0.0005173 -0.0006962 0.0013223 0.0021464 0.0011202 -0.0000219 0.0002124 -0.0004924 -0.0003318 -0.0006830 0.0006957 0.0016518 0.0019676 0.0035279 0.0087918 -0.0193174 -0.0111585 0.0172182
-0.0024832 0.0097149 0.0007208 -0.0005553 0.0012693 0.0021140 0.0010591 0.0002138 0.0002398 -0.0003184 -0.0003018 -0.0007188 0.0005604 0.0016309 0.0016235 0.0028602 0.0000101 -0.0116949 -0.0019285 0.0057003
-0.0162603 0.0188730 0.0007751 -0.0003186 0.0012342 0.0021186 0.0012090 0.0002184 0.0002594 -0.0001315 -0.0002781 -0.0007158 0.0006678 0.0014476 0.0013050 0.0022290 -0.0033208 -0.0216431 0.0050076 -0.0062397
-0.0054391 0.0093290 0.0006936 -0.0000379 0.0011275 0.0020316 0.0012962 0.0002255 0.0002765 0.0000278 -0.0002931 -0.0005978 0.0008081 0.0014012 0.0011000 0.0021522 0.0089279 -0.0328414 -0.0009395 -0.0012210
0.0062920 -0.0030731 0.0005845 0.0002940 0.0009819 0.0018727 0.0013138 0.0004166 0.0003036 0.0002017 -0.0003144 -0.0004322 0.0009470 0.0014807 0.0009020 0.0024610 0.0088867 -0.0230701 -0.0044575 -0.0011215
0.0111800 -0.0170153 0.0005833 0.0003390 0.0009380 0.0018002 0.0012339 0.0004939 0.0003394 0.0001791 -0.0003178 -0.0005008 0.0009993 0.0014258 0.0012025 0.0020489 0.0052432 -0.0123003 -0.0012746 -0.0104848
0.0107483 -0.0129734 0.0007313 0.0001972 0.0009494 0.0017599 0.0010975 0.0004762 0.0003646 0.0000066 -0.0003069 -0.0007062 0.0008475 0.0014130 0.0014474 0.0014029 0.0043109 -0.0108433 0.0092467 -0.0288163
0.0068237 -0.0026047 0.0008086 0.0001645 0.0009557 0.0017107 0.0010643 0.0004635 0.0003767 -0.0000260 -0.0002637 -0.0007891 0.0007215 0.0014759 0.0012041 0.0017596 0.0043053 0.0057646 0.0304935 -0.0774322
-0.0009028 -0.0060572 0.0008071 0.0000926 0.0009509 0.0016790 0.0010749 0.0004635 0.0003882 -0.0000085 -0.0002071 -0.0007699 0.0006330 0.0014919 0.0011126 0.0017728 0.0026703 0.0092562 0.0047442 -0.0118514
-0.0233619 0.0132789 0.0007542 0.0000176 0.0009391 0.0016709 0.0012254 0.0004569 0.0003897 0.0000383 -0.0001804 -0.0007083 0.0006437 0.0014696 0.0008770 0.0011756 0.0025269 -0.0087909 -0.0036320 0.0016181
-0.0173173 0.0120183 0.0006445 0.0000943 0.0009298 0.0016075 0.0014195 0.0004690 0.0003910 0.0001109 -0.0001705 -0.0005840 0.0008980 0.0014363 0.0006857 0.0012030 -0.0011062 -0.0183758 -0.0003270 0.0115911
0.0046034 -0.0177527 0.0004319 0.0002299 0.0008924 0.0014579 0.0014004 0.0006019 0.0003941 0.0001639 -0.0001531 -0.0004048 0.0010650 0.0016060 0.0007302 0.0018323 -0.0066542 -0.0071229 0.0015459 0.0173746
0.0094827 -0.0109000 0.0003849 0.0004208 0.0007667 0.0012498 0.0012730 0.0007788 0.0004092 0.0001523 -0.0001412 -0.0003131 0.0009605 0.0017924 0.0009602 0.0019074 0.0093604 -0.0130914 0.0026718 0.0005605
0.0089852 -0.0106867 0.0005497 0.0005445 0.0006573 0.0010371 0.0011758 0.0007943 0.0004321 0.0000320 -0.0001162 -0.0004174 0.0008554 0.0018041 0.0015124 0.0014130 0.0134652 -0.0221071 -0.0068987 0.0026089
0.0084052 -0.0125258 0.0006598 0.0005399 0.0006610 0.0009679 0.0011194 0.0006760 0.0004323 -0.0000737 -0.0000753 -0.0005561 0.0007077 0.0017971 0.0016268 0.0015217 0.0115526 -0.0255727 -0.0075118 -0.0044735
-0.0014848 0.0047829 0.0007650 0.0005744 0.0007116 0.0010316 0.0011501 0.0007019 0.0004444 -0.0000181 -0.0000342 -0.0006432 0.0005784 0.0018131 0.0011549 0.0011230 0.0106637 -0.0242437 0.0052181 -0.0150165
-0.0140963 0.0106596 0.0007700 0.0005765 0.0008385 0.0012009 0.0012482 0.0006291 0.0004516 0.0000384 -0.0000162 -0.0006465 0.0007757 0.0016877 0.0007682 0.0010055 0.0009249 -0.0146129 0.0052271 -0.0091291
0.0010239 -0.0022130 0.0007055 0.0005282 0.0009374 0.0013436 0.0013348 0.0004623 0.0004312 0.0000213 -0.0000376 -0.0005531 0.0009590 0.0015610 0.0007161 0.0011606 -0.0066634 -0.0037759 0.0040242 -0.0080222
0.0038601 0.0005450 0.0006198 0.0005879 0.0009678 0.0014450 0.0013949 0.0005117 0.0004399 0.0000810 -0.0000577 -0.0004695 0.0010661 0.0016437 0.0007357 0.0012032 0.0035445 -0.0121043 -0.0008249 0.0061613
0.0066279 -0.0052258 0.0005507 0.0006353 0.0009792 0.0014978 0.0013531 0.0005569 0.0004538 0.0000800 -0.0000788 -0.0004303 0.0010987 0.0017121 0.0010781 0.0013265 0.0129199 -0.0224777 -0.0050688 0.0122771
0.0130484 -0.0173056 0.0006382 0.0005081 0.0009761 0.0014495 0.0012389 0.0005455 0.0004477 -0.0000700 -0.0000790 -0.0005574 0.0009261 0.0016357 0.0012861 0.0010353 0.0128662 -0.0237698 -0.0013764 0.0035707
0.0048885 -0.0075868 0.0007498 0.0003720 0.0009682 0.0013834 0.0011557 0.0005347 0.0004495 -0.0002089 -0.0000195 -0.0007248 0.0008160 0.0015901 0.0012055 0.0012007 0.0070563 -0.0005605 0.0013810 -0.0043807
-0.0058280 -0.0006892 0.0007985 0.0002343 0.0009552 0.0013404 0.0011827 0.0004123 0.0004581 -0.0002631 0.0000308 -0.0007662 0.0007986 0.0015553 0.0011388 0.0014681 0.0035694 0.0084439 -0.0060049 0.0022375
-0.0153257 0.0088474 0.0007546 0.0002474 0.0009627 0.0013502 0.0013674 0.0003131 0.0004568 -0.0002497 0.0000307 -0.0007373 0.0007854 0.0014914 0.0009208 0.0015964 0.0078131 -0.0167059 -0.0032213 -0.0078076
-0.0059863 -0.0005452 0.0006912 0.0002894 0.0009646 0.0013782 0.0014914 0.0002714 0.0004533 -0.0001988 0.0000248 -0.0006689 0.0009974 0.0014135 0.0009367 0.0015491 0.0081646 -0.0291882 -0.0005137 0.0061008
0.0050727 -0.0170162 0.0006036 0.0003190 0.0009693 0.0014034 0.0014468 0.0003058 0.0004562 -0.0001334 -0.0000084 -0.0005767 0.0012315 0.0013576 0.0010374 0.0014736 -0.0072899 0.0001269 -0.0007902 0.0134833
0.0032381 0.0036753 0.0005601 0.0003844 0.0009863 0.0014437 0.0013409 0.0004636 0.0004607 -0.0000621 -0.0000375 -0.0004731 0.0010999 0.0014420 0.0011173 0.0011378 0.0049346 -0.0053589 0.0038982 -0.0040211
0.0031371 0.0041130 0.0006258 0.0003938 0.0009904 0.0014708 0.0012928 0.0004945 0.0004612 0.0000170 -0.0000074 -0.0003997 0.0009423 0.0015495 0.0013317 0.0010471 0.0175144 -0.0283220 0.0023812 -0.0099011
0.0050114 -0.0088281 0.0006600 0.0003793 0.0009827 0.0014501 0.0012178 0.0004901 0.0004512 -0.0000030 0.0000141 -0.0004344 0.0007458 0.0017156 0.0013602 0.0014726 0.0127958 -0.0255629 -0.0080041 0.0097885
0.0002184 0.0000869 0.0007078 0.0002738 0.0009880 0.0014183 0.0012365 0.0004328 0.0004324 -0.0001519 0.0000426 -0.0005910 0.0006545 0.0017308 0.0012353 0.0014330 0.0032298 -0.0137094 -0.0059509 0.0166943
-0.0051089 -0.0051484 0.0006932 0.0001469 0.0009961 0.0013634 0.0014087 0.0002190 0.0004247 -0.0002640 0.0000705 -0.0007011 0.0008912 0.0015599 0.0011183 0.0011605 0.0024318 -0.0186135 0.0024038 -0.0001189
0.0063863 -0.0125584 0.0005984 0.0002045 0.0009733 0.0013013 0.0014698 0.0001660 0.0004330 -0.0002854 0.0000543 -0.0006805 0.0011037 0.0014364 0.0008148 0.0014563 -0.0008997 -0.0107054 0.0043293 -0.0139837
0.0071857 -0.0046096 0.0005180 0.0003548 0.0009941 0.0013559 0.0014598 0.0002934 0.0004394 -0.0002592 0.0000213 -0.0006150 0.0012053 0.0014996 0.0006532 0.0016692 -0.0011952 -0.0137167 -0.0109056 0.0101523
0.0065326 -0.0068389 0.0004856 0.0003416 0.0010704 0.0014613 0.0014313 0.0003070 0.0004298 -0.0002007 -0.0000052 -0.0005322 0.0012166 0.0015942 0.0009026 0.0015053 0.0057729 -0.0229856 -0.0122132 0.0097642
0.0072864 -0.0092024 0.0006519 0.0002004 0.0010773 0.0014511 0.0013196 0.0003834 0.0004162 -0.0001377 -0.0000014 -0.0004551 0.0010691 0.0016385 0.0012450 0.0012105 0.0177497 -0.0437906 0.0053148 -0.0162333
-0.0013797 -0.0031324 0.0007787 0.0001865 0.0010422 0.0014042 0.0012486 0.0005095 0.0004165 -0.0000656 0.0000485 -0.0003935 0.0008848 0.0019380 0.0013841 0.0014078 0.0061277 0.0010027 0.0074785 -0.0094622
-0.0089064 0.0053453 0.0006487 0.0003185 0.0010348 0.0014179 0.0012436 0.0005792 0.0003974 0.0000398 0.0000714 -0.0002951 0.0007868 0.0021308 0.0012292 0.0016804 -0.0007250 0.0169513 0.0007114 0.0033931
-0.0154078 0.0113301 0.0006624 0.0003097 0.0010327 0.0014198 0.0013571 0.0005647 0.0003777 -0.0000057 0.0000530 -0.0003394 0.0008319 0.0019098 0.0010474 0.0015851 -0.0042908 0.0040338 -0.0024690 0.0023041
-0.0114960 0.0057338 0.0006380 0.0002496 0.0010414 0.0013955 0.0015090 0.0003662 0.0003826 -0.0001810 0.0000475 -0.0004937 0.0010660 0.0016015 0.0009463 0.0018019 -0.0143602 0.0067885 -0.0016851 0.0149098
0.0021332 -0.0080279 0.0004938 0.0002245 0.0010807 0.0014448 0.0015254 0.0002185 0.0003890 -0.0002488 0.0000248 -0.0005161 0.0011909 0.0015277 0.0008638 0.0018542 -0.0144367 0.0123070 -0.0028566 0.0206683
0.0041341 -0.0000480 0.0004994 0.0002737 0.0011278 0.0015516 0.0014603 0.0002692 0.0004004 -0.0002278 0.0000030 -0.0004829 0.0010764 0.0015920 0.0011636 0.0012636 0.0051243 -0.0053668 -0.0039434 0.0092718
0.0050637 -0.0026864 0.0005915 0.0002442 0.0011437 0.0015875 0.0013607 0.0003144 0.0004030 -0.0001772 0.0000148 -0.0004409 0.0009882 0.0016281 0.0015511 0.0008592 0.0115760 -0.0118090 -0.0055387 0.0023430
0.0057309 -0.0069093 0.0006441 0.0001986 0.0011353 0.0015854 0.0012679 0.0003575 0.0003831 -0.0000971 0.0000240 -0.0003520 0.0007670 0.0018567 0.0014343 0.0012857 0.0071311 -0.0042459 -0.0083519 0.0151089
0.0001996 0.0043358 0.0006684 0.0002717 0.0011132 0.0015840 0.0013038 0.0004483 0.0003691 -0.0000125 0.0000442 -0.0002485 0.0006408 0.0020298 0.0011924 0.0015378 0.0055611 -0.0148734 -0.0023072 0.0146404
-0.0094839 0.0066820 0.0006882 0.0002586 0.0011111 0.0015987 0.0013915 0.0005106 0.0003524 0.0000715 0.0000679 -0.0001752 0.0008411 0.0019120 0.0010704 0.0014491 0.0058179 -0.0298636 0.0032641 -0.0000338
-0.0029905 0.0006737 0.0006336 0.0003714 0.0011013 0.0016199 0.0014313 0.0005410 0.0003380 0.0001581 0.0000270 -0.0001293 0.0010104 0.0017714 0.0007547 0.0016914 -0.0065102 -0.0020769 0.0026031 -0.0049160
-0.0031270 0.0056738 0.0004942 0.0005573 0.0010799 0.0016070 0.0014618 0.0005243 0.0003440 0.0000927 -0.0000257 -0.0001743 0.0012161 0.0017521 0.0006945 0.0019539 -0.0086091 0.0031506 0.0086426 -0.0169453
-0.0070736 0.0073428 0.0003897 0.0005274 0.0010698 0.0015401 0.0014644 0.0003778 0.0003509 -0.0000322 -0.0000379 -0.0002649 0.0012622 0.0017486 0.0011070 0.0018516 0.0011850 -0.0130445 0.0157334 -0.0378169
0.0027398 -0.0077591 0.0005661 0.0003488 0.0010570 0.0014537 0.0013762 0.0004339 0.0003480 -0.0000382 -0.0000454 -0.0002815 0.0009997 0.0018474 0.0013738 0.0014968 0.0054391 -0.0140230 0.0088301 -0.0254634
0.0042225 -0.0094990 0.0006862 0.0003665 0.0010260 0.0013824 0.0012381 0.0006846 0.0003552 0.0000143 -0.0000303 -0.0002236 0.0008604 0.0020379 0.0015412 0.0016175 0.0030378 0.0112378 0.0099372 -0.0237565
-0.0047408 -0.0046344 0.0006398 0.0004065 0.0009777 0.0013035 0.0012048 0.0007467 0.0003514 0.0000993 -0.0000052 -0.0001682 0.0008307 0.0021258 0.0013473 0.0016447 0.0028128 0.0127542 -0.0023008 0.0007267
-0.0236846 0.0137897 0.0007041 0.0006188 0.0009449 0.0012262 0.0013803 0.0008113 0.0003429 0.0002568 -0.0000013 -0.0001005 0.0008191 0.0020555 0.0009586 0.0013402 0.0048652 -0.0093618 0.0014298 -0.0050380
-0.0194178 0.0085141 0.0006780 0.0008120 0.0009025 0.0011567 0.0014774 0.0008530 0.0003506 0.0002704 -0.0000081 -0.0001029 0.0010399 0.0018978 0.0009253 0.0011342 -0.0107586 0.0068353 0.0034639 0.0092302
-0.0017847 -0.0158610 0.0005080 0.0007991 0.0008895 0.0011307 0.0014581 0.0007952 0.0003442 0.0001701 -0.0000168 -0.0001968 0.0011780 0.0018460 0.0007590 0.0009607 -0.0132542 0.0139169 -0.0012569 0.0214707
-0.0017732 0.0044394 0.0004918 0.0008747 0.0009047 0.0011270 0.0014461 0.0008226 0.0003571 0.0001664 -0.0000115 -0.0002105 0.0010827 0.0018469 0.0007810 0.0006266 0.0066200 -0.0111101 -0.0012010 0.0020947
0.0048547 -0.0042345 0.0005819 0.0008448 0.0008968 0.0011074 0.0013449 0.0009054 0.0003768 0.0001833 -0.0000205 -0.0001516 0.0009659 0.0019778 0.0010337 0.0004791 0.0098849 -0.0148475 -0.0057417 0.0027556
0.0094428 -0.0115180 0.0005957 0.0008725 0.0008975 0.0011201 0.0012049 0.0009951 0.0003765 0.0002444 -0.0000344 -0.0000854 0.0008079 0.0021003 0.0010114 0.0006376 -0.0002017 0.0012655 -0.0147412 0.0235663
-0.0019708 0.0084284 0.0007130 0.0008925 0.0009072 0.0011486 0.0011554 0.0011013 0.0003655 0.0002762 0.0000005 -0.0001313 0.0006809 0.0021802 0.0008423 0.0005201 -0.0012141 -0.0070256 -0.0068103 0.0180917
-0.0168652 0.0160983 0.0007771 0.0007462 0.0009083 0.0011102 0.0012721 0.0009642 0.0003558 0.0001602 0.0000511 -0.0002829 0.0007760 0.0021247 0.0007483 0.0004305 0.0006329 -0.0195031 0.0013333 0.0018141
-0.0074136 0.0026547 0.0007170 0.0006922 0.0008531 0.0009936 0.0013415 0.0007850 0.0003616 0.0000336 0.0000341 -0.0003472 0.0009705 0.0019532 0.0005599 0.0007259 -0.0033466 -0.0119183 -0.0000079 -0.0027473
0.0013210 -0.0030608 0.0006586 0.0008921 0.0007711 0.0008490 0.0013635 0.0008823 0.0003755 0.0000487 0.0000109 -0.0003328 0.0011491 0.0020905 0.0002823 0.0007791 -0.0051039 -0.0066752 0.0046555 -0.0178486
0.0022058 -0.0042692 0.0007306 0.0014114 0.0006358 0.0006232 0.0012931 0.0011688 0.0004295 0.0001614 0.0000330 -0.0002585 0.0013327 0.0022651 0.0004885 -0.0000227 -0.0003918 -0.0116884 0.0054217 -0.0178789
0.0092039 -0.0159432 0.0009752 0.0019112 0.0005092 0.0004482 0.0012251 0.0015200 0.0004882 0.0003147 0.0000913 -0.0001226 0.0012716 0.0025274 0.0006561 -0.0006401 0.0080274 -0.0208681 0.0068034 -0.0117777
0.0072704 -0.0077061 0.0011287 0.0019876 0.0006177 0.0007107 0.0012008 0.0017509 0.0004826 0.0003573 0.0001632 0.0000388 0.0010682 0.0029727 0.0006564 -0.0003439 0.0081777 -0.0001444 0.0094761 -0.0172720
-0.0010777 -0.0033531 0.0011966 0.0019766 0.0006345 0.0008992 0.0011527 0.0018927 0.0004680 0.0003619 0.0002370 0.0002512 0.0009548 0.0033069 0.0008004 -0.0002139 0.0117028 -0.0061128 0.0033670 -0.0114444
-0.0131919 -0.0007004 0.0012293 0.0020174 0.0005633 0.0009549 0.0012657 0.0019824 0.0004623 0.0004400 0.0002969 0.0004634 0.0010145 0.0034062 0.0006321 -0.0002566 0.0100375 -0.0181575 0.0077991 -0.0217529
-0.0181459 0.0091496 0.0011878 0.0020224 0.0006379 0.0012921 0.0014021 0.0020263 0.0004468 0.0003730 0.0003242 0.0005607 0.0012263 0.0034640 0.0002726 0.0002843 -0.0163808 0.0205599 0.0064510 0.0027521
-0.0091103 0.0076534 0.0010839 0.0019275 0.0006314 0.0014090 0.0014055 0.0019487 0.0004408 0.0001140 0.0003293 0.0004651 0.0015015 0.0032977 0.0001843 0.0003166 -0.0438307 0.0363337 0.0043480 0.0072111
0.0004169 0.0011082 0.0010180 0.0017913 0.0005903 0.0013098 0.0014299 0.0017705 0.0004502 -0.0001141 0.0003293 0.0003379 0.0015045 0.0031040 0.0004706 -0.0001889 0.0055744 -0.0169622 0.0037309 -0.0061756
0.0049333 -0.0095356 0.0010509 0.0016923 0.0005571 0.0012343 0.0013778 0.0017180 0.0004665 -0.0002212 0.0003435 0.0002949 0.0013444 0.0032673 0.0008409 -0.0002525 0.0121532 -0.0161890 -0.0097041 0.0097907
0.0076939 -0.0082264 0.0011268 0.0017555 0.0005012 0.0011226 0.0012659 0.0016891 0.0004700 -0.0002208 0.0003489 0.0003194 0.0011678 0.0034789 0.0009000 -0.0001018 0.0039804 -0.0015887 -0.0133511 0.0180415
0.0014210 0.0005040 0.0012240 0.0018476 0.0005267 0.0011202 0.0012246 0.0017702 0.0004818 -0.0001536 0.0003866 0.0003592 0.0009955 0.0035706 0.0008097 -0.0002790 0.0043750 -0.0073377 0.0060676 -0.0036948
-0.0075752 -0.0044796 0.0012753 0.0017730 0.0005849 0.0012036 0.0012474 0.0017967 0.0004783 -0.0000604 0.0004348 0.0004081 0.0011322 0.0034566 0.0006652 -0.0000618 0.0140682 -0.0416343 0.0140428 -0.0240833
0.0014861 -0.0123901 0.0012692 0.0018260 0.0006238 0.0012730 0.0013082 0.0017499 0.0004557 0.0000608 0.0004181 0.0005384 0.0012141 0.0034514 0.0004441 0.0004159 0.0033924 -0.0246178 0.0051787 -0.0095734
-0.0022448 0.0077767 0.0011636 0.0019944 0.0006425 0.0013133 0.0014082 0.0017493 0.0004449 0.0001827 0.0003822 0.0007022 0.0014356 0.0035309 0.0002636 0.0007642 -0.0059347 0.0044672 0.0082992 -0.0231444
-0.0015623 0.0057848 0.0010881 0.0019865 0.0006531 0.0013033 0.0014116 0.0015871 0.0004387 0.0001385 0.0003535 0.0006641 0.0015975 0.0033164 0.0006790 0.0006058 -0.0030628 0.0023202 0.0043632 -0.0196155
0.0071670 -0.0122117 0.0011075 0.0015374 0.0009049 0.0016144 0.0013656 0.0011815 0.0003935 -0.0001803 0.0003068 0.0004659 0.0013993 0.0030327 0.0010270 0.0002122 -0.0000380 -0.0041793 0.0023041 -0.0117957
0.0027246 0.0009274 0.0010166 0.0007395 0.0012451 0.0023128 0.0013098 0.0008379 0.0003366 -0.0004456 0.0003160 0.0003542 0.0011542 0.0031213 0.0009918 0.0004283 0.0043393 0.0040937 0.0070901 -0.0163676
-0.0043883 0.0044686 0.0009524 0.0002379 0.0013109 0.0025782 0.0012570 0.0007219 0.0003241 -0.0004465 0.0003688 0.0003387 0.0010274 0.0031810 0.0011825 0.0004385 0.0101288 -0.0060344 0.0008130 -0.0040665
-0.0156234 0.0118024 0.0009681 0.0002230 0.0012178 0.0023149 0.0013647 0.0006946 0.0003312 -0.0003614 0.0003735 0.0004038 0.0009896 0.0031157 0.0011176 0.0001673 0.0112247 -0.0257058 0.0003884 -0.0064008
-0.0179132 0.0111058 0.0008663 0.0003395 0.0011082 0.0020404 0.0014164 0.0007719 0.0003371 -0.0002783 0.0003609 0.0005136 0.0011264 0.0031412 0.0007597 0.0007433 -0.0120152 0.0041546 0.0011745 0.0151715
-0.0016072 -0.0097024 0.0007114 0.0004840 0.0010279 0.0018465 0.0014388 0.0007914 0.0003389 -0.0001816 0.0003334 0.0006312 0.0013537 0.0031261 0.0006166 0.0012091 -0.0135923 0.0018563 0.0001577 0.0196611
0.0055575 -0.0055268 0.0007190 0.0005165 0.0010168 0.0017727 0.0014132 0.0008077 0.0003581 -0.0002403 0.0003121 0.0005991 0.0014045 0.0029968 0.0007876 0.0008987 0.0111618 -0.0216693 0.0002340 0.0016501
0.0090073 -0.0135592 0.0007492 0.0004373 0.0010894 0.0018729 0.0013436 0.0007053 0.0003767 -0.0003629 0.0003146 0.0004151 0.0013563 0.0029669 0.0011718 0.0006062 0.0150516 -0.0206212 -0.0091057 -0.0007141
0.0077289 -0.0052512 0.0008106 0.0003437 0.0011492 0.0019879 0.0012797 0.0006207 0.0003761 -0.0004121 0.0003243 0.0003293 0.0011476 0.0030668 0.0013500 0.0004531 0.0081543 -0.0164406 -0.0153324 0.0147135
0.0005326 0.0101321 0.0009852 0.0002691 0.0011595 0.0020301 0.0012583 0.0007410 0.0003709 -0.0003811 0.0003650 0.0003683 0.0010322 0.0031392 0.0011004 0.0006358 0.0064607 -0.0237538 -0.0014121 0.0135047
-0.0101743 0.0097587 0.0009771 0.0003190 0.0011255 0.0019958 0.0013604 0.0007086 0.0003677 -0.0002631 0.0004056 0.0004336 0.0012034 0.0031212 0.0008566 0.0010133 0.0042803 -0.0226673 0.0059564 -0.0009634
-0.0044523 0.0067335 0.0008821 0.0004313 0.0011204 0.0020179 0.0014115 0.0006516 0.0003489 -0.0002204 0.0004105 0.0004916 0.0013225 0.0031008 0.0006409 0.0014936 -0.0125306 0.0063674 0.0085939 -0.0199341
0.0016459 0.0059954 0.0008026 0.0003451 0.0011610 0.0020887 0.0014395 0.0006500 0.0003450 -0.0003535 0.0003974 0.0004338 0.0014632 0.0030852 0.0006194 0.0017525 -0.0152865 0.0066990 0.0028412 -0.0112983
0.0024195 0.0018329 0.0007166 0.0002428 0.0011427 0.0020375 0.0014762 0.0004818 0.0003784 -0.0005268 0.0003870 0.0002926 0.0015548 0.0029668 0.0009177 0.0014067 0.0059923 -0.0288083 0.0041751 -0.0122550
0.0037654 0.0013343 0.0007578 0.0002372 0.0011330 0.0019933 0.0014125 0.0004565 0.0004042 -0.0005663 0.0003810 0.0002494 0.0014360 0.0029264 0.0011537 0.0010990 0.0091006 -0.0186799 0.0150405 -0.0373788
0.0021640 0.0053706 0.0008248 0.0002076 0.0011355 0.0019877 0.0013781 0.0005834 0.0004151 -0.0005196 0.0004053 0.0002990 0.0012191 0.0031612 0.0012623 0.0013510 0.0051210 0.0065018 0.0214675 -0.0555114
-0.0108516 0.0108325 0.0008479 0.0002129 0.0011265 0.0019941 0.0013796 0.0006120 0.0004158 -0.0004302 0.0004484 0.0003563 0.0010262 0.0033415 0.0012747 0.0014231 0.0048246 0.0059433 0.0054746 -0.0159722
-0.0286555 0.0169795 0.0008474 0.0002448 0.0011226 0.0020230 0.0014915 0.0005966 0.0004097 -0.0003380 0.0004705 0.0004176 0.0011110 0.0031821 0.0011728 0.0011911 0.0037653 -0.0077423 -0.0038540 0.0081220
-0.0181583 0.0095490 0.0008120 0.0003005 0.0011180 0.0020664 0.0015912 0.0006439 0.0004031 -0.0002441 0.0004583 0.0005145 0.0013502 0.0030523 0.0009623 0.0014064 -0.0090447 0.0056084 -0.0019206 0.0219222
-0.0022223 -0.0033982 0.0006793 0.0003963 0.0011051 0.0020943 0.0015741 0.0007226 0.0004032 -0.0001534 0.0004371 0.0005724 0.0014738 0.0030654 0.0007444 0.0017240 -0.0363242 0.0327359 -0.0020988 0.0246729
0.0035466 0.0000268 0.0006191 0.0004416 0.0011054 0.0020799 0.0015105 0.0007560 0.0004236 -0.0002476 0.0004170 0.0004668 0.0013986 0.0030289 0.0009365 0.0012894 -0.0043126 0.0051151 -0.0013662 0.0058740
0.0052088 -0.0002572 0.0006484 0.0003894 0.0011224 0.0020374 0.0014236 0.0006887 0.0004438 -0.0004376 0.0004188 0.0003083 0.0012988 0.0029816 0.0014606 0.0007956 0.0091318 -0.0118830 -0.0004538 -0.0094215
0.0080711 -0.0012160 0.0007646 0.0002324 0.0011446 0.0020514 0.0013892 0.0005716 0.0004521 -0.0004769 0.0004498 0.0002519 0.0011558 0.0030386 0.0015500 0.0009389 -0.0004376 0.0056852 -0.0136183 0.0086929
0.0035659 0.0053623 0.0009294 0.0001367 0.0011601 0.0021052 0.0014138 0.0005703 0.0004542 -0.0004277 0.0004936 0.0002697 0.0011088 0.0031065 0.0011267 0.0012922 -0.0003779 0.0063204 -0.0059578 0.0113378
-0.0079428 0.0113584 0.0009025 0.0002206 0.0011522 0.0021133 0.0015146 0.0005753 0.0004423 -0.0003552 0.0005319 0.0003260 0.0013247 0.0030186 0.0009195 0.0013969 -0.0008452 -0.0050089 0.0014245 -0.0019071
-0.0049802 0.0059131 0.0008431 0.0003021 0.0011399 0.0021168 0.0016354 0.0005430 0.0004376 -0.0002797 0.0005060 0.0004242 0.0014217 0.0029437 0.0007872 0.0014483 -0.0070068 -0.0076898 0.0030172 -0.0080476
0.0001208 0.0058573 0.0007743 0.0004061 0.0011363 0.0021501 0.0016981 0.0006188 0.0004358 -0.0001809 0.0004665 0.0005439 0.0015124 0.0030496 0.0007028 0.0017078 -0.0031964 -0.0081163 0.0016092 -0.0020416
0.0010478 0.0062376 0.0007023 0.0005182 0.0011337 0.0021829 0.0016272 0.0007155 0.0004436 -0.0000777 0.0004379 0.0006568 0.0016042 0.0030807 0.0010849 0.0015226 0.0041682 -0.0139693 -0.0010710 -0.0067307
0.0063479 -0.0059748 0.0007815 0.0005495 0.0011397 0.0022298 0.0015262 0.0008023 0.0004555 -0.0000399 0.0004290 0.0006585 0.0014199 0.0030490 0.0012909 0.0011706 0.0136019 -0.0301817 0.0092626 -0.0269394
0.0004862 0.0010746 0.0008649 0.0004919 0.0011619 0.0022534 0.0014659 0.0008138 0.0004463 -0.0001466 0.0004553 0.0005032 0.0011522 0.0031631 0.0011742 0.0016235 0.0097327 -0.0027434 0.0127778 -0.0244503
-0.0094940 0.0050295 0.0008350 0.0004066 0.0011662 0.0022019 0.0014632 0.0006596 0.0004334 -0.0002922 0.0004826 0.0003767 0.0010467 0.0031527 0.0011396 0.0018519 0.0084924 0.0010480 0.0007725 -0.0000979
-0.0139619 0.0082106 0.0008102 0.0003826 0.0011595 0.0021659 0.0015765 0.0005941 0.0004369 -0.0003280 0.0004832 0.0003518 0.0012288 0.0028510 0.0010013 0.0015382 0.0006249 0.0007671 -0.0002665 0.0005492
-0.0067485 0.0024022 0.0008021 0.0004100 0.0011592 0.0021852 0.0016480 0.0005940 0.0004486 -0.0002981 0.0004610 0.0004061 0.0014601 0.0027019 0.0008848 0.0017126 -0.0094891 0.0143627 0.0012925 0.0127991
0.0064877 -0.0138385 0.0007630 0.0004191 0.0011650 0.0022211 0.0016720 0.0005456 0.0004507 -0.0002386 0.0004362 0.0004899 0.0015203 0.0027519 0.0008016 0.0019691 -0.0063799 0.0118585 -0.0016356 0.0167718
0.0040416 -0.0000847 0.0006925 0.0005473 0.0011791 0.0022924 0.0016697 0.0006104 0.0004530 -0.0001629 0.0004212 0.0005689 0.0013899 0.0028111 0.0010035 0.0015762 0.0053434 -0.0054902 -0.0036121 0.0054722
-0.0022775 0.0056806 0.0006832 0.0006156 0.0011808 0.0023456 0.0015663 0.0007058 0.0004529 -0.0000787 0.0004213 0.0006695 0.0012078 0.0029708 0.0014729 0.0010269 0.0207015 -0.0376209 -0.0101308 0.0095658
0.0004101 0.0050719 0.0007461 0.0006140 0.0011732 0.0023498 0.0014431 0.0007717 0.0004433 0.0000198 0.0004141 0.0007835 0.0010460 0.0031568 0.0014910 0.0013347 0.0104963 -0.0166595 -0.0155363 0.0179101
-0.0062049 0.0169508 0.0008003 0.0006263 0.0011767 0.0023556 0.0014351 0.0008127 0.0004313 0.0000055 0.0004300 0.0007466 0.0010028 0.0031479 0.0010377 0.0018194 -0.0043566 -0.0055577 -0.0055504 0.0150796
-0.0246070 0.0260866 0.0008035 0.0004907 0.0011964 0.0023469 0.0016025 0.0005818 0.0004213 -0.0001504 0.0004455 0.0005483 0.0011860 0.0028827 0.0007145 0.0018670 0.0013107 -0.0338553 -0.0003281 0.0052469
-0.0040928 0.0114386 0.0007449 0.0004125 0.0012014 0.0023101 0.0016625 0.0004084 0.0004164 -0.0002629 0.0004054 0.0004774 0.0012974 0.0027381 0.0007293 0.0017888 0.0130663 -0.0458788 0.0010936 -0.0029279
0.0039013 0.0096131 0.0006836 0.0004580 0.0011951 0.0022724 0.0016463 0.0004267 0.0004307 -0.0002900 0.0003634 0.0005297 0.0013458 0.0028297 0.0008730 0.0017809 0.0035668 -0.0131709 0.0050787 -0.0118831
0.0070995 -0.0017806 0.0006211 0.0005040 0.0011907 0.0022523 0.0015877 0.0004713 0.0004433 -0.0002629 0.0003538 0.0005873 0.0013145 0.0028773 0.0011280 0.0017252 0.0007131 -0.0028790 0.0104784 -0.0333482
0.0088251 -0.0061950 0.0007277 0.0004813 0.0011936 0.0022645 0.0014576 0.0005720 0.0004360 -0.0001892 0.0003564 0.0006480 0.0011114 0.0028960 0.0012947 0.0014343 0.0009502 -0.0052379 0.0016999 -0.0126194
0.0027943 0.0029046 0.0008716 0.0004274 0.0012055 0.0023013 0.0014542 0.0005829 0.0004243 -0.0001042 0.0003699 0.0007154 0.0010610 0.0030020 0.0013473 0.0015080 0.0047807 0.0037135 0.0056976 -0.0123675
-0.0060289 -0.0026919 0.0008088 0.0004576 0.0012076 0.0023266 0.0014787 0.0005958 0.0004046 -0.0000135 0.0003628 0.0008249 0.0010703 0.0030803 0.0011937 0.0018484 0.0014821 0.0091368 0.0019469 -0.0045786
-0.0131941 0.0022035 0.0006845 0.0005697 0.0011976 0.0023573 0.0015534 0.0006581 0.0003913 0.0000209 0.0003202 0.0008632 0.0011425 0.0028793 0.0009206 0.0018440 -0.0116771 0.0016716 -0.0139853 0.0159176
-0.0055144 0.0038318 0.0006436 0.0005055 0.0011971 0.0023331 0.0016680 0.0004920 0.0003808 -0.0001003 0.0002964 0.0007362 0.0014571 0.0025169 0.0009701 0.0018045 -0.0102629 -0.0019712 -0.0051094 0.0130443
-0.0029591 0.0026272 0.0006238 0.0003533 0.0011962 0.0022546 0.0016634 0.0002547 0.0003830 -0.0002590 0.0002715 0.0006371 0.0015543 0.0024193 0.0011053 0.0017897 -0.0074601 0.0042343 -0.0044084 0.0159372
0.0018255 0.0046760 0.0005845 0.0003874 0.0011964 0.0022245 0.0016059 0.0002494 0.0004027 -0.0003264 0.0002488 0.0006334 0.0011901 0.0026028 0.0012205 0.0015286 0.0004167 0.0032075 -0.0080810 0.0070407
0.0043198 0.0014617 0.0006648 0.0003396 0.0012009 0.0022160 0.0014964 0.0003169 0.0004059 -0.0003216 0.0002683 0.0006500 0.0009791 0.0027551 0.0014584 0.0013942 0.0086131 -0.0062685 0.0012337 -0.0133003
0.0029906 -0.0028846 0.0007435 0.0002501 0.0012047 0.0022068 0.0014147 0.0003307 0.0003961 -0.0002650 0.0002863 0.0007093 0.0009336 0.0028692 0.0014201 0.0015213 0.0027568 -0.0056807 -0.0014042 -0.0059799
-0.0090695 0.0127855 0.0007133 0.0003338 0.0012056 0.0022239 0.0015015 0.0003199 0.0003752 -0.0001849 0.0003013 0.0007902 0.0009854 0.0028293 0.0010319 0.0016243 0.0000347 -0.0078480 0.0028343 -0.0078730
-0.0335391 0.0280124 0.0006608 0.0003746 0.0011909 0.0022497 0.0015755 0.0003337 0.0003548 -0.0000997 0.0003007 0.0008819 0.0012111 0.0027067 0.0008695 0.0017451 -0.0047125 -0.0046855 0.0024140 0.0011247
-0.0049811 0.0090189 0.0006016 0.0004126 0.0011896 0.0022738 0.0015552 0.0003597 0.0003524 -0.0000515 0.0002442 0.0009442 0.0012543 0.0027024 0.0009033 0.0017045 -0.0084940 0.0013354 -0.0033436 0.0099766
0.0043209 0.0079752 0.0005864 0.0003935 0.0011950 0.0022508 0.0015292 0.0003657 0.0003613 -0.0001562 0.0001966 0.0008500 0.0012991 0.0027093 0.0009163 0.0017152 0.0052090 -0.0110580 -0.0004675 -0.0001942
0.0048654 0.0025845 0.0005557 0.0003250 0.0011761 0.0021323 0.0014521 0.0002589 0.0003774 -0.0003338 0.0001942 0.0007046 0.0012054 0.0027441 0.0011992 0.0016577 0.0064372 -0.0063837 0.0049337 -0.0135473
-0.0010632 0.0090524 0.0006754 0.0002411 0.0011522 0.0020186 0.0013589 0.0002138 0.0003809 -0.0004020 0.0002050 0.0006517 0.0009525 0.0027781 0.0014642 0.0013954 0.0060274 -0.0131399 0.0083815 -0.0128691
-0.0074158 0.0130371 0.0008463 0.0000784 0.0011267 0.0019287 0.0013444 0.0002557 0.0003731 -0.0003658 0.0002214 0.0006649 0.0009738 0.0027530 0.0013959 0.0014490 0.0039137 -0.0080581 0.0122191 -0.0186855
-0.0077977 0.0023648 0.0007959 0.0001007 0.0010683 0.0017976 0.0013870 0.0002360 0.0003660 -0.0002883 0.0002290 0.0007434 0.0010409 0.0028226 0.0010709 0.0018394 0.0044921 -0.0037684 0.0046463 -0.0055904
-0.0113003 0.0077131 0.0006460 0.0003244 0.0010261 0.0017129 0.0014778 0.0002766 0.0003598 -0.0001887 0.0002014 0.0008533 0.0010662 0.0028227 0.0007434 0.0019387 0.0015053 -0.0176996 -0.0032172 0.0076576
-0.0055189 0.0012199 0.0005413 0.0004939 0.0009900 0.0016525 0.0015295 0.0003319 0.0003740 -0.0000503 0.0001728 0.0009584 0.0012797 0.0026768 0.0009887 0.0015409 -0.0010965 -0.0146674 0.0010740 0.0017700
0.0060843 -0.0103402 0.0004846 0.0005772 0.0009472 0.0015668 0.0014301 0.0004424 0.0003970 0.0000454 0.0001471 0.0010208 0.0012506 0.0027799 0.0012975 0.0013640 0.0024107 0.0000056 0.0026922 -0.0030771
0.0045519 0.0060302 0.0005040 0.0005673 0.0009389 0.0015342 0.0013113 0.0004894 0.0004060 -0.0000513 0.0001358 0.0009310 0.0009834 0.0028396 0.0013192 0.0013086 0.0078672 -0.0073034 0.0016641 -0.0103937
0.0057885 -0.0050466 0.0006232 0.0004128 0.0009536 0.0014980 0.0012774 0.0003477 0.0004142 -0.0002137 0.0001675 0.0007810 0.0008604 0.0028056 0.0013861 0.0011908 0.0160741 -0.0290291 0.0059708 -0.0107539
-0.0003444 -0.0105758 0.0006870 0.0002575 0.0009597 0.0014262 0.0012677 0.0002277 0.0004163 -0.0002606 0.0001947 0.0007208 0.0007939 0.0028425 0.0012273 0.0013645 0.0097758 -0.0281062 0.0081632 -0.0187333
-0.0085964 0.0097453 0.0006924 0.0002334 0.0009477 0.0013637 0.0013474 0.0002113 0.0004140 -0.0002340 0.0002037 0.0007523 0.0008969 0.0028190 0.0009026 0.0013627 0.0052349 -0.0283456 0.0032519 -0.0062411
-0.0100003 0.0101048 0.0006240 0.0002887 0.0009378 0.0013440 0.0014777 0.0001808 0.0004059 -0.0001619 0.0001918 0.0008342 0.0011467 0.0027906 0.0007686 0.0014614 -0.0031829 -0.0091461 -0.0017735 0.0114880
-0.0009653 0.0102567 0.0005008 0.0003716 0.0009416 0.0013851 0.0014386 0.0002432 0.0003964 -0.0000758 0.0001562 0.0009187 0.0012468 0.0026690 0.0008073 0.0015716 -0.0038652 -0.0077324 -0.0043783 0.0096161
0.0053184 0.0090450 0.0004959 0.0004321 0.0009489 0.0014395 0.0013758 0.0003729 0.0004110 -0.0000183 0.0001489 0.0009569 0.0011194 0.0027081 0.0009521 0.0014962 0.0066544 -0.0148594 0.0009931 0.0055493
0.0049847 0.0022585 0.0005514 0.0003664 0.0009534 0.0014028 0.0012874 0.0003784 0.0004184 -0.0001104 0.0001538 0.0008539 0.0009720 0.0027825 0.0011356 0.0015810 0.0064503 -0.0048277 0.0013340 0.0067025
0.0016425 0.0007100 0.0006604 0.0002491 0.0009558 0.0013201 0.0011755 0.0003293 0.0004068 -0.0002733 0.0001554 0.0006964 0.0008842 0.0026449 0.0012356 0.0012484 0.0097236 -0.0193099 0.0042759 -0.0072352
-0.0027930 -0.0051931 0.0007732 0.0000767 0.0009562 0.0012841 0.0012250 0.0002159 0.0004083 -0.0003260 0.0001912 0.0006068 0.0010521 0.0024773 0.0010917 0.0012344 0.0082696 -0.0159858 0.0102532 -0.0236305
-0.0036036 -0.0102284 0.0006831 0.0000715 0.0009506 0.0012874 0.0012970 0.0001853 0.0004050 -0.0002970 0.0002021 0.0006241 0.0011598 0.0025365 0.0007775 0.0016973 0.0013711 -0.0002778 0.0051254 -0.0178424
-0.0054720 0.0086940 0.0005601 0.0002059 0.0009344 0.0013088 0.0013553 0.0002790 0.0004028 -0.0002301 0.0001678 0.0006960 0.0011253 0.0025789 0.0006441 0.0016677 -0.0048427 -0.0033216 -0.0019006 -0.0037840
0.0009982 0.0062892 0.0005361 0.0002053 0.0009247 0.0013091 0.0013896 0.0003079 0.0004162 -0.0001656 0.0001607 0.0007619 0.0012326 0.0024995 0.0009604 0.0015157 0.0046240 -0.0106169 -0.0009965 -0.0009119
0.0080123 -0.0110924 0.0005366 0.0001905 0.0009076 0.0012527 0.0013001 0.0003908 0.0004250 -0.0000959 0.0001575 0.0008518 0.0012163 0.0026172 0.0013093 0.0014914 0.0056134 -0.0021965 0.0036407 -0.0089670
0.0067161 -0.0102435 0.0006169 0.0002222 0.0009093 0.0012373 0.0012169 0.0005008 0.0004294 -0.0000584 0.0001740 0.0008366 0.0008825 0.0027739 0.0013102 0.0012984 0.0034527 -0.0020182 0.0059848 -0.0130414
-0.0017489 0.0021778 0.0007053 0.0001562 0.0009357 0.0012427 0.0011850 0.0004284 0.0004267 -0.0001598 0.0002272 0.0006596 0.0007342 0.0027894 0.0011660 0.0013036 0.0000980 0.0012694 0.0005227 0.0129466
-0.0183672 0.0153253 0.0006983 0.0000050 0.0009438 0.0011888 0.0012011 0.0002355 0.0004301 -0.0002943 0.0002511 0.0005147 0.0008826 0.0026532 0.0010937 0.0013356 -0.0044499 0.0018656 -0.0030001 0.0160049
-0.0087341 0.0066650 0.0006853 -0.0000614 0.0009418 0.0011634 0.0013137 0.0001244 0.0004396 -0.0003358 0.0002555 0.0004883 0.0009899 0.0025095 0.0008099 0.0013407 0.0075581 -0.0210484 0.0073534 -0.0150543
-0.0002393 -0.0030080 0.0005440 0.0000595 0.0009409 0.0011827 0.0013515 0.0001856 0.0004412 -0.0003070 0.0002452 0.0005441 0.0011990 0.0024332 0.0005998 0.0016609 0.0017448 -0.0030946 -0.0005935 0.0065945
0.0040335 0.0025703 0.0004801 0.0001213 0.0009396 0.0012187 0.0012642 0.0002508 0.0004472 -0.0002510 0.0002352 0.0006075 0.0012804 0.0023220 0.0008389 0.0014898 0.0014714 -0.0036567 -0.0054223 0.0060825
0.0090157 -0.0022790 0.0005822 0.0000713 0.0009473 0.0012534 0.0012346 0.0002893 0.0004547 -0.0001885 0.0002449 0.0006757 0.0011138 0.0024267 0.0010777 0.0011109 0.0137918 -0.0277296 0.0135748 -0.0256056
0.0072938 -0.0072677 0.0006270 0.0000964 0.0009531 0.0012845 0.0011650 0.0004298 0.0004482 -0.0000947 0.0002660 0.0007534 0.0009409 0.0027013 0.0011502 0.0014220 0.0043466 -0.0072460 0.0096634 -0.0119253
-0.0014558 0.0059668 0.0007092 0.0001165 0.0009460 0.0013234 0.0011137 0.0005617 0.0004278 0.0000093 0.0002816 0.0008151 0.0008364 0.0027746 0.0011607 0.0013279 -0.0000352 -0.0029614 -0.0009740 0.0061082
-0.0144315 0.0140140 0.0008071 0.0000904 0.0009395 0.0013441 0.0012271 0.0005738 0.0004186 0.0000395 0.0002875 0.0007961 0.0010097 0.0026784 0.0009819 0.0011812 0.0058133 -0.0180494 -0.0015071 0.0023916
-0.0029019 -0.0068661 0.0007052 0.0000761 0.0009309 0.0013029 0.0013448 0.0004179 0.0004214 -0.0000838 0.0002785 0.0006612 0.0012004 0.0025307 0.0007316 0.0015758 -0.0038452 -0.0069095 -0.0026276 0.0032748
0.0098350 -0.0153713 0.0005212 0.0000927 0.0009237 0.0012360 0.0013744 0.0003380 0.0004339 -0.0002323 0.0002259 0.0005738 0.0012518 0.0023992 0.0006434 0.0016666 -0.0040945 -0.0044464 -0.0061478 0.0116224
0.0037255 -0.0024822 0.0004841 0.0000632 0.0009246 0.0012237 0.0013183 0.0003656 0.0004540 -0.0002720 0.0002191 0.0005605 0.0012168 0.0023899 0.0010542 0.0014682 0.0076205 -0.0013105 -0.0005249 -0.0060035
0.0029936 -0.0076436 0.0005499 0.0000022 0.0009368 0.0012647 0.0012205 0.0003235 0.0004562 -0.0002480 0.0002572 0.0005643 0.0010021 0.0024601 0.0014343 0.0012504 0.0089014 -0.0009800 0.0024846 -0.0214637
0.0069132 -0.0118489 0.0006514 0.0000023 0.0009587 0.0013266 0.0011999 0.0003660 0.0004438 -0.0001779 0.0002677 0.0006125 0.0007982 0.0025498 0.0013584 0.0011404 0.0016450 0.0017426 0.0033845 -0.0167237
-0.0068671 0.0020178 0.0007333 0.0000216 0.0009677 0.0013916 0.0012364 0.0004818 0.0004293 -0.0000858 0.0002813 0.0006945 0.0007718 0.0026987 0.0011182 0.0013986 -0.0134185 0.0198095 0.0017925 0.0130060
-0.0266746 0.0124518 0.0006415 0.0001178 0.0009600 0.0014237 0.0012977 0.0004616 0.0004150 0.0000037 0.0002899 0.0007711 0.0009705 0.0026150 0.0007366 0.0016111 -0.0205869 0.0136976 0.0023353 0.0114441
-0.0081467 0.0008442 0.0005622 0.0002040 0.0009500 0.0014623 0.0013642 0.0004977 0.0004139 0.0000994 0.0002564 0.0008784 0.0011252 0.0024962 0.0005406 0.0014672 0.0084776 -0.0264861 0.0126301 -0.0295318
-0.0000383 -0.0019511 0.0005710 0.0002359 0.0009526 0.0015113 0.0013227 0.0006243 0.0004233 0.0001050 0.0002108 0.0009106 0.0011484 0.0025605 0.0008580 0.0013503 0.0072911 -0.0101382 -0.0066656 0.0016770
0.0043706 0.0046742 0.0005785 0.0002016 0.0009758 0.0015134 0.0011955 0.0005976 0.0004203 -0.0000272 0.0001954 0.0007673 0.0010984 0.0024410 0.0012793 0.0011980 0.0021581 -0.0003311 -0.0152134 0.0198102
0.0037943 0.0084516 0.0006484 0.0000712 0.0009975 0.0015001 0.0011175 0.0005651 0.0004145 -0.0001482 0.0002400 0.0006348 0.0009490 0.0024199 0.0013358 0.0011365 0.0066851 -0.0163627 0.0011168 0.0059642
-0.0040959 0.0068504 0.0007020 -0.0000036 0.0010040 0.0014994 0.0011416 0.0004921 0.0004140 -0.0001796 0.0002741 0.0006116 0.0008845 0.0024629 0.0012472 0.0011955 0.0029519 -0.0151093 0.0036431 0.0050385
-0.0123586 0.0140000 0.0007645 -0.0000518 0.0009990 0.0015174 0.0012165 0.0004301 0.0004061 -0.0001494 0.0002656 0.0006423 0.0008896 0.0024243 0.0010614 0.0012571 -0.0016685 -0.0047410 -0.0026054 0.0104298
-0.0079422 0.0089787 0.0007562 0.0000172 0.0009873 0.0015480 0.0012830 0.0005168 0.0004029 -0.0000880 0.0002478 0.0007229 0.0011762 0.0023148 0.0007609 0.0016298 -0.0083726 0.0002667 0.0013535 -0.0108641
-0.0018535 -0.0019263 0.0006110 0.0001587 0.0009908 0.0015662 0.0013287 0.0005415 0.0003992 -0.0000212 0.0002136 0.0008161 0.0014207 0.0022062 0.0007090 0.0017810 -0.0067473 -0.0022770 0.0069763 -0.0198874
0.0073919 -0.0099945 0.0005973 0.0002310 0.0009976 0.0015882 0.0012774 0.0006261 0.0003962 0.0000518 0.0001674 0.0009075 0.0012211 0.0023890 0.0009735 0.0015059 0.0012253 -0.0136238 0.0090775 -0.0203146
0.0097718 -0.0107796 0.0006666 0.0002749 0.0009930 0.0016161 0.0011332 0.0008783 0.0003961 0.0001446 0.0001563 0.0010080 0.0009936 0.0026665 0.0012377 0.0017239 0.0049080 0.0020448 0.0061935 -0.0248528
-0.0002247 -0.0064199 0.0006711 0.0002624 0.0009968 0.0016248 0.0010342 0.0008928 0.0003782 0.0001240 0.0001846 0.0009361 0.0008116 0.0026925 0.0014216 0.0016588 0.0063262 0.0033949 0.0021978 -0.0174880
-0.0094941 0.0031061 0.0007028 0.0001964 0.0010050 0.0015930 0.0011230 0.0006931 0.0003684 -0.0000433 0.0002031 0.0007291 0.0007244 0.0024257 0.0012538 0.0013365 0.0024605 -0.0030339 0.0045389 -0.0190222
-0.0140861 0.0097250 0.0007028 0.0001447 0.0010098 0.0015476 0.0012601 0.0005360 0.0003616 -0.0001527 0.0002033 0.0006299 0.0009261 0.0022565 0.0007831 0.0017535 -0.0119329 0.0141328 0.0000074 0.0144806
-0.0110839 0.0053410 0.0005694 0.0001733 0.0010066 0.0015337 0.0013035 0.0004340 0.0003551 -0.0001757 0.0001756 0.0006277 0.0011566 0.0021797 0.0005808 0.0019262 -0.0127046 0.0136980 -0.0002167 0.0182079
0.0003019 0.0037877 0.0005137 0.0001954 0.0010004 0.0015454 0.0013041 0.0004236 0.0003784 -0.0001751 0.0001588 0.0006589 0.0010463 0.0022394 0.0007533 0.0015629 0.0085819 -0.0140755 0.0049305 -0.0093688
0.0016570 0.0002765 0.0004927 0.0002558 0.0009999 0.0015589 0.0012412 0.0004818 0.0003902 -0.0001374 0.0001536 0.0007152 0.0008590 0.0024224 0.0012085 0.0012526 0.0136763 -0.0207335 -0.0040567 -0.0041621
0.0036784 -0.0009848 0.0005881 0.0002309 0.0010052 0.0015598 0.0010840 0.0006004 0.0003857 -0.0000770 0.0001469 0.0007751 0.0007437 0.0025393 0.0015182 0.0012125 0.0038794 -0.0034409 -0.0147093 0.0000259
-0.0009112 0.0087083 0.0007587 0.0001602 0.0010050 0.0015805 0.0010269 0.0007191 0.0003765 -0.0000005 0.0001701 0.0008464 0.0006913 0.0026232 0.0012049 0.0013930 -0.0004841 -0.0086840 0.0007107 -0.0048261
-0.0114213 0.0075348 0.0006786 0.0002361 0.0009998 0.0016176 0.0011538 0.0006680 0.0003518 0.0000974 0.0001996 0.0008984 0.0008915 0.0025146 0.0009256 0.0014140 -0.0008967 -0.0336512 0.0051308 -0.0040215
0.0004526 -0.0009658 0.0005863 0.0002993 0.0010000 0.0016187 0.0012383 0.0005272 0.0003404 0.0000375 0.0001901 0.0008058 0.0010368 0.0023064 0.0006807 0.0015488 -0.0040705 -0.0160672 0.0066129 -0.0193235
0.0023621 0.0054434 0.0005646 0.0002683 0.0009975 0.0015783 0.0012581 0.0004576 0.0003503 -0.0001597 0.0001623 0.0006305 0.0010725 0.0022487 0.0006948 0.0015231 -0.0026538 -0.0083103 -0.0044096 0.0069333
0.0046278 -0.0036270 0.0005141 0.0002049 0.0009992 0.0015306 0.0011868 0.0004329 0.0003699 -0.0002773 0.0001308 0.0005439 0.0010927 0.0022476 0.0011297 0.0012917 0.0046425 -0.0104523 -0.0016731 0.0003227
0.0111337 -0.0184732 0.0006196 0.0001295 0.0010094 0.0015003 0.0010798 0.0004738 0.0003877 -0.0003123 0.0001313 0.0005142 0.0009580 0.0021963 0.0012740 0.0012637 0.0129932 -0.0247439 0.0067006 -0.0106893
0.0019971 0.0009556 0.0007644 0.0000379 0.0010142 0.0014982 0.0010449 0.0005329 0.0003983 -0.0002927 0.0001853 0.0005035 0.0008782 0.0022707 0.0012196 0.0014227 0.0068588 -0.0004388 0.0087047 -0.0132003
-0.0093615 0.0076976 0.0007462 0.0000517 0.0010061 0.0015142 0.0010930 0.0004772 0.0003926 -0.0002386 0.0002093 0.0005452 0.0008781 0.0023763 0.0009848 0.0018037 -0.0010547 0.0183071 -0.0005767 0.0073101
-0.0114292 0.0036777 0.0006545 0.0001496 0.0009982 0.0015357 0.0012453 0.0004266 0.0003768 -0.0001708 0.0001820 0.0006115 0.0009608 0.0022357 0.0006763 0.0018148 -0.0009132 0.0031650 -0.0049918 0.0133247
-0.0038364 0.0040346 0.0005767 0.0002047 0.0009777 0.0015075 0.0013205 0.0004660 0.0003768 -0.0000916 0.0001582 0.0006919 0.0011762 0.0021268 0.0009356 0.0014711 0.0055902 -0.0134991 0.0023090 -0.0037507
-0.0035553 0.0051624 0.0005459 0.0002562 0.0009594 0.0014991 0.0012358 0.0005492 0.0003910 -0.0000164 0.0001343 0.0007338 0.0012675 0.0021459 0.0011288 0.0014856 -0.0012723 0.0045034 0.0019029 -0.0025926
-0.0000491 0.0051648 0.0005958 0.0002523 0.0009573 0.0014997 0.0010959 0.0006281 0.0004076 -0.0001107 0.0001242 0.0006123 0.0010030 0.0022039 0.0012006 0.0012086 -0.0007460 0.0068560 0.0064253 -0.0209830
0.0043268 -0.0062583 0.0006494 0.0001394 0.0009349 0.0013818 0.0010297 0.0005388 0.0004122 -0.0002969 0.0001696 0.0004367 0.0008152 0.0022072 0.0013645 0.0008845 0.0049426 -0.0026765 0.0041790 -0.0060011
-0.0065606 0.0001416 0.0006467 0.0000605 0.0009052 0.0012578 0.0010398 0.0003658 0.0004172 -0.0003411 0.0002221 0.0003495 0.0007632 0.0022109 0.0011092 0.0011813 0.0104733 -0.0198069 0.0000085 0.0023682
-0.0120340 0.0095078 0.0007055 0.0000271 0.0008860 0.0012196 0.0011459 0.0002802 0.0004261 -0.0003054 0.0002333 0.0003673 0.0008169 0.0021749 0.0007300 0.0012318 0.0221772 -0.0560473 0.0027919 -0.0062496
-0.0056522 0.0043107 0.0006366 0.0001131 0.0008712 0.0012250 0.0012265 0.0003225 0.0004268 -0.0002579 0.0002248 0.0004352 0.0010175 0.0020875 0.0005940 0.0013443 0.0030633 -0.0107834 -0.0003272 -0.0005924
0.0036277 0.0024774 0.0004886 0.0002437 0.0008686 0.0012447 0.0011992 0.0003597 0.0004382 -0.0001986 0.0001996 0.0004949 0.0011030 0.0020259 0.0007061 0.0012083 0.0046391 -0.0097744 -0.0043045 0.0022908
0.0109820 -0.0056646 0.0005374 0.0002783 0.0008823 0.0013021 0.0010998 0.0004764 0.0004581 -0.0001115 0.0001950 0.0005556 0.0010213 0.0021321 0.0010039 0.0007279 0.0228661 -0.0500654 0.0014963 0.0018009
0.0073310 -0.0070623 0.0006698 0.0002846 0.0008842 0.0013446 0.0009674 0.0006472 0.0004643 -0.0000591 0.0002095 0.0005634 0.0008597 0.0023745 0.0012162 0.0009639 0.0082755 -0.0089412 -0.0000322 0.0091902
-0.0047460 0.0078327 0.0007710 0.0002829 0.0008113 0.0011737 0.0009028 0.0007176 0.0004753 -0.0001325 0.0002416 0.0004054 0.0007835 0.0022644 0.0010110 0.0010635 0.0047709 -0.0053895 -0.0041078 0.0101215
-0.0108928 0.0121086 0.0008115 0.0002623 0.0007568 0.0009985 0.0010201 0.0005441 0.0005028 -0.0002076 0.0002578 0.0002004 0.0009596 0.0019816 0.0004754 0.0010835 0.0046364 -0.0134053 -0.0022970 0.0040342
-0.0050311 -0.0045373 0.0008221 0.0002955 0.0007093 0.0008852 0.0011030 0.0004387 0.0005340 -0.0001968 0.0002356 0.0001537 0.0010899 0.0018826 0.0001999 0.0010714 -0.0094571 0.0060818 -0.0076124 0.0145919
-0.0000875 -0.0056202 0.0008065 0.0004175 0.0006447 0.0007630 0.0011041 0.0005699 0.0005689 -0.0001399 0.0002035 0.0001792 0.0010126 0.0019348 0.0001885 0.0007317 -0.0181663 0.0105160 -0.0091642 0.0150268
0.0032818 -0.0035561 0.0007454 0.0005436 0.0006723 0.0008121 0.0011027 0.0006195 0.0005964 -0.0000445 0.0001985 0.0002151 0.0009540 0.0020316 0.0005524 0.0005374 0.0024589 0.0029603 -0.0101914 0.0138523
0.0004836 -0.0025244 0.0007764 0.0005227 0.0007232 0.0009376 0.0010168 0.0006267 0.0005967 0.0000386 0.0002236 0.0002814 0.0008194 0.0021410 0.0009779 0.0001585 0.0072882 -0.0016473 -0.0124139 0.0127120
-0.0043223 -0.0004656 0.0008762 0.0004588 0.0007444 0.0010218 0.0010459 0.0006168 0.0005890 0.0000692 0.0002631 0.0002788 0.0006064 0.0021451 0.0009401 -0.0000648 0.0062757 -0.0070041 -0.0051555 -0.0034266
-0.0103339 0.0012651 0.0008964 0.0004296 0.0007467 0.0010079 0.0010888 0.0005723 0.0005926 -0.0000266 0.0002996 0.0001699 0.0005726 0.0021211 0.0005897 0.0002900 -0.0046481 0.0074301 -0.0048790 0.0204371
-0.0244101 0.0196733 0.0008019 0.0003643 0.0007381 0.0009394 0.0011164 0.0004213 0.0005931 -0.0001399 0.0003066 0.0000717 0.0007477 0.0019360 0.0002320 0.0003330 -0.0175241 0.0118096 -0.0022190 0.0160040
-0.0090684 0.0086077 0.0006827 0.0003653 0.0007265 0.0009046 0.0011895 0.0003219 0.0006097 -0.0001730 0.0002983 0.0000707 0.0009578 0.0016829 0.0001280 -0.0000081 0.0027218 -0.0129463 0.0014706 -0.0077009
0.0021248 -0.0058120 0.0006712 0.0003724 0.0007014 0.0008698 0.0012096 0.0003697 0.0006303 -0.0001551 0.0002848 0.0001499 0.0010405 0.0018294 0.0003799 -0.0000476 0.0022140 -0.0056583 -0.0157707 0.0201897
0.0062339 -0.0034994 0.0007461 0.0003071 0.0006640 0.0007882 0.0011013 0.0004954 0.0006388 -0.0000984 0.0002784 0.0002356 0.0008999 0.0020201 0.0006772 0.0000188 -0.0013854 -0.0031903 -0.0155749 0.0207574
0.0084059 -0.0026369 0.0008406 0.0002605 0.0006652 0.0007690 0.0010366 0.0005361 0.0006427 -0.0000423 0.0003100 0.0002944 0.0007239 0.0021111 0.0006255 -0.0000025 0.0058858 -0.0154252 -0.0040724 0.0161567
0.0049483 -0.0101199 0.0008861 0.0002911 0.0007107 0.0008756 0.0010783 0.0005457 0.0006377 0.0000223 0.0003395 0.0002969 0.0008025 0.0020087 0.0005338 0.0000123 0.0081721 -0.0237498 -0.0007780 0.0108071
-0.0032804 0.0005516 0.0008901 0.0002872 0.0007376 0.0009358 0.0011184 0.0005018 0.0006243 -0.0000563 0.0003366 0.0002018 0.0008900 0.0017966 0.0003662 0.0000304 -0.0002257 -0.0133950 0.0009376 -0.0107643
-0.0014854 0.0075163 0.0007877 0.0002956 0.0007198 0.0008703 0.0012217 0.0003559 0.0006238 -0.0002039 0.0003278 0.0001268 0.0010810 0.0017519 0.0002283 0.0000498 -0.0111489 0.0031778 -0.0006797 -0.0163136
0.0045036 -0.0070659 0.0006826 0.0003379 0.0006943 0.0008079 0.0013076 0.0002221 0.0006493 -0.0002424 0.0003197 0.0001180 0.0011950 0.0017641 0.0004625 -0.0000710 -0.0034961 -0.0070584 0.0002724 -0.0170486
0.0076991 -0.0107600 0.0007807 0.0002897 0.0006806 0.0007852 0.0012294 0.0002644 0.0006611 -0.0002087 0.0003154 0.0001415 0.0010495 0.0018011 0.0008001 -0.0002964 0.0053202 -0.0104897 0.0087826 -0.0281421
0.0034710 -0.0014961 0.0008666 0.0002321 0.0006862 0.0007965 0.0011043 0.0004677 0.0006600 -0.0001527 0.0003418 0.0002096 0.0008423 0.0020806 0.0008812 0.0000708 0.0042548 0.0076791 0.0024136 -0.0103715
-0.0093932 -0.0013945 0.0008668 0.0002876 0.0006876 0.0007879 0.0010488 0.0005607 0.0006580 -0.0000940 0.0003603 0.0003021 0.0006933 0.0022618 0.0007627 0.0004477 0.0042978 0.0069411 -0.0041269 0.0036661
-0.0381771 0.0206640 0.0008303 0.0003915 0.0006608 0.0007463 0.0011989 0.0005336 0.0006570 -0.0000088 0.0003571 0.0003784 0.0006795 0.0021692 0.0004637 0.0003689 0.0066224 -0.0131956 0.0019591 -0.0085574
-0.0143030 0.0025569 0.0007534 0.0004555 0.0006623 0.0007684 0.0013342 0.0004239 0.0006654 -0.0000425 0.0003608 0.0002905 0.0008504 0.0019806 0.0003212 0.0003869 -0.0099055 -0.0008772 0.0018267 0.0091740
0.0028316 -0.0103931 0.0007168 0.0004621 0.0006539 0.0007492 0.0013206 0.0003273 0.0006642 -0.0001662 0.0003383 0.0001601 0.0011025 0.0017508 0.0002834 0.0003493 -0.0204296 0.0093281 0.0023948 0.0094886
-0.0001682 0.0051639 0.0007723 0.0005501 0.0006155 0.0006585 0.0012259 0.0004788 0.0006799 -0.0001532 0.0003235 0.0001309 0.0009622 0.0018076 0.0003993 -0.0003026 0.0038793 -0.0099572 0.0051946 -0.0191335
-0.0021673 0.0079042 0.0008556 0.0006921 0.0006000 0.0006259 0.0011533 0.0006181 0.0006998 -0.0000736 0.0003444 0.0001409 0.0007937 0.0019272 0.0007461 -0.0008360 0.0161556 -0.0275260 -0.0095033 0.0065037
0.0060076 -0.0073037 0.0009087 0.0007144 0.0005676 0.0005686 0.0011171 0.0006769 0.0007000 0.0000262 0.0003418 0.0001623 0.0007039 0.0019899 0.0004899 -0.0006791 0.0110650 -0.0160942 -0.0103353 0.0108101
0.0027963 -0.0042980 0.0009869 0.0008896 0.0005040 0.0004543 0.0011199 0.0008844 0.0007063 0.0001337 0.0003630 0.0002283 0.0006922 0.0021181 0.0000739 -0.0008000 -0.0000087 -0.0077734 0.0028139 -0.0185171
-0.0140115 0.0075121 0.0010114 0.0010546 0.0004779 0.0004292 0.0012151 0.0009025 0.0007165 0.0001412 0.0003975 0.0002744 0.0008663 0.0021228 0.0001087 -0.0009257 -0.0155487 -0.0037960 0.0100022 -0.0257018
-0.0028304 0.0017971 0.0009494 0.0011186 0.0004747 0.0004240 0.0012281 0.0007880 0.0007201 0.0000657 0.0003847 0.0002159 0.0010246 0.0019253 -0.0000242 -0.0004735 -0.0099770 -0.0048593 0.0095378 -0.0176557
0.0025013 0.0044591 0.0009286 0.0011553 0.0004762 0.0004145 0.0012439 0.0007511 0.0007281 -0.0000109 0.0003537 0.0001565 0.0011175 0.0018025 -0.0000215 -0.0001835 0.0070838 -0.0271414 0.0064675 -0.0141002
0.0006567 0.0006671 0.0009177 0.0011406 0.0004565 0.0003892 0.0012346 0.0007620 0.0007446 -0.0000144 0.0003481 0.0001750 0.0010554 0.0019316 0.0004917 -0.0006027 0.0054983 -0.0075438 0.0022649 -0.0165535
-0.0048129 0.0096945 0.0010460 0.0011893 0.0004299 0.0003299 0.0011432 0.0008700 0.0007578 0.0000617 0.0003805 0.0002454 0.0008561 0.0021045 0.0007793 -0.0010128 0.0043396 -0.0030231 0.0051055 -0.0196888
-0.0087209 0.0091783 0.0011632 0.0012432 0.0004098 0.0002682 0.0011134 0.0009574 0.0007638 0.0001477 0.0004075 0.0003360 0.0008366 0.0021955 0.0005579 -0.0005509 0.0080613 -0.0063546 0.0068653 -0.0139817
-0.0000725 -0.0209601 0.0010859 0.0013619 0.0004123 0.0002699 0.0011603 0.0010078 0.0007372 0.0001825 0.0004099 0.0003918 0.0009294 0.0022321 0.0002078 -0.0001294 0.0008306 0.0097727 -0.0016700 0.0040944
-0.0046808 -0.0067613 0.0011218 0.0017762 0.0004284 0.0003564 0.0013481 0.0010250 0.0007699 0.0002714 0.0003947 0.0003207 0.0010163 0.0020205 -0.0000868 -0.0003895 -0.0055501 0.0066758 -0.0033218 0.0030826
-0.0025844 -0.0012219 0.0010379 0.0016560 0.0004871 0.0005003 0.0014560 0.0008025 0.0007821 0.0001112 0.0003895 0.0002348 0.0011137 0.0018145 0.0001749 -0.0006521 0.0001556 0.0011829 0.0094527 -0.0276523
0.0096208 -0.0222609 0.0008423 0.0013165 0.0005709 0.0006296 0.0013425 0.0007658 0.0007548 -0.0000739 0.0003792 0.0002103 0.0010707 0.0019340 0.0004635 -0.0005614 0.0004958 0.0091608 -0.0054354 0.0082058
0.0037799 -0.0099923 0.0010304 0.0016905 0.0004671 0.0004765 0.0011959 0.0011143 0.0008005 0.0000614 0.0004050 0.0002406 0.0008521 0.0021035 0.0005398 -0.0005857 0.0065451 -0.0054535 -0.0101002 0.0175782
