-0.0000000 -0.0000000 -0.0000000 -0.0000000 -0.0000000 -0.0000000 -0.0000000 -0.0000000 -0.0000000 -0.0000000 -0.0000000 -0.0000000 -0.0000000 -0.0000000 -0.0000000 -0.0000000 -0.0000000 -0.0000000 -0.0000000 -0.0000000
-0.0000000 -0.0000000 -0.0000000 -0.0000000 -0.0000000 -0.0000000 -0.0000000 -0.0000000 -0.0000000 -0.0000000 -0.0000000 -0.0000000 -0.0000000 -0.0000000 -0.0000000 -0.0000000 -0.0000000 -0.0000000 -0.0000000 -0.0000000
0.0022558 0.0027866 0.0017353 -0.0017866 0.0010837 0.0053746 -0.0001374 0.0038143 -0.0000181 -0.0000287 -0.0000069 0.0000340 -0.0000251 0.0001222 -0.0000056 0.0000554 -0.0000081 0.0000527 -0.0000025 0.0000333
-0.0059463 0.0096010 0.0011246 -0.0027480 -0.0007772 0.0018391 -0.0000405 0.0046571 -0.0000347 -0.0000386 -0.0000145 0.0000781 -0.0000279 0.0001915 -0.0000006 0.0001014 -0.0000071 0.0001195 0.0000126 0.0000779
-0.0039947 0.0039665 -0.0071128 0.0162628 -0.0006452 0.0030753 -0.0000294 0.0093506 -0.0000489 -0.0000300 -0.0000367 0.0000496 -0.0000279 0.0000562 -0.0000140 -0.0000766 -0.0000096 -0.0000112 -0.0000005 -0.0000131
0.0049173 -0.0094558 -0.0105607 0.0221816 0.0012788 0.0048418 -0.0044873 0.0145730 -0.0000619 -0.0002007 -0.0000644 -0.0001408 -0.0000940 -0.0002233 -0.0000409 -0.0003607 -0.0000204 -0.0002531 -0.0000417 -0.0001687
0.0068408 -0.0145804 -0.0092551 0.0094988 -0.0036403 0.0052812 -0.0087629 0.0124028 -0.0000665 -0.0003396 -0.0000733 -0.0000902 -0.0001366 -0.0001604 -0.0000292 -0.0003493 -0.0000209 -0.0001647 -0.0000225 -0.0001259
0.0157582 -0.0404997 0.0097443 -0.0332554 0.0061546 -0.0157192 0.0007872 -0.0029246 -0.0000735 -0.0002664 -0.0000649 0.0000868 -0.0000956 -0.0000346 -0.0000111 -0.0002479 -0.0000214 -0.0000063 0.0000093 -0.0000163
0.0052968 -0.0180001 0.0010013 -0.0072510 0.0035395 -0.0036482 0.0121383 -0.0319786 -0.0000689 -0.0001385 -0.0000486 0.0002594 -0.0000272 0.0000920 0.0000080 -0.0000889 -0.0000179 0.0001713 0.0000201 0.0001178
-0.0024281 0.0090969 -0.0083408 0.0109875 -0.0010570 -0.0028108 -0.0060240 -0.0005870 -0.0000503 -0.0001100 -0.0000385 0.0001582 -0.0000145 -0.0000023 0.0000120 -0.0001589 -0.0000276 -0.0000008 0.0000037 0.0000310
0.0021264 0.0065703 -0.0013676 0.0065279 -0.0002620 -0.0023510 -0.0052814 0.0074015 -0.0000489 -0.0003141 -0.0000431 -0.0000822 -0.0000121 -0.0002362 0.0000145 -0.0002769 -0.0000340 -0.0002524 -0.0000236 -0.0000946
0.0020708 0.0001480 -0.0020181 0.0068651 0.0000480 -0.0016945 -0.0060350 0.0082151 -0.0000601 -0.0004044 -0.0000311 -0.0000447 0.0000807 -0.0002455 0.0000512 -0.0001177 -0.0000268 -0.0001382 -0.0000581 -0.0000054
0.0013467 -0.0011606 -0.0024445 0.0059321 0.0002934 -0.0010323 -0.0134728 0.0050258 -0.0000773 -0.0004002 0.0000717 0.0001623 0.0002017 0.0001152 0.0001607 0.0002777 -0.0000282 -0.0000091 -0.0000879 0.0001532
0.0085658 -0.0186888 -0.0008802 0.0080774 -0.0022388 0.0054674 -0.0023292 -0.0105047 -0.0000846 -0.0003035 0.0001484 0.0004307 0.0002182 0.0004962 0.0002020 0.0004826 -0.0000276 0.0000528 -0.0000835 0.0001887
0.0028697 -0.0152269 -0.0076910 0.0075406 -0.0024816 0.0015225 0.0021546 -0.0067999 -0.0000853 -0.0003487 0.0001121 0.0002168 0.0001394 0.0002404 0.0001342 0.0001515 -0.0000340 -0.0001756 -0.0000948 0.0000077
0.0061430 -0.0226037 -0.0006070 0.0027918 0.0044092 -0.0062976 0.0003602 0.0095258 -0.0001046 -0.0006045 0.0000646 -0.0001064 0.0000863 -0.0001124 0.0000940 -0.0000758 -0.0000499 -0.0003390 -0.0000953 -0.0000657
0.0021998 -0.0109204 -0.0005749 0.0147547 0.0103218 -0.0225461 0.0018083 0.0073979 -0.0001285 -0.0006474 0.0000426 -0.0000994 0.0000284 -0.0001628 0.0000605 -0.0000740 -0.0000592 -0.0002145 -0.0000798 0.0000235
0.0000483 -0.0057259 -0.0063547 0.0135413 -0.0046085 0.0036879 0.0006962 0.0010859 -0.0001312 -0.0005001 0.0000326 -0.0000213 -0.0000523 -0.0000738 0.0000175 -0.0000072 -0.0000644 -0.0000788 -0.0000177 0.0001154
0.0166236 -0.0470299 0.0058143 -0.0208841 -0.0044688 0.0078349 0.0080188 -0.0124726 -0.0001001 -0.0001292 0.0000083 0.0001000 -0.0001152 -0.0000019 -0.0000340 -0.0000285 -0.0000761 -0.0001154 0.0000378 0.0001275
0.0143454 -0.0340592 -0.0002402 0.0032765 0.0054516 -0.0109041 0.0111616 -0.0191269 -0.0000641 0.0000878 -0.0000478 -0.0001254 -0.0001170 -0.0002710 -0.0000934 -0.0001844 -0.0001160 -0.0004162 0.0000571 -0.0000017
-0.0002856 0.0081582 0.0008060 0.0059297 0.0035842 -0.0165982 0.0011201 -0.0038316 -0.0000536 0.0000900 -0.0001124 -0.0003249 -0.0000965 -0.0003840 -0.0001280 -0.0001721 -0.0001476 -0.0004801 0.0000695 -0.0000437
-0.0022856 0.0049443 0.0024207 -0.0034904 -0.0028050 -0.0151788 -0.0013051 -0.0067254 -0.0000459 0.0001928 -0.0001531 -0.0002032 -0.0001183 -0.0001895 -0.0001409 -0.0000466 -0.0001458 -0.0003241 0.0000580 -0.0000254
0.0227989 -0.0558229 -0.0080321 0.0096274 0.0053425 -0.0157645 -0.0052964 -0.0009439 -0.0000448 0.0003051 -0.0001658 -0.0001214 -0.0000674 -0.0000587 -0.0001540 0.0000751 -0.0001394 -0.0001635 0.0000084 0.0000360
0.0141168 -0.0218323 -0.0074822 0.0149343 0.0018695 -0.0037918 0.0017160 -0.0103775 -0.0000722 0.0003464 -0.0001721 -0.0001289 -0.0000156 -0.0000024 -0.0001676 -0.0000036 -0.0001453 -0.0002177 -0.0000662 0.0000175
0.0043005 -0.0073034 -0.0045559 0.0163303 -0.0033220 0.0002375 0.0039014 -0.0093059 -0.0000997 0.0001263 -0.0001952 -0.0003792 -0.0000789 -0.0001080 -0.0001809 -0.0001726 -0.0001594 -0.0003971 -0.0000848 -0.0001420
0.0031386 -0.0239119 -0.0055617 0.0092753 -0.0059070 0.0072885 0.0066132 -0.0130403 -0.0001241 -0.0001413 -0.0001922 -0.0004944 -0.0000988 -0.0001315 -0.0001708 -0.0001235 -0.0001533 -0.0003382 -0.0000811 -0.0001691
0.0033403 -0.0130686 0.0040403 -0.0120878 -0.0089730 0.0198952 0.0030519 -0.0063557 -0.0001472 -0.0002433 -0.0001684 -0.0003341 -0.0000739 0.0000174 -0.0001512 0.0000174 -0.0001384 -0.0001998 -0.0000899 -0.0000668
-0.0090631 0.0138473 0.0143949 -0.0281851 -0.0006462 0.0058699 -0.0026164 0.0090654 -0.0001701 -0.0003623 -0.0001197 -0.0000979 -0.0000777 0.0002435 -0.0001206 0.0002060 -0.0001375 -0.0000253 -0.0000853 0.0000765
-0.0065636 0.0125090 -0.0002730 0.0036713 0.0010355 0.0026870 -0.0029072 0.0050683 -0.0001995 -0.0005153 -0.0000812 -0.0001120 -0.0001254 0.0002056 -0.0001157 0.0001070 -0.0001479 -0.0002061 -0.0000994 -0.0000285
0.0022111 -0.0056333 -0.0025525 0.0105372 0.0001063 0.0037980 0.0064805 -0.0144181 -0.0002207 -0.0007754 -0.0000755 -0.0003241 -0.0001459 -0.0000208 -0.0001373 -0.0000943 -0.0001623 -0.0004633 -0.0000801 -0.0002243
-0.0006019 -0.0033288 -0.0001390 0.0067375 0.0121545 -0.0227677 0.0070927 -0.0085218 -0.0002303 -0.0008951 -0.0000841 -0.0002920 -0.0000799 -0.0001303 -0.0001416 -0.0001219 -0.0001644 -0.0003781 -0.0000441 -0.0002156
-0.0072313 0.0140503 -0.0077870 0.0137840 0.0071237 -0.0064557 0.0040323 -0.0100770 -0.0002358 -0.0007154 -0.0001404 -0.0001964 -0.0000891 -0.0002524 -0.0001621 -0.0005287 -0.0001644 -0.0002299 -0.0000703 -0.0000727
-0.0074203 0.0189784 -0.0067317 0.0121267 0.0039367 -0.0052640 0.0219974 -0.0589063 -0.0002380 -0.0002440 -0.0002970 -0.0000019 -0.0001875 -0.0004094 -0.0002667 -0.0011630 -0.0001440 -0.0000183 -0.0001080 -0.0000257
-0.0083087 0.0160586 0.0003600 0.0026784 -0.0030615 -0.0054346 0.0056283 -0.0162211 -0.0000613 0.0006185 -0.0005072 -0.0000347 -0.0002610 -0.0007063 -0.0004170 -0.0017897 -0.0001156 -0.0000406 -0.0001895 -0.0001175
-0.0046454 0.0110998 -0.0027539 0.0086842 -0.0033586 0.0003633 -0.0058937 0.0104884 0.0001370 0.0010747 -0.0006478 -0.0002628 -0.0002811 -0.0007939 -0.0005114 -0.0022170 -0.0001254 -0.0000701 -0.0002736 -0.0000272
0.0007793 0.0051429 -0.0093426 0.0210458 0.0029505 -0.0068090 -0.0094529 0.0195926 0.0001660 0.0010529 -0.0006876 -0.0002859 -0.0003224 -0.0006174 -0.0005447 -0.0022699 -0.0001438 0.0000755 -0.0003021 0.0001680
0.0014834 -0.0019027 -0.0108224 0.0136917 -0.0040512 0.0064886 -0.0077285 0.0170293 0.0001766 0.0011740 -0.0006845 -0.0002055 -0.0003663 -0.0004931 -0.0005312 -0.0021548 -0.0001429 0.0001991 -0.0002615 0.0003338
-0.0037231 0.0112934 -0.0051313 0.0094226 -0.0014517 0.0086391 -0.0028566 0.0073533 0.0001866 0.0013287 -0.0006910 -0.0001015 -0.0004046 -0.0004733 -0.0005203 -0.0021294 -0.0001445 0.0000963 -0.0002376 0.0003387
-0.0103979 0.0183252 -0.0027918 0.0124363 -0.0006602 0.0059683 -0.0013914 -0.0048900 0.0001836 0.0012101 -0.0007037 -0.0003363 -0.0004468 -0.0007419 -0.0005058 -0.0022205 -0.0001765 -0.0001537 -0.0002012 0.0003005
-0.0084856 0.0067311 -0.0079142 0.0209237 -0.0030912 0.0068668 -0.0045340 -0.0061227 0.0001813 0.0010366 -0.0006778 -0.0006321 -0.0004835 -0.0009296 -0.0003723 -0.0018472 -0.0001514 0.0000032 -0.0001244 0.0003169
0.0038626 -0.0066752 -0.0088263 0.0159793 0.0018002 -0.0037781 -0.0035476 0.0063880 0.0001914 0.0012028 -0.0006263 -0.0005573 -0.0005183 -0.0008141 -0.0002847 -0.0014440 -0.0001058 0.0002497 -0.0001196 0.0003542
0.0069188 -0.0101974 0.0063067 -0.0277846 -0.0063254 0.0066898 0.0000317 0.0013746 0.0002069 0.0014658 -0.0006099 -0.0003131 -0.0004183 -0.0006910 -0.0003290 -0.0013163 -0.0001253 0.0003803 -0.0001077 0.0005128
0.0030295 -0.0083271 0.0112941 -0.0296619 -0.0114825 0.0231138 -0.0087849 0.0107106 0.0002121 0.0015820 -0.0006329 -0.0002975 -0.0003661 -0.0007052 -0.0003542 -0.0013410 -0.0001468 0.0002886 -0.0001270 0.0005048
-0.0043623 0.0036409 0.0038800 -0.0145910 -0.0071478 0.0104938 -0.0041594 0.0045195 0.0001932 0.0013738 -0.0006686 -0.0005006 -0.0003893 -0.0008544 -0.0003653 -0.0014441 -0.0001621 0.0001385 -0.0001461 0.0003815
-0.0157465 0.0074960 -0.0036479 -0.0058722 -0.0066642 0.0015863 0.0123897 -0.0239404 0.0001749 0.0012287 -0.0006741 -0.0004514 -0.0003305 -0.0008335 -0.0003827 -0.0013766 -0.0001663 0.0002575 -0.0001774 0.0004282
0.0055637 -0.0182258 -0.0061627 0.0118937 -0.0103783 0.0246781 0.0002688 -0.0055297 0.0001714 0.0013138 -0.0006685 -0.0002549 -0.0003291 -0.0006449 -0.0003950 -0.0012764 -0.0001665 0.0003717 -0.0002299 0.0006108
0.0052175 0.0027314 -0.0098351 0.0169940 -0.0108433 0.0234624 -0.0079005 -0.0058908 0.0001639 0.0012612 -0.0006492 -0.0001430 -0.0004035 -0.0004431 -0.0003766 -0.0011126 -0.0001571 0.0004643 -0.0002000 0.0007611
-0.0033455 0.0127258 0.0022157 -0.0107271 -0.0055265 0.0058824 0.0153596 -0.0472985 0.0001790 0.0011592 -0.0005819 -0.0001728 -0.0004032 -0.0005579 -0.0003248 -0.0011591 -0.0001514 0.0003220 -0.0002058 0.0006643
0.0025990 -0.0084160 0.0002495 0.0041497 0.0003207 -0.0028519 -0.0026700 0.0047793 0.0001912 0.0007470 -0.0001353 0.0000481 -0.0000448 -0.0001538 0.0001658 0.0002236 -0.0000473 0.0005228 -0.0001746 0.0008555
0.0004201 -0.0088366 -0.0046411 0.0130433 0.0070968 -0.0198015 -0.0109096 0.0113803 0.0002461 0.0008675 0.0004367 0.0008645 0.0002768 0.0006713 0.0005276 0.0016275 0.0000555 0.0009509 -0.0001317 0.0011390
-0.0067874 0.0025101 -0.0002386 -0.0087209 0.0002808 -0.0096429 -0.0011646 -0.0163369 0.0003480 0.0017030 0.0005870 0.0014527 0.0002683 0.0011229 0.0004079 0.0016333 0.0000229 0.0009248 -0.0000905 0.0010641
0.0000524 -0.0031992 0.0037763 -0.0145267 -0.0061592 0.0079601 -0.0006151 0.0023820 0.0003881 0.0021651 0.0005427 0.0015133 0.0002903 0.0015510 0.0003323 0.0017288 0.0000017 0.0008472 -0.0000007 0.0009473
0.0046118 -0.0109186 0.0012382 -0.0062346 -0.0109804 0.0184065 -0.0011975 0.0089549 0.0003838 0.0021525 0.0004801 0.0011830 0.0003602 0.0014877 0.0002581 0.0016252 -0.0000272 0.0005321 -0.0000327 0.0006238
-0.0043537 -0.0034925 -0.0071559 0.0000025 -0.0118184 0.0132688 -0.0000373 0.0055365 0.0003487 0.0019059 0.0004208 0.0008929 0.0003638 0.0013728 0.0001907 0.0016214 -0.0001046 0.0002499 -0.0001728 0.0003712
-0.0162492 0.0014023 0.0029716 -0.0150061 -0.0029848 -0.0026965 0.0033127 -0.0046433 0.0003045 0.0017581 0.0003959 0.0009641 0.0003499 0.0015171 0.0001623 0.0017903 -0.0001785 0.0002580 -0.0003277 0.0003402
-0.0013430 -0.0169464 0.0080772 -0.0204909 -0.0002049 -0.0020038 0.0029828 -0.0147226 0.0002675 0.0016581 0.0003785 0.0010522 0.0003727 0.0016310 0.0001530 0.0018817 -0.0002127 0.0003193 -0.0004472 0.0003973
0.0068272 -0.0111906 -0.0035189 0.0034072 0.0016273 -0.0022464 0.0004500 -0.0051510 0.0002247 0.0016358 0.0003584 0.0010752 0.0003652 0.0016645 0.0001323 0.0017912 -0.0002340 0.0002120 -0.0005516 0.0003514
0.0075586 -0.0098295 -0.0015131 0.0017870 -0.0002070 0.0053213 0.0039361 -0.0097447 0.0001881 0.0014589 0.0003392 0.0009259 0.0002986 0.0016239 0.0001041 0.0016426 -0.0002607 0.0000429 -0.0006084 0.0002003
0.0110579 -0.0187358 0.0086706 -0.0199463 -0.0070772 0.0075403 -0.0016120 0.0012551 0.0001576 0.0012635 0.0003410 0.0008877 0.0002930 0.0016897 0.0001078 0.0016718 -0.0002720 0.0001019 -0.0006147 0.0001976
0.0095582 -0.0215427 0.0107712 -0.0146033 -0.0101852 0.0139864 -0.0028132 0.0089471 0.0001263 0.0012541 0.0003387 0.0010202 0.0003058 0.0018823 0.0001139 0.0017532 -0.0002843 0.0001956 -0.0006318 0.0002839
-0.0023398 -0.0019163 0.0017152 0.0077243 0.0002152 0.0017367 0.0007800 -0.0001655 0.0001024 0.0012820 0.0003338 0.0011736 0.0003354 0.0020795 0.0000979 0.0018424 -0.0003021 0.0002984 -0.0006384 0.0003407
-0.0055606 0.0159231 -0.0000410 0.0010776 0.0023954 -0.0070024 0.0002393 -0.0076196 0.0000882 0.0012236 0.0003259 0.0010721 0.0003263 0.0019359 0.0000817 0.0016868 -0.0003146 0.0001015 -0.0006028 0.0001783
0.0018970 0.0016120 0.0073817 -0.0248938 -0.0062423 0.0096126 0.0061518 -0.0131633 0.0000730 0.0010829 0.0003128 0.0009224 0.0002636 0.0018148 0.0000699 0.0015580 -0.0003299 -0.0000748 -0.0005962 0.0000679
0.0087364 -0.0161834 -0.0035671 -0.0023068 -0.0041438 -0.0007614 0.0012431 0.0054073 0.0000536 0.0010454 0.0003051 0.0010409 0.0003503 0.0018403 0.0000667 0.0016287 -0.0003364 0.0000230 -0.0006121 0.0001253
0.0003085 -0.0006175 0.0006634 -0.0062924 -0.0013223 -0.0054471 -0.0019383 0.0077131 0.0000355 0.0010868 0.0002994 0.0011948 0.0004352 0.0019049 0.0000674 0.0017020 -0.0003355 0.0001292 -0.0006112 0.0001995
-0.0006136 0.0028016 0.0019540 -0.0056604 -0.0015008 0.0044843 0.0002702 -0.0024243 0.0000288 0.0011547 0.0002880 0.0012501 0.0004253 0.0018615 0.0000626 0.0016085 -0.0003403 0.0000159 -0.0006316 0.0001245
0.0033227 -0.0018390 -0.0006204 0.0004887 -0.0061587 0.0164279 0.0008712 -0.0003944 0.0000241 0.0010344 0.0002816 0.0010691 0.0004277 0.0016260 0.0000627 0.0014144 -0.0003388 -0.0002137 -0.0006561 -0.0000601
0.0086133 -0.0125547 -0.0006668 0.0021081 -0.0070366 0.0147765 0.0034871 -0.0057332 0.0000111 0.0008870 0.0002817 0.0010122 0.0003958 0.0016815 0.0000633 0.0014317 -0.0003365 -0.0001697 -0.0006784 -0.0000326
0.0075643 -0.0166522 0.0039732 -0.0016143 -0.0008875 0.0060833 0.0058575 -0.0112054 -0.0000021 0.0008918 0.0002867 0.0011206 0.0003069 0.0018708 0.0000642 0.0015154 -0.0003403 -0.0000582 -0.0006751 0.0000253
-0.0041788 0.0034680 0.0049015 -0.0065050 -0.0060285 0.0099940 0.0015351 0.0005345 -0.0000142 0.0009288 0.0002864 0.0012462 0.0002692 0.0020136 0.0000724 0.0016075 -0.0003426 0.0000752 -0.0006745 0.0000796
-0.0076346 0.0090287 0.0085615 -0.0065881 -0.0009467 0.0024904 -0.0012622 0.0111774 -0.0000256 0.0008943 0.0002629 0.0011160 0.0002377 0.0018664 0.0000603 0.0014459 -0.0003533 -0.0001211 -0.0007098 -0.0000367
-0.0039599 0.0080838 0.0067150 -0.0045647 0.0033494 -0.0010703 0.0012741 0.0068702 -0.0000390 0.0007277 0.0002556 0.0008752 0.0002796 0.0015670 0.0000519 0.0012474 -0.0003711 -0.0003613 -0.0007378 -0.0002110
-0.0080017 0.0184322 -0.0017038 0.0000709 -0.0025034 0.0029865 -0.0048833 0.0052204 -0.0000491 0.0006355 0.0002595 0.0009023 0.0003374 0.0015223 0.0000543 0.0012831 -0.0003738 -0.0002631 -0.0006946 -0.0002401
-0.0070448 0.0049497 -0.0045729 0.0089245 0.0057041 -0.0143646 -0.0033596 -0.0037591 -0.0000581 0.0006478 0.0002562 0.0009977 0.0002973 0.0016521 0.0000491 0.0013622 -0.0003736 -0.0001265 -0.0006753 -0.0001498
-0.0008343 -0.0076909 -0.0019329 0.0022102 0.0159421 -0.0401656 0.0034682 -0.0120209 -0.0000700 0.0007216 0.0002524 0.0011577 0.0003326 0.0016739 0.0000548 0.0013271 -0.0003744 -0.0001417 -0.0006964 -0.0001842
-0.0068646 0.0039639 0.0025361 -0.0095617 0.0007992 -0.0064263 0.0037053 -0.0162900 -0.0000654 0.0006372 0.0002386 0.0010252 0.0003729 0.0013813 0.0000486 0.0011339 -0.0003910 -0.0003890 -0.0006958 -0.0004152
0.0007247 -0.0061237 -0.0107867 0.0172671 -0.0075496 0.0052452 -0.0027610 0.0026203 -0.0000547 0.0004932 0.0002301 0.0008631 0.0003650 0.0012474 0.0000429 0.0010870 -0.0004065 -0.0004460 -0.0006241 -0.0004669
-0.0037494 0.0025298 -0.0154583 0.0236515 -0.0019186 -0.0016460 -0.0081272 0.0167184 -0.0000382 0.0005950 0.0002381 0.0009618 0.0003723 0.0013667 0.0000479 0.0011681 -0.0003905 -0.0002703 -0.0004645 -0.0004062
0.0001547 0.0075294 -0.0124520 0.0253381 -0.0018580 0.0043143 0.0014084 -0.0050029 -0.0000230 0.0007758 0.0002210 0.0010121 0.0003435 0.0015287 0.0000354 0.0012602 -0.0003745 -0.0000621 -0.0003485 -0.0003120
0.0065911 -0.0006393 -0.0077101 0.0168152 -0.0004570 -0.0020385 0.0119997 -0.0304334 -0.0000308 0.0009238 0.0001893 0.0009852 0.0002615 0.0015358 0.0000183 0.0011307 -0.0003714 -0.0000961 -0.0003242 -0.0003542
0.0087391 -0.0122009 -0.0069376 0.0026029 0.0042993 -0.0196272 0.0015306 -0.0029626 -0.0000591 0.0008117 0.0001524 0.0007801 0.0002055 0.0011629 -0.0000001 0.0006540 -0.0003721 -0.0002589 -0.0003570 -0.0004506
0.0008961 0.0044641 -0.0108787 0.0167111 -0.0044537 0.0014841 -0.0033682 0.0088963 -0.0001000 0.0006478 -0.0000221 0.0006712 0.0000793 0.0007367 -0.0000650 0.0000348 -0.0003354 -0.0000479 -0.0003942 -0.0003288
-0.0051227 0.0098853 -0.0057407 0.0106666 0.0008061 0.0015198 -0.0049617 0.0060580 -0.0001533 0.0005041 -0.0003020 0.0004702 -0.0000591 0.0003602 -0.0001512 -0.0004319 -0.0002682 0.0003228 -0.0003986 -0.0000983
0.0037627 -0.0102065 -0.0029868 -0.0007103 -0.0003677 0.0026585 -0.0024174 0.0023059 -0.0001758 0.0004798 -0.0004863 0.0002560 -0.0000915 0.0001201 -0.0002332 -0.0008113 -0.0002412 0.0005582 -0.0003530 0.0001542
0.0145022 -0.0327071 0.0017064 -0.0057571 -0.0048722 0.0063478 -0.0005042 0.0080041 -0.0001607 0.0006426 -0.0005817 0.0000796 -0.0001650 -0.0001149 -0.0003250 -0.0014580 -0.0002344 0.0004228 -0.0003214 0.0002485
0.0178824 -0.0373807 0.0011434 -0.0046445 0.0027677 -0.0108357 -0.0048472 0.0122931 -0.0001582 0.0004957 -0.0006494 -0.0002903 -0.0001600 -0.0005749 -0.0003829 -0.0019905 -0.0001558 0.0003337 -0.0002523 0.0002527
0.0093931 -0.0198971 0.0026651 -0.0059802 0.0022091 -0.0077894 -0.0118092 0.0132283 -0.0001551 0.0004117 -0.0007109 -0.0005087 -0.0001819 -0.0008945 -0.0004199 -0.0022186 0.0000687 0.0008534 -0.0000585 0.0004184
0.0057223 -0.0061498 0.0135000 -0.0229343 -0.0069121 -0.0027991 -0.0059275 -0.0030690 -0.0001401 0.0005237 -0.0007983 -0.0007049 -0.0002825 -0.0010138 -0.0004092 -0.0021850 0.0003647 0.0017091 0.0002394 0.0009298
0.0020883 0.0003041 0.0124919 -0.0263797 -0.0117197 0.0103922 -0.0042098 -0.0075437 -0.0001458 0.0005036 -0.0008062 -0.0007007 -0.0002727 -0.0008935 -0.0003542 -0.0018327 0.0004764 0.0022521 0.0004090 0.0015211
0.0012768 -0.0059617 0.0043113 -0.0088475 -0.0045070 0.0111610 -0.0136303 0.0142143 -0.0001782 0.0003484 -0.0007575 -0.0005724 -0.0002640 -0.0008278 -0.0003484 -0.0018237 0.0004154 0.0020171 0.0003437 0.0015676
0.0150585 -0.0316954 0.0064351 -0.0125128 -0.0000575 -0.0005007 -0.0100515 0.0056929 -0.0001756 0.0001743 -0.0007165 -0.0005251 -0.0003301 -0.0007680 -0.0003712 -0.0020005 0.0003933 0.0017733 0.0003036 0.0014274
0.0074325 -0.0139061 -0.0087267 0.0079109 0.0001848 -0.0029843 -0.0002044 -0.0117574 -0.0001679 0.0001431 -0.0006839 -0.0003703 -0.0003345 -0.0006478 -0.0003808 -0.0020078 0.0003953 0.0018735 0.0003678 0.0014863
-0.0062492 0.0072053 -0.0076469 0.0115459 -0.0021535 0.0088590 0.0017039 -0.0067831 -0.0001817 0.0002546 -0.0006679 -0.0001234 -0.0002996 -0.0005509 -0.0003824 -0.0019596 0.0003695 0.0019657 0.0004200 0.0016093
-0.0025253 0.0020268 0.0012341 -0.0067064 0.0016575 0.0054236 0.0071135 -0.0126807 -0.0001616 0.0005499 -0.0006186 0.0002027 -0.0002508 -0.0003346 -0.0003758 -0.0018042 0.0003156 0.0020400 0.0004269 0.0017542
0.0044471 -0.0033859 -0.0032671 0.0026745 0.0011195 -0.0016617 0.0083735 -0.0168477 -0.0001225 0.0007171 -0.0005706 0.0002143 -0.0002245 -0.0004583 -0.0003505 -0.0018636 0.0002684 0.0016785 0.0004368 0.0016234
0.0050676 -0.0082923 -0.0040182 0.0076521 -0.0003481 -0.0109411 0.0086271 -0.0130421 -0.0001258 0.0005471 -0.0005472 0.0000033 -0.0002675 -0.0006304 -0.0002979 -0.0018517 0.0002131 0.0012351 0.0004126 0.0015267
-0.0025305 0.0042251 0.0005013 -0.0016829 -0.0017918 -0.0011973 0.0075896 -0.0132951 -0.0001230 0.0005348 -0.0005323 0.0000310 -0.0001895 -0.0006897 -0.0002575 -0.0017015 0.0001467 0.0011501 0.0003501 0.0015930
-0.0045256 0.0086810 0.0045239 -0.0056773 -0.0081770 0.0114937 -0.0008337 -0.0080167 -0.0000833 0.0007247 -0.0005077 0.0001053 -0.0000978 -0.0006978 -0.0002217 -0.0015958 0.0001255 0.0012369 0.0002966 0.0016388
-0.0028614 -0.0012357 -0.0018527 0.0107998 -0.0133617 0.0098938 0.0094182 -0.0256547 -0.0000446 0.0009278 -0.0004721 0.0002401 -0.0000774 -0.0005636 -0.0002020 -0.0014968 0.0001102 0.0014157 0.0002511 0.0017471
-0.0026455 -0.0000341 -0.0066299 0.0097288 -0.0069924 0.0022820 0.0047762 -0.0077221 -0.0000123 0.0010383 -0.0004606 0.0002104 -0.0001356 -0.0007470 -0.0002306 -0.0018087 0.0000852 0.0012307 0.0002282 0.0015546
-0.0042804 0.0099861 -0.0102186 0.0081443 -0.0062329 0.0075348 -0.0114654 0.0174548 0.0000188 0.0010427 -0.0004693 0.0001085 -0.0002446 -0.0008856 -0.0002610 -0.0021018 0.0000789 0.0010180 0.0001892 0.0014057
-0.0054013 0.0064040 -0.0033315 0.0116669 -0.0023334 0.0097297 -0.0118935 0.0185395 0.0000465 0.0011427 -0.0004594 0.0001992 -0.0002893 -0.0007315 -0.0002516 -0.0019881 0.0000905 0.0011220 0.0001585 0.0014894
-0.0095171 0.0049673 -0.0037042 0.0097950 0.0083716 -0.0094140 -0.0032365 0.0077494 0.0000577 0.0012630 -0.0004418 0.0002463 -0.0003009 -0.0006702 -0.0002232 -0.0018244 0.0000961 0.0012456 0.0001956 0.0015040
-0.0104391 0.0084618 -0.0067656 0.0057396 0.0091909 -0.0144347 0.0000613 -0.0017658 0.0000554 0.0013365 -0.0004471 0.0003275 -0.0002971 -0.0005405 -0.0002146 -0.0016539 0.0000967 0.0014351 0.0002068 0.0016046
-0.0064415 0.0112073 0.0003821 -0.0050941 0.0076466 -0.0118292 -0.0006580 0.0015051 0.0000401 0.0013186 -0.0004575 0.0001752 -0.0002597 -0.0006232 -0.0002324 -0.0017272 0.0000887 0.0013003 0.0002045 0.0014767
0.0014657 0.0012114 -0.0012159 -0.0041025 0.0044452 -0.0029460 0.0022298 -0.0028043 0.0000357 0.0012172 -0.0004587 0.0000001 -0.0001990 -0.0008132 -0.0002409 -0.0018126 0.0000735 0.0011133 0.0002276 0.0013193
0.0132441 -0.0318258 -0.0032554 0.0035520 -0.0017454 0.0067689 0.0066040 -0.0025472 0.0000423 0.0012356 -0.0004482 0.0001075 -0.0001936 -0.0006579 -0.0002312 -0.0016877 0.0000659 0.0012404 0.0002239 0.0013818
0.0086875 -0.0176803 -0.0009119 0.0110422 -0.0104292 0.0168847 0.0047235 -0.0027631 0.0000414 0.0013576 -0.0004437 0.0002673 -0.0001327 -0.0004990 -0.0002191 -0.0015570 0.0000732 0.0013506 0.0001806 0.0014838
0.0045900 -0.0045465 -0.0024911 0.0084112 -0.0109792 0.0167166 -0.0067675 0.0114621 0.0000461 0.0015041 -0.0004331 0.0004525 -0.0000523 -0.0003499 -0.0002059 -0.0013997 0.0000829 0.0014413 0.0001147 0.0015651
0.0013296 0.0016382 0.0008114 -0.0122202 -0.0083240 0.0058222 -0.0045525 0.0118493 0.0000566 0.0014855 -0.0004249 0.0003172 -0.0000471 -0.0003867 -0.0001907 -0.0014058 0.0000795 0.0012737 0.0001009 0.0014290
-0.0011937 0.0065359 -0.0029041 0.0014513 -0.0158682 0.0113740 -0.0006621 0.0036452 0.0000607 0.0013937 -0.0004264 0.0001487 -0.0000640 -0.0004660 -0.0001646 -0.0013942 0.0000767 0.0011558 0.0000877 0.0013557
-0.0094827 0.0217560 -0.0162709 0.0229071 -0.0042013 0.0043123 -0.0054819 0.0142254 0.0000586 0.0014441 -0.0004133 0.0002425 -0.0000964 -0.0003014 -0.0001413 -0.0012537 0.0000790 0.0012539 0.0000470 0.0014029
-0.0111003 0.0252675 -0.0198531 0.0145192 0.0010027 -0.0011633 -0.0050041 0.0114594 0.0000529 0.0015440 -0.0003950 0.0003433 -0.0001795 -0.0000658 -0.0001264 -0.0011252 0.0000796 0.0013281 0.0000552 0.0014324
-0.0115108 0.0199146 -0.0040336 -0.0016319 -0.0067176 0.0083960 -0.0021928 0.0072013 0.0000551 0.0016901 -0.0003859 0.0004203 -0.0002165 -0.0000341 -0.0001212 -0.0011574 0.0000803 0.0012278 0.0001018 0.0012750
-0.0019966 -0.0026759 -0.0027589 0.0062482 -0.0077365 0.0213101 -0.0051816 0.0127627 0.0000552 0.0016115 -0.0003948 0.0002751 -0.0002015 -0.0001764 -0.0001271 -0.0012870 0.0000677 0.0010385 0.0000806 0.0010849
0.0112777 -0.0251095 -0.0013159 -0.0000304 -0.0047403 0.0133078 0.0003138 0.0040719 0.0000464 0.0014827 -0.0003863 0.0001953 -0.0001296 -0.0001874 -0.0001334 -0.0012598 0.0000465 0.0010820 0.0000613 0.0010531
0.0058091 -0.0067507 -0.0028483 0.0001052 -0.0024211 0.0006085 0.0030634 0.0010355 0.0000394 0.0015242 -0.0003700 0.0002911 -0.0000694 -0.0001438 -0.0001228 -0.0011602 0.0000444 0.0011529 0.0001089 0.0010282
0.0091279 -0.0182932 0.0013007 -0.0129127 -0.0024481 -0.0019940 -0.0008866 0.0081255 0.0000300 0.0015933 -0.0003636 0.0003947 -0.0000779 0.0000094 -0.0001094 -0.0010203 0.0000384 0.0012629 0.0001028 0.0011305
0.0018841 -0.0052632 0.0077736 -0.0210224 -0.0030965 0.0064486 -0.0033734 0.0139476 0.0000206 0.0016050 -0.0003673 0.0003385 -0.0000361 -0.0000776 -0.0001177 -0.0011932 0.0000306 0.0010614 -0.0000006 0.0010237
-0.0041114 0.0052139 0.0076687 -0.0170044 -0.0032565 0.0076240 -0.0047735 0.0081228 0.0000285 0.0014460 -0.0003608 0.0001913 0.0000116 -0.0003377 -0.0001231 -0.0014500 0.0000248 0.0007571 -0.0000526 0.0007636
0.0040682 -0.0090126 0.0227479 -0.0543271 0.0067991 -0.0171089 0.0004211 -0.0181191 0.0000465 0.0014329 -0.0003443 0.0003223 0.0000067 -0.0002686 -0.0001151 -0.0014292 0.0000187 0.0007810 -0.0000243 0.0007217
-0.0037173 0.0016528 0.0243599 -0.0634241 0.0069323 -0.0151038 0.0033593 -0.0165268 0.0000462 0.0015890 -0.0003253 0.0005360 -0.0000355 -0.0001041 -0.0001008 -0.0013554 0.0000156 0.0008171 -0.0000422 0.0007839
-0.0163506 0.0120228 -0.0012865 -0.0025640 0.0008669 -0.0095539 0.0035530 -0.0053514 0.0000430 0.0017401 -0.0002917 0.0006821 -0.0000702 -0.0000309 -0.0000836 -0.0012890 0.0000087 0.0007352 -0.0000553 0.0007092
-0.0106420 0.0177246 0.0045175 0.0033544 -0.0017587 0.0051394 0.0040708 -0.0082227 0.0000521 0.0016972 -0.0002688 0.0004758 -0.0001559 -0.0001195 -0.0000862 -0.0014645 0.0000031 0.0004945 -0.0000748 0.0004686
-0.0068539 0.0167086 0.0109950 -0.0065648 -0.0026733 0.0090997 0.0119489 -0.0321572 0.0000573 0.0015368 -0.0002602 0.0002456 -0.0001692 -0.0002627 -0.0000955 -0.0015849 -0.0000032 0.0004112 -0.0000473 0.0003124
-0.0007219 0.0028997 0.0109185 -0.0135106 -0.0002774 0.0000532 0.0020826 -0.0130594 0.0000474 0.0015156 -0.0002644 0.0002906 -0.0001657 -0.0002353 -0.0000995 -0.0014727 -0.0000130 0.0004777 -0.0000201 0.0003129
-0.0017469 0.0036645 0.0145458 -0.0267778 0.0036634 -0.0024233 -0.0054488 0.0073658 0.0000353 0.0015531 -0.0002767 0.0003357 -0.0001315 -0.0001705 -0.0000976 -0.0012529 -0.0000169 0.0005683 -0.0000306 0.0003818
-0.0048254 0.0063985 0.0101692 -0.0231662 0.0055240 -0.0117779 -0.0043004 0.0098675 0.0000555 0.0016320 -0.0003049 0.0001372 -0.0001019 -0.0003007 -0.0000634 -0.0010631 0.0000218 0.0004230 0.0000071 0.0000790
-0.0043984 0.0102044 0.0051520 -0.0108528 0.0061194 -0.0287913 0.0023592 0.0024711 0.0000596 0.0013023 -0.0002214 -0.0000962 -0.0000808 -0.0002654 0.0000299 -0.0007780 0.0000657 0.0003104 -0.0000130 -0.0001693
-0.0016912 0.0101868 -0.0042516 0.0024370 0.0012929 -0.0009322 0.0015381 0.0069845 0.0000389 0.0009409 -0.0000093 0.0001362 0.0001123 0.0000598 0.0001338 -0.0002871 0.0000713 0.0004341 -0.0000682 -0.0000497
0.0008815 0.0003243 -0.0083075 0.0004927 0.0007096 0.0055222 -0.0058126 0.0132288 0.0000587 0.0010262 0.0001226 0.0004091 0.0002516 0.0003263 0.0001685 0.0001375 0.0000558 0.0004601 -0.0000619 -0.0000157
0.0031943 -0.0107729 0.0003808 0.0028931 0.0054150 -0.0133365 -0.0026274 0.0006452 0.0000744 0.0010989 0.0001219 0.0005623 0.0002398 0.0006143 0.0001592 0.0002997 0.0000351 0.0005515 -0.0000838 -0.0000031
0.0045186 -0.0210763 0.0025346 0.0036511 0.0047594 -0.0122990 -0.0005001 0.0012267 0.0000178 0.0008499 0.0000169 0.0003395 0.0001298 0.0003526 0.0000926 -0.0002230 0.0000273 0.0003907 -0.0001433 -0.0001666
0.0066142 -0.0180182 -0.0007941 0.0006730 0.0027492 -0.0107164 0.0008815 0.0048546 -0.0000378 0.0004898 -0.0001663 -0.0000760 -0.0000064 -0.0001695 0.0000050 -0.0007940 0.0000343 0.0002686 -0.0001846 -0.0003070
0.0066877 -0.0117954 -0.0043875 0.0092419 0.0034712 -0.0138391 -0.0029557 0.0113743 -0.0000402 0.0004441 -0.0002708 -0.0000984 -0.0001264 -0.0000562 -0.0000408 -0.0009684 0.0000291 0.0003872 -0.0002099 -0.0002823
0.0058982 -0.0130551 -0.0027425 0.0119493 -0.0034428 0.0060091 -0.0093694 0.0225505 -0.0000329 0.0005943 -0.0002621 0.0000642 -0.0001459 0.0001434 -0.0000669 -0.0010374 0.0000029 0.0004580 -0.0001827 -0.0002377
0.0104459 -0.0249212 -0.0002143 0.0047567 -0.0040608 0.0174419 -0.0107964 0.0282496 -0.0000341 0.0007888 -0.0002748 0.0001363 -0.0001401 0.0000657 -0.0000904 -0.0011932 -0.0000281 0.0003122 -0.0001699 -0.0002988
0.0057918 -0.0111172 0.0066910 -0.0135291 -0.0031697 0.0120773 -0.0052591 0.0159787 -0.0000386 0.0007914 -0.0002874 0.0000438 -0.0001014 -0.0000700 -0.0001114 -0.0013726 -0.0000608 0.0001380 -0.0001898 -0.0003882
-0.0001343 0.0012581 0.0048884 -0.0145532 0.0011562 -0.0079489 -0.0022784 0.0010451 -0.0000341 0.0007839 -0.0002768 0.0000522 -0.0000335 -0.0000906 -0.0001161 -0.0013614 -0.0000666 0.0002158 -0.0001725 -0.0003097
-0.0011949 0.0001950 -0.0000160 -0.0158714 -0.0006343 -0.0000075 0.0016920 0.0001627 -0.0000371 0.0008959 -0.0002871 0.0001879 -0.0000412 0.0000251 -0.0001208 -0.0013213 -0.0000634 0.0003112 -0.0001891 -0.0001593
0.0033687 -0.0053067 0.0039086 -0.0238989 -0.0051653 0.0112323 0.0092226 -0.0159375 -0.0000428 0.0010035 -0.0003058 0.0003296 -0.0000232 0.0001513 -0.0001104 -0.0012737 -0.0000627 0.0003932 -0.0002577 -0.0000565
0.0016408 0.0006571 0.0095773 -0.0279926 -0.0007281 -0.0019448 -0.0002367 -0.0051601 -0.0000452 0.0009701 -0.0003202 0.0001993 0.0000058 -0.0000492 -0.0001037 -0.0014059 -0.0000545 0.0002673 -0.0002892 -0.0001176
-0.0047976 0.0109465 0.0113433 -0.0303816 0.0090589 -0.0136877 -0.0020224 0.0061107 -0.0000530 0.0008017 -0.0003224 0.0000670 0.0000327 -0.0001735 -0.0001129 -0.0014559 -0.0000568 0.0001887 -0.0002661 -0.0001481
-0.0021131 -0.0008821 0.0104175 -0.0281023 0.0100699 -0.0121315 -0.0053397 0.0119151 -0.0000673 0.0007782 -0.0003066 0.0001950 -0.0000129 0.0000245 -0.0001108 -0.0013351 -0.0000583 0.0002879 -0.0002546 -0.0000907
0.0003655 -0.0019669 -0.0075929 0.0142724 0.0039541 -0.0054862 -0.0106980 0.0137438 -0.0000731 0.0008680 -0.0002901 0.0003172 -0.0000643 0.0001785 -0.0001077 -0.0012190 -0.0000514 0.0004021 -0.0002619 -0.0000011
-0.0045895 0.0062277 -0.0024820 0.0148561 -0.0009575 -0.0034209 -0.0104130 0.0079009 -0.0000708 0.0009319 -0.0002871 0.0002521 -0.0001141 0.0001587 -0.0001127 -0.0012999 -0.0000475 0.0002597 -0.0002595 -0.0001043
0.0066904 -0.0129339 0.0086122 -0.0132147 -0.0000164 -0.0084875 -0.0031914 0.0061866 -0.0000722 0.0007915 -0.0002993 0.0000457 -0.0001532 -0.0000063 -0.0001161 -0.0014456 -0.0000494 0.0000589 -0.0002410 -0.0002886
0.0073909 -0.0122970 -0.0022393 -0.0000571 -0.0012551 0.0057293 -0.0016177 0.0122392 -0.0000847 0.0006619 -0.0003156 0.0000518 -0.0001470 -0.0000089 -0.0001084 -0.0013995 -0.0000528 0.0001511 -0.0002480 -0.0002229
0.0005725 0.0011622 0.0005098 -0.0035120 0.0020519 0.0085689 -0.0048050 0.0116832 -0.0001009 0.0006750 -0.0003107 0.0001409 -0.0000948 0.0000861 -0.0000961 -0.0012704 -0.0000521 0.0003064 -0.0002682 -0.0001083
0.0032490 -0.0044094 0.0084362 -0.0272363 -0.0038559 0.0115989 0.0007952 -0.0098062 -0.0001011 0.0007772 -0.0002881 0.0002464 -0.0000616 0.0001795 -0.0000800 -0.0011119 -0.0000311 0.0003979 -0.0002031 -0.0001357
-0.0044201 -0.0002491 -0.0055838 -0.0015774 -0.0139793 0.0194082 0.0199750 -0.0491166 -0.0000853 0.0008187 -0.0002904 0.0000651 -0.0001043 0.0000587 -0.0000775 -0.0012094 -0.0000256 0.0002379 -0.0001957 -0.0002420
-0.0166900 0.0174815 -0.0155482 0.0156263 -0.0036925 0.0101820 0.0097232 -0.0203563 -0.0000903 0.0006316 -0.0003123 -0.0002068 -0.0000570 -0.0001278 -0.0000655 -0.0012377 -0.0000262 0.0001444 -0.0002604 -0.0002390
-0.0125329 0.0177717 -0.0148768 0.0108542 -0.0018387 0.0047670 -0.0037713 0.0033694 -0.0001014 0.0005296 -0.0003221 -0.0001803 -0.0000144 -0.0001458 -0.0000403 -0.0010930 -0.0000240 0.0002300 -0.0002608 -0.0001755
0.0016433 0.0012708 -0.0014100 0.0041384 0.0016889 -0.0035546 -0.0004469 -0.0046980 -0.0000914 0.0006264 -0.0003227 -0.0000679 -0.0000073 -0.0001184 -0.0000295 -0.0009841 -0.0000280 0.0003324 -0.0002617 -0.0000720
-0.0009162 0.0081265 -0.0006968 0.0129765 0.0073038 -0.0115468 0.0086411 -0.0190882 -0.0000877 0.0007666 -0.0003205 -0.0000507 -0.0000624 -0.0001203 -0.0000234 -0.0010475 -0.0000164 0.0002317 -0.0002835 -0.0001166
-0.0076690 0.0131378 -0.0008139 0.0029048 -0.0059405 0.0093679 0.0058612 -0.0101299 -0.0000928 0.0006399 -0.0003202 -0.0002836 -0.0001621 -0.0003035 0.0000024 -0.0011875 -0.0000250 -0.0000620 -0.0002736 -0.0002941
-0.0095992 0.0139783 0.0002335 -0.0004248 -0.0047346 0.0124094 0.0014383 0.0018823 -0.0000893 0.0005066 -0.0002956 -0.0003858 -0.0002382 -0.0003572 0.0000289 -0.0011426 -0.0000363 -0.0001111 -0.0002060 -0.0002797
-0.0079654 0.0234396 -0.0033504 0.0100298 0.0057831 -0.0044369 -0.0030126 0.0031433 -0.0000795 0.0006210 -0.0002694 -0.0003107 -0.0002708 -0.0002653 0.0000226 -0.0011271 -0.0000297 0.0000579 -0.0001663 -0.0001392
-0.0048334 0.0137854 -0.0012924 0.0021415 0.0029415 -0.0027704 -0.0045251 0.0074600 -0.0000705 0.0007528 -0.0002702 -0.0002104 -0.0002455 -0.0001508 0.0000085 -0.0010595 -0.0000247 0.0002640 -0.0001791 0.0000426
-0.0051642 0.0107154 -0.0008532 0.0037038 -0.0018597 0.0082755 -0.0035150 0.0163954 -0.0000780 0.0008889 -0.0002743 -0.0001778 -0.0001995 -0.0002609 0.0000050 -0.0011113 -0.0000349 0.0001282 -0.0001556 -0.0000302
-0.0020505 0.0095580 0.0011175 0.0086071 -0.0042711 0.0097132 0.0008444 0.0005051 -0.0000806 0.0008120 -0.0002781 -0.0003663 -0.0001712 -0.0005874 0.0000140 -0.0012513 -0.0000484 -0.0001427 -0.0000911 -0.0001610
0.0018901 -0.0072234 -0.0006755 0.0080112 0.0002526 -0.0048355 0.0026451 0.0004442 -0.0000622 0.0007538 -0.0002711 -0.0004386 -0.0001864 -0.0005593 0.0000197 -0.0012568 -0.0000438 -0.0000698 -0.0000778 -0.0000205
0.0009580 -0.0035613 -0.0159460 0.0234683 0.0010436 -0.0053410 -0.0018607 0.0145068 -0.0000646 0.0008191 -0.0002674 -0.0003449 -0.0001047 -0.0004515 -0.0000027 -0.0013180 -0.0000438 0.0001384 -0.0001445 0.0001418
0.0047341 -0.0062045 -0.0121149 0.0226592 -0.0027575 -0.0021579 0.0015890 0.0035112 -0.0000691 0.0008604 -0.0002597 -0.0001838 -0.0000158 -0.0004037 -0.0000228 -0.0012654 -0.0000372 0.0003400 -0.0001836 0.0002721
0.0042329 -0.0004025 -0.0003023 -0.0042657 0.0016619 -0.0107513 0.0036774 -0.0051274 -0.0000360 0.0010530 -0.0002525 -0.0000003 -0.0000300 -0.0003321 -0.0000216 -0.0012433 -0.0000272 0.0003109 -0.0001746 0.0002068
0.0017736 -0.0010592 -0.0050080 -0.0044787 0.0007307 -0.0063715 -0.0043797 0.0030081 -0.0000057 0.0010283 -0.0002510 -0.0001045 -0.0000569 -0.0004568 -0.0000263 -0.0014421 -0.0000261 0.0001368 -0.0001911 0.0000372
0.0046358 -0.0064221 -0.0027637 -0.0036565 -0.0024194 -0.0011624 -0.0128591 0.0215609 -0.0000117 0.0008873 -0.0002314 -0.0001803 -0.0000909 -0.0004659 -0.0000289 -0.0015164 -0.0000241 0.0001581 -0.0002452 0.0000928
0.0085115 -0.0084436 -0.0041128 0.0115058 -0.0036159 0.0073817 -0.0123334 0.0173134 -0.0000154 0.0009418 -0.0002002 -0.0000654 -0.0001938 -0.0002285 -0.0000257 -0.0014206 -0.0000164 0.0002835 -0.0002682 0.0002045
-0.0019881 -0.0039974 -0.0081543 0.0227611 -0.0020550 0.0113942 -0.0061212 0.0039937 -0.0000011 0.0010567 -0.0001835 0.0000182 -0.0002232 -0.0001321 -0.0000280 -0.0012561 0.0000054 0.0004364 -0.0002129 0.0002530
-0.0068214 -0.0014496 -0.0047887 0.0142102 0.0009610 0.0112954 -0.0011891 0.0062043 0.0000037 0.0011979 -0.0002006 0.0001851 -0.0001995 -0.0000407 -0.0000559 -0.0012422 0.0000273 0.0005568 -0.0001942 0.0002889
0.0094273 -0.0308452 0.0004705 0.0013221 0.0024412 0.0055686 0.0011331 0.0047457 -0.0000052 0.0011413 -0.0002364 0.0000813 -0.0001886 -0.0000915 -0.0000904 -0.0013828 0.0000272 0.0004494 -0.0001992 0.0001961
0.0015391 -0.0094192 0.0056785 -0.0139709 0.0043922 -0.0033912 -0.0032376 0.0022337 -0.0000063 0.0010529 -0.0002497 -0.0000692 -0.0001631 -0.0001634 -0.0000906 -0.0013428 0.0000239 0.0004065 -0.0001367 0.0001340
0.0022736 -0.0023438 0.0051083 -0.0113553 -0.0025418 0.0113145 0.0058971 -0.0123738 -0.0000111 0.0010882 -0.0002529 -0.0000076 -0.0001615 -0.0000264 -0.0000875 -0.0012141 0.0000325 0.0005203 -0.0000849 0.0001921
-0.0028015 0.0083409 0.0021759 -0.0101329 -0.0131538 0.0243836 0.0079721 -0.0049447 -0.0000243 0.0011091 -0.0002731 0.0000487 -0.0001057 0.0000652 -0.0000902 -0.0010914 0.0000352 0.0006281 -0.0000901 0.0002974
-0.0085361 0.0089787 -0.0072944 0.0054335 -0.0091047 0.0097677 -0.0023619 0.0063795 -0.0000238 0.0012055 -0.0002783 0.0002281 -0.0000774 0.0002400 -0.0000893 -0.0009899 0.0000477 0.0007047 -0.0001028 0.0003557
0.0031634 -0.0085585 -0.0090827 0.0113664 0.0020854 -0.0048902 0.0009115 -0.0063078 -0.0000134 0.0011944 -0.0002889 0.0001495 -0.0000937 0.0001764 -0.0000905 -0.0010460 0.0000547 0.0006031 -0.0001234 0.0002677
0.0001746 0.0042555 -0.0010860 -0.0019127 0.0054806 -0.0050241 0.0120086 -0.0301362 -0.0000165 0.0011275 -0.0003000 0.0000293 -0.0000631 0.0000739 -0.0000763 -0.0010450 0.0000608 0.0005959 -0.0001690 0.0002855
-0.0020764 0.0043349 0.0034877 -0.0026291 0.0104014 -0.0170456 0.0048956 -0.0126750 -0.0000207 0.0011882 -0.0002891 0.0001392 -0.0000768 0.0002707 -0.0000657 -0.0009247 0.0000726 0.0007293 -0.0002052 0.0004238
0.0030652 -0.0037179 0.0048145 -0.0007492 -0.0002905 -0.0007613 0.0001727 0.0018107 -0.0000208 0.0012764 -0.0002701 0.0002465 -0.0001555 0.0005092 -0.0000640 -0.0008283 0.0000753 0.0008514 -0.0001905 0.0005048
0.0020594 -0.0017687 0.0062017 -0.0152224 -0.0029681 0.0070861 0.0039488 -0.0050197 -0.0000219 0.0014020 -0.0002561 0.0003182 -0.0001425 0.0004598 -0.0000576 -0.0008906 0.0000864 0.0007758 -0.0001549 0.0004045
0.0008906 -0.0071426 -0.0041422 -0.0061371 0.0110185 -0.0128491 -0.0026433 0.0120104 -0.0000229 0.0013258 -0.0002657 0.0001849 -0.0001375 0.0003408 -0.0000565 -0.0010082 0.0000886 0.0006260 -0.0001655 0.0002945
-0.0023542 -0.0049189 -0.0092748 0.0086680 0.0115227 -0.0134017 -0.0039114 0.0117283 -0.0000317 0.0012145 -0.0002648 0.0001243 -0.0001271 0.0003920 -0.0000557 -0.0009734 0.0000891 0.0006950 -0.0001739 0.0003281
-0.0089839 0.0098226 0.0005062 -0.0086240 0.0003172 0.0047233 0.0035399 -0.0161619 -0.0000413 0.0012471 -0.0002550 0.0002264 -0.0001162 0.0004701 -0.0000535 -0.0008725 0.0000944 0.0008016 -0.0001097 0.0003594
-0.0030282 0.0053495 0.0026877 -0.0099177 0.0005047 0.0025340 0.0154827 -0.0393333 -0.0000483 0.0013116 -0.0002368 0.0003390 -0.0001723 0.0006796 -0.0000502 -0.0007443 0.0000996 0.0009239 -0.0000706 0.0004468
0.0033961 -0.0014277 -0.0004510 -0.0065174 0.0001771 0.0040037 0.0162053 -0.0300312 -0.0000515 0.0013430 -0.0002397 0.0002572 -0.0000975 0.0005538 -0.0000514 -0.0008704 0.0001034 0.0007546 -0.0000920 0.0003227
-0.0022374 0.0038805 -0.0103433 0.0109522 -0.0030665 0.0148248 0.0027175 -0.0032680 -0.0000528 0.0011976 -0.0002595 0.0000834 -0.0000224 0.0003508 -0.0000622 -0.0010426 0.0000925 0.0005418 -0.0001071 0.0001465
-0.0033696 0.0025873 -0.0097434 0.0163829 -0.0026376 0.0123825 0.0002164 -0.0058909 -0.0000617 0.0010924 -0.0002554 0.0001411 -0.0000226 0.0003715 -0.0000699 -0.0010248 0.0000915 0.0005963 -0.0001006 0.0001484
-0.0069224 0.0110385 -0.0038637 0.0069881 -0.0023280 0.0011406 0.0050712 -0.0145709 -0.0000790 0.0011070 -0.0002441 0.0002590 -0.0000218 0.0003570 -0.0000558 -0.0009348 0.0000875 0.0006157 -0.0001041 0.0001970
-0.0046728 0.0152751 -0.0058535 0.0169483 -0.0026721 0.0082016 -0.0003413 0.0013827 -0.0000865 0.0012063 -0.0002345 0.0004060 -0.0000633 0.0004865 -0.0000321 -0.0007892 0.0000865 0.0006650 -0.0001217 0.0002581
0.0041094 -0.0000146 -0.0015491 0.0133440 0.0001141 0.0064349 -0.0075130 0.0173712 -0.0000730 0.0012090 -0.0002409 0.0002475 -0.0001219 0.0004309 -0.0000322 -0.0009482 0.0000982 0.0004993 -0.0001256 0.0001052
0.0088726 -0.0234287 0.0014756 -0.0012080 0.0039107 -0.0133060 -0.0080019 0.0190548 -0.0000669 0.0010647 -0.0002516 0.0000055 -0.0001263 0.0002466 -0.0000311 -0.0010983 0.0001018 0.0003576 -0.0001451 -0.0000050
0.0094345 -0.0366161 0.0010115 0.0032356 0.0048994 -0.0085011 -0.0113994 0.0229043 -0.0000706 0.0010195 -0.0002436 0.0000311 -0.0001261 0.0002928 -0.0000090 -0.0009914 0.0001053 0.0004207 -0.0001521 0.0000427
-0.0015943 -0.0002476 -0.0073909 0.0230111 0.0035759 0.0015372 -0.0126271 0.0213218 -0.0000817 0.0010521 -0.0002182 0.0000655 -0.0001784 0.0004137 0.0000214 -0.0008638 0.0001025 0.0004618 -0.0001508 0.0001608
-0.0028981 0.0051351 -0.0160530 0.0193615 -0.0038727 0.0120450 -0.0088790 0.0107656 -0.0000861 0.0011485 -0.0002019 0.0000958 -0.0002177 0.0004165 0.0000391 -0.0008741 0.0000926 0.0003323 -0.0001181 0.0000644
0.0053763 -0.0215537 -0.0005073 -0.0088668 -0.0053252 0.0117218 0.0048194 -0.0074120 -0.0000748 0.0010676 -0.0002043 -0.0000775 -0.0001875 0.0002175 0.0000330 -0.0010717 0.0000826 0.0001514 -0.0000981 -0.0001699
0.0063582 -0.0250145 -0.0030478 0.0091161 -0.0015683 0.0056112 0.0078166 -0.0075667 -0.0000736 0.0008893 -0.0002030 -0.0002367 -0.0001204 0.0000572 0.0000359 -0.0010957 0.0000845 0.0002240 -0.0000751 -0.0002180
0.0052214 -0.0083152 0.0001940 0.0048368 0.0006899 0.0022964 -0.0042905 0.0019138 -0.0000828 0.0008584 -0.0001978 -0.0002094 -0.0001234 0.0001143 0.0000453 -0.0009775 0.0000902 0.0003719 -0.0000596 -0.0001761
0.0034607 0.0009207 0.0035719 -0.0022463 0.0028301 -0.0025178 -0.0013950 0.0009729 -0.0000912 0.0008781 -0.0001963 -0.0000539 -0.0001196 0.0001966 0.0000362 -0.0009845 0.0000821 0.0005268 -0.0000821 -0.0000426
-0.0018548 0.0065520 0.0009671 -0.0072035 0.0011579 0.0026482 0.0007137 0.0052045 -0.0000805 0.0009933 -0.0001958 -0.0000289 -0.0000477 0.0000096 0.0000269 -0.0011964 0.0000772 0.0003770 -0.0001275 -0.0001084
-0.0008585 0.0068843 0.0055194 -0.0143515 -0.0051141 0.0191665 0.0026233 -0.0071866 -0.0000567 0.0010219 -0.0001892 -0.0001556 -0.0000206 -0.0001376 0.0000149 -0.0013774 0.0000703 0.0001955 -0.0001550 -0.0002094
-0.0026219 0.0053279 -0.0000426 0.0032790 -0.0039328 0.0177127 0.0029444 -0.0143462 -0.0000357 0.0009936 -0.0001724 -0.0000387 -0.0000028 -0.0000539 -0.0000019 -0.0013928 0.0000655 0.0002945 -0.0001469 -0.0001340
-0.0079707 0.0070686 -0.0056001 0.0117725 -0.0011276 0.0067388 -0.0012545 -0.0010552 -0.0000333 0.0010442 -0.0001563 0.0001636 -0.0000257 0.0001084 -0.0000048 -0.0013628 0.0000741 0.0004298 -0.0002022 0.0000208
-0.0012345 0.0002546 0.0012136 0.0011725 0.0045816 -0.0109100 -0.0009235 0.0043970 -0.0000399 0.0011354 -0.0001280 0.0003530 -0.0000382 0.0002678 0.0000014 -0.0012824 0.0000801 0.0005804 -0.0002375 0.0001501
-0.0002714 0.0002004 0.0052937 -0.0064837 0.0029691 -0.0083800 -0.0018307 0.0027774 -0.0000289 0.0011684 -0.0001074 0.0002763 -0.0000706 0.0001501 0.0000065 -0.0013776 0.0000825 0.0004061 -0.0002349 0.0000034
0.0050607 -0.0087759 -0.0036625 0.0021400 -0.0075903 0.0154556 0.0029261 -0.0046251 -0.0000198 0.0010878 -0.0001005 0.0001537 -0.0001621 0.0001274 0.0000139 -0.0014048 0.0000828 0.0002714 -0.0002304 -0.0000714
0.0136689 -0.0255029 0.0004302 -0.0075281 0.0020748 -0.0026002 0.0112305 -0.0253556 -0.0000198 0.0010607 -0.0000949 0.0002414 -0.0001797 0.0002410 0.0000218 -0.0012487 0.0000886 0.0003990 -0.0002043 0.0000043
0.0057688 -0.0042854 -0.0031982 0.0018247 0.0014076 -0.0034361 0.0084064 -0.0220145 -0.0000145 0.0011312 -0.0000825 0.0003429 -0.0001565 0.0002915 0.0000299 -0.0011205 0.0001000 0.0005259 -0.0001286 0.0000294
0.0001197 0.0100306 -0.0061192 0.0080543 -0.0081708 0.0169606 0.0043094 -0.0118600 -0.0000118 0.0012799 -0.0000715 0.0004709 -0.0001320 0.0003545 0.0000327 -0.0010872 0.0001118 0.0005250 -0.0000944 0.0000022
-0.0061958 0.0169945 0.0021813 -0.0036297 -0.0050366 0.0084787 0.0071617 -0.0282425 -0.0000096 0.0012428 -0.0000737 0.0003641 -0.0001509 0.0002983 0.0000355 -0.0011458 0.0001125 0.0004046 -0.0001064 -0.0000614
-0.0026904 0.0090939 0.0027135 -0.0125905 0.0046860 -0.0116394 0.0042645 -0.0328717 -0.0000040 0.0011705 -0.0000674 0.0002875 -0.0000862 0.0002775 0.0000445 -0.0010924 0.0001031 0.0004815 -0.0001155 -0.0000029
0.0045993 -0.0002998 0.0002031 -0.0017812 0.0046841 -0.0035967 0.0005192 -0.0123253 -0.0000010 0.0012271 -0.0000592 0.0003914 0.0000098 0.0003412 0.0000450 -0.0009789 0.0000994 0.0006157 -0.0001222 0.0001035
0.0044755 -0.0047210 0.0022395 0.0000080 0.0022459 -0.0007480 0.0038306 -0.0077322 -0.0000034 0.0012537 -0.0000620 0.0004744 0.0000363 0.0003905 0.0000446 -0.0008534 0.0001060 0.0007428 -0.0000895 0.0002081
0.0042288 -0.0061737 0.0041245 -0.0044457 -0.0028383 0.0000802 0.0035189 -0.0067530 -0.0000161 0.0012306 -0.0000838 0.0003633 0.0000452 0.0002814 0.0000455 -0.0009544 0.0001109 0.0005947 -0.0001453 0.0001412
0.0082008 -0.0065512 -0.0003670 0.0021769 -0.0125853 0.0096944 -0.0012880 0.0031595 -0.0000188 0.0011131 -0.0000893 0.0001922 0.0000538 0.0001637 0.0000590 -0.0010528 0.0001006 0.0004031 -0.0002089 -0.0000152
0.0084838 -0.0114422 -0.0066593 0.0055784 -0.0040146 0.0033387 -0.0054063 0.0076684 -0.0000154 0.0010569 -0.0000770 0.0002161 -0.0000212 0.0002650 0.0000853 -0.0009656 0.0000922 0.0004676 -0.0002345 -0.0000026
0.0012138 0.0002841 -0.0069512 0.0083768 0.0058585 -0.0127675 -0.0083323 0.0069834 -0.0000347 0.0010453 -0.0000838 0.0002688 -0.0000926 0.0003954 0.0001017 -0.0008830 0.0000954 0.0005256 -0.0002697 0.0000212
0.0004453 0.0021636 -0.0014145 -0.0001498 0.0118872 -0.0245058 -0.0078308 0.0051813 -0.0000704 0.0010070 -0.0001108 0.0002502 -0.0000782 0.0003893 0.0001000 -0.0009241 0.0001046 0.0004807 -0.0002583 -0.0001402
-0.0057483 0.0090809 -0.0041362 -0.0026228 0.0067132 -0.0116708 -0.0073990 0.0145364 -0.0001006 0.0008033 -0.0001303 -0.0000330 -0.0001267 0.0002165 0.0000826 -0.0011261 0.0001153 0.0002996 -0.0002124 -0.0003390
-0.0038569 0.0162727 -0.0135377 0.0167943 0.0021016 -0.0156703 -0.0054822 0.0134227 -0.0001135 0.0005709 -0.0001253 -0.0001755 -0.0001417 0.0001378 0.0000623 -0.0011643 0.0001224 0.0003046 -0.0001575 -0.0003192
-0.0008832 0.0112134 -0.0073106 0.0200418 0.0097700 -0.0331107 -0.0024291 -0.0012360 -0.0001235 0.0005597 -0.0000803 0.0000291 -0.0001197 0.0002893 0.0000780 -0.0009198 0.0001567 0.0005183 -0.0000959 -0.0000348
-0.0105475 0.0156349 -0.0074783 0.0153017 0.0051845 -0.0094771 -0.0021460 0.0058364 -0.0001144 0.0006784 0.0000233 0.0002360 0.0000098 0.0005240 0.0001782 -0.0004165 0.0002442 0.0008971 -0.0000347 0.0003814
0.0041536 -0.0035588 -0.0069273 0.0117460 0.0020058 -0.0008819 -0.0033549 0.0119602 -0.0001210 0.0007334 0.0000489 0.0001290 0.0001058 0.0004798 0.0002314 -0.0002878 0.0002822 0.0008692 -0.0000064 0.0004176
0.0061983 -0.0017753 0.0002034 0.0047353 0.0040435 -0.0078126 0.0003156 0.0013905 -0.0001225 0.0006429 0.0000005 -0.0001741 0.0001416 0.0001542 0.0001903 -0.0004976 0.0002511 0.0005945 -0.0000046 0.0002983
-0.0049221 0.0114498 -0.0013074 -0.0052781 -0.0000104 -0.0040729 0.0049577 -0.0093575 -0.0000930 0.0006510 -0.0000153 -0.0002655 0.0001507 0.0000835 0.0001730 -0.0005346 0.0002677 0.0005919 0.0000409 0.0004610
0.0001995 -0.0083996 -0.0023077 -0.0023049 -0.0022525 0.0032857 0.0039236 -0.0093805 -0.0000908 0.0007081 -0.0000219 -0.0002168 0.0000953 0.0001138 0.0001669 -0.0006359 0.0002838 0.0007309 0.0000765 0.0007306
0.0027754 -0.0083856 -0.0040394 0.0079245 -0.0006378 0.0058508 -0.0026777 0.0025294 -0.0000842 0.0007595 -0.0000201 -0.0000575 0.0000415 0.0001325 0.0001702 -0.0006341 0.0002448 0.0008617 0.0000059 0.0007733
0.0048651 -0.0067717 -0.0013216 0.0066084 -0.0065884 0.0076309 -0.0032370 0.0034942 -0.0000545 0.0007706 -0.0000319 -0.0001526 -0.0000040 -0.0000110 0.0001660 -0.0007618 0.0001913 0.0005342 -0.0000543 0.0003329
0.0096965 -0.0181845 0.0048291 -0.0063069 -0.0003547 -0.0075542 -0.0004673 -0.0037137 -0.0000440 0.0006471 -0.0000580 -0.0003624 0.0000190 -0.0002155 0.0001458 -0.0009687 0.0001688 0.0003122 -0.0001090 0.0000671
0.0047577 -0.0111037 0.0062437 -0.0121990 0.0016621 -0.0110418 0.0033289 -0.0083287 -0.0000516 0.0005689 -0.0000529 -0.0003134 -0.0000511 -0.0001253 0.0001348 -0.0009637 0.0001722 0.0004273 -0.0000925 0.0000878
-0.0043708 0.0113684 -0.0008919 -0.0068064 -0.0028482 -0.0042310 0.0037367 -0.0083742 -0.0000535 0.0005983 -0.0000397 -0.0002184 -0.0001073 -0.0000123 0.0001101 -0.0009549 0.0001792 0.0005637 -0.0000278 0.0000749
-0.0037938 0.0176959 -0.0015855 -0.0263154 0.0092385 -0.0253077 -0.0006591 0.0031102 -0.0000708 0.0006475 -0.0000439 -0.0000902 -0.0001147 0.0000958 0.0000954 -0.0009768 0.0001919 0.0005557 -0.0000347 0.0000839
-0.0005577 0.0114191 -0.0004188 -0.0126365 0.0082275 -0.0150511 -0.0010209 0.0096766 -0.0000884 0.0006531 -0.0000536 -0.0001070 -0.0001195 0.0000088 0.0000740 -0.0010788 0.0001720 0.0002991 0.0000246 0.0000490
-0.0025248 0.0201888 -0.0090226 0.0141966 0.0062014 -0.0059126 -0.0056342 0.0121476 -0.0000566 0.0008146 -0.0000467 -0.0000795 -0.0000889 -0.0000953 0.0000425 -0.0011236 0.0001559 0.0002471 0.0000965 0.0000610
-0.0049720 0.0231598 -0.0100370 0.0177318 -0.0009331 0.0066157 0.0000434 -0.0036782 -0.0000254 0.0009459 -0.0000761 -0.0001068 0.0000212 -0.0001594 0.0000195 -0.0011712 0.0001509 0.0004934 0.0001005 0.0001956
-0.0008797 0.0007049 -0.0076493 0.0089868 -0.0081805 0.0151198 0.0042218 -0.0235204 -0.0000348 0.0009034 -0.0000917 -0.0000432 0.0001050 -0.0000689 0.0000214 -0.0010740 0.0001565 0.0007079 0.0000912 0.0004339
0.0020172 -0.0102751 -0.0006026 -0.0012846 -0.0016724 -0.0025575 -0.0003124 -0.0160624 -0.0000361 0.0010318 -0.0000546 0.0002229 0.0000855 0.0000879 0.0000340 -0.0010321 0.0001586 0.0006215 0.0000983 0.0004457
-0.0044658 0.0060523 -0.0022002 0.0089342 -0.0027268 0.0049207 -0.0003215 -0.0033268 -0.0000171 0.0010566 -0.0000563 0.0000913 0.0000763 -0.0000294 0.0000327 -0.0011808 0.0001585 0.0004285 0.0000388 0.0003521
-0.0073527 0.0160473 0.0020116 0.0026591 0.0019795 0.0002715 -0.0041234 0.0158636 0.0000003 0.0009644 -0.0000574 -0.0000137 0.0000857 -0.0000129 0.0000435 -0.0011530 0.0001902 0.0005209 -0.0000192 0.0004060
-0.0028193 0.0081713 0.0116669 -0.0176569 0.0085403 -0.0194300 -0.0022173 0.0132760 0.0000040 0.0009661 -0.0000535 0.0001215 0.0000871 0.0001780 0.0000385 -0.0010353 0.0001978 0.0007312 0.0000036 0.0005082
0.0002491 -0.0015691 0.0045603 -0.0002348 -0.0003645 -0.0092955 -0.0005953 0.0044109 0.0000056 0.0009995 -0.0000462 0.0002615 0.0000177 0.0004111 0.0000348 -0.0008902 0.0002019 0.0009214 0.0000272 0.0006380
0.0004398 0.0025350 -0.0039621 0.0119077 0.0039024 -0.0168480 -0.0026513 0.0114058 0.0000029 0.0010995 -0.0000377 0.0003262 0.0000031 0.0004151 0.0000414 -0.0009369 0.0002137 0.0008488 0.0000257 0.0005461
0.0004633 0.0077373 0.0000068 -0.0032253 0.0084894 -0.0262770 0.0011437 -0.0039416 0.0000038 0.0010026 -0.0000249 0.0001660 0.0000077 0.0003294 0.0000390 -0.0010567 0.0002099 0.0006950 -0.0000315 0.0004366
-0.0010593 0.0014821 0.0117176 -0.0302116 0.0074282 -0.0254818 0.0032979 -0.0121065 -0.0000005 0.0009021 -0.0000120 0.0001241 0.0000053 0.0003919 0.0000345 -0.0009951 0.0002076 0.0007900 0.0000005 0.0004571
-0.0019998 -0.0057334 0.0090023 -0.0205616 0.0100797 -0.0226107 -0.0032417 0.0071265 -0.0000086 0.0009640 -0.0000097 0.0002653 0.0000381 0.0004962 0.0000320 -0.0008830 0.0002120 0.0009308 0.0000655 0.0004778
-0.0044681 0.0095597 0.0132706 -0.0291936 0.0091148 -0.0245723 0.0026570 -0.0013211 -0.0000030 0.0010560 -0.0000045 0.0004246 0.0001295 0.0006063 0.0000336 -0.0007328 0.0002155 0.0010906 0.0000643 0.0006014
-0.0059701 0.0124132 -0.0009042 -0.0013854 0.0081427 -0.0318319 0.0104030 -0.0246257 0.0000022 0.0011567 -0.0000066 0.0003710 0.0001921 0.0004925 0.0000375 -0.0007961 0.0002176 0.0009467 0.0000759 0.0004924
-0.0002660 0.0032219 -0.0017499 0.0038843 0.0007133 -0.0098942 0.0028330 0.0031598 0.0000098 0.0010790 -0.0000047 0.0002207 0.0001367 0.0004365 0.0000374 -0.0008748 0.0002102 0.0007662 0.0000595 0.0003773
0.0006781 0.0015072 0.0056018 -0.0151694 -0.0027919 0.0036893 -0.0008014 0.0103402 0.0000271 0.0010621 -0.0000064 0.0003253 0.0001478 0.0005828 0.0000425 -0.0007769 0.0002179 0.0008899 0.0000121 0.0004891
-0.0153393 0.0186610 -0.0000328 -0.0053654 0.0057675 -0.0092029 0.0052566 -0.0191258 0.0000371 0.0011821 -0.0000124 0.0004639 0.0002136 0.0006406 0.0000378 -0.0007134 0.0002360 0.0010252 0.0000047 0.0005367
-0.0067382 0.0099055 0.0026772 -0.0006769 0.0147742 -0.0322912 0.0104437 -0.0307721 0.0000343 0.0012918 -0.0000217 0.0006062 0.0002122 0.0007806 0.0000351 -0.0006237 0.0002429 0.0011362 0.0000098 0.0005420
0.0014909 -0.0019564 -0.0021862 0.0088444 0.0052093 -0.0120360 0.0001345 -0.0042986 0.0000305 0.0012483 -0.0000372 0.0004102 0.0001329 0.0007332 0.0000445 -0.0006904 0.0002421 0.0009766 -0.0000135 0.0004209
-0.0061224 0.0101483 -0.0068221 0.0065019 -0.0029227 0.0132752 -0.0051124 0.0041670 0.0000190 0.0011102 -0.0000472 0.0001604 0.0000999 0.0006283 0.0000518 -0.0007350 0.0002380 0.0008492 -0.0000316 0.0003698
0.0019720 0.0004751 0.0020092 -0.0139958 -0.0010543 0.0075087 0.0014338 -0.0070050 0.0000059 0.0010954 -0.0000396 0.0002044 0.0000574 0.0007923 0.0000725 -0.0006110 0.0002417 0.0009387 -0.0000130 0.0004273
0.0072060 -0.0088658 -0.0106997 0.0190621 0.0065347 -0.0187806 0.0143909 -0.0253866 -0.0000005 0.0011430 -0.0000321 0.0002761 0.0000337 0.0009014 0.0000981 -0.0004542 0.0002401 0.0010348 0.0000481 0.0004721
0.0029877 -0.0106016 -0.0051794 0.0197183 0.0000916 0.0007244 0.0054633 -0.0041779 -0.0000017 0.0012412 -0.0000440 0.0003256 0.0000460 0.0008914 0.0001080 -0.0004599 0.0002335 0.0009367 0.0000463 0.0004027
0.0032835 -0.0119243 0.0052833 -0.0042444 0.0011033 0.0018018 -0.0057715 0.0123521 -0.0000055 0.0011390 -0.0000519 0.0001311 0.0000598 0.0007549 0.0001070 -0.0006019 0.0002253 0.0007205 0.0000299 0.0002251
0.0094808 -0.0189391 0.0020898 -0.0073900 -0.0052065 0.0032076 0.0020815 -0.0056284 -0.0000177 0.0009993 -0.0000464 0.0000147 0.0000740 0.0007197 0.0001103 -0.0005868 0.0002262 0.0007495 0.0000787 0.0001860
0.0081537 -0.0207464 0.0042435 -0.0165072 -0.0043451 -0.0003693 0.0122534 -0.0168780 -0.0000257 0.0010219 -0.0000422 0.0001001 0.0000466 0.0008301 0.0001251 -0.0004148 0.0002389 0.0008549 0.0001129 0.0002619
-0.0074071 0.0130740 0.0049055 -0.0165403 0.0046661 -0.0128711 0.0059871 -0.0043899 0.0000065 0.0010889 -0.0000542 -0.0000012 0.0000981 0.0008870 0.0002095 0.0000762 0.0002987 0.0010385 0.0001357 0.0003272
0.0008700 0.0072376 0.0059366 -0.0163811 -0.0090596 0.0059069 0.0007186 0.0028740 0.0000263 0.0009350 0.0002749 0.0000291 0.0003523 0.0010201 0.0004496 0.0007653 0.0003735 0.0010703 0.0001299 0.0002926
0.0116744 -0.0156134 0.0204215 -0.0474619 -0.0037692 -0.0061645 0.0036396 0.0016039 0.0000330 0.0006009 0.0007567 0.0004023 0.0007123 0.0014133 0.0006768 0.0014154 0.0003731 0.0008689 0.0001736 0.0003108
0.0043174 -0.0035602 0.0135385 -0.0267376 0.0038360 -0.0114344 0.0021090 0.0049592 0.0000780 0.0005032 0.0009141 0.0005739 0.0008616 0.0017320 0.0007296 0.0018515 0.0003473 0.0007776 0.0002066 0.0003937
0.0010985 0.0046443 0.0040526 0.0033047 -0.0045839 0.0133281 -0.0024009 0.0097500 0.0000832 0.0003989 0.0008964 0.0005104 0.0007849 0.0018049 0.0007007 0.0020594 0.0003535 0.0008749 0.0001697 0.0005114
0.0002662 0.0044709 0.0035473 0.0041548 -0.0029508 0.0096732 0.0005221 -0.0057792 0.0000386 0.0002495 0.0008484 0.0005503 0.0006522 0.0018154 0.0006599 0.0019146 0.0003605 0.0010079 0.0001659 0.0005300
0.0049496 -0.0120933 -0.0018134 0.0079107 0.0024884 0.0005968 0.0203997 -0.0486082 -0.0000226 0.0000623 0.0006871 0.0002130 0.0004669 0.0011027 0.0005313 0.0009541 0.0003485 0.0009019 0.0001225 0.0002737
0.0008942 -0.0046383 -0.0010174 0.0116457 0.0081064 -0.0057727 0.0050811 -0.0025452 -0.0000501 -0.0001180 0.0004484 -0.0004031 0.0002797 0.0003580 0.0004405 0.0003113 0.0004026 0.0009860 0.0000641 0.0001274
0.0038631 -0.0031458 0.0018508 0.0055667 0.0063869 -0.0082600 -0.0012895 0.0076321 -0.0000542 -0.0000656 0.0003072 -0.0005452 0.0001977 0.0004136 0.0004385 0.0003025 0.0004282 0.0011096 0.0000415 0.0001635
0.0041201 -0.0095592 0.0049776 -0.0055687 -0.0056160 0.0064981 0.0065645 -0.0144471 -0.0000633 0.0002046 0.0002609 -0.0003197 0.0001740 0.0006958 0.0003916 0.0001312 0.0003593 0.0010380 0.0000771 0.0002102
-0.0084268 0.0067376 0.0062964 -0.0075211 -0.0055835 0.0088267 0.0125706 -0.0255649 -0.0000668 0.0004786 0.0002506 -0.0001966 0.0002122 0.0007190 0.0003787 -0.0000725 0.0003289 0.0008699 0.0001480 0.0001058
0.0004534 -0.0042887 -0.0006474 0.0032151 0.0015917 0.0009082 0.0020040 -0.0064635 -0.0000698 0.0003964 0.0002600 -0.0003829 0.0003054 0.0004598 0.0003925 -0.0002174 0.0003186 0.0006610 0.0001779 -0.0000607
0.0100908 -0.0190480 0.0041084 -0.0095722 0.0021327 -0.0053032 -0.0059025 0.0059233 -0.0000833 0.0001998 0.0002776 -0.0004666 0.0003146 0.0004922 0.0003782 -0.0002782 0.0002975 0.0007133 0.0001451 0.0000439
0.0024114 -0.0001839 0.0062949 -0.0193282 -0.0007502 -0.0065996 0.0091662 -0.0207709 -0.0000718 0.0002109 0.0002813 -0.0003653 0.0003079 0.0005305 0.0003707 -0.0003027 0.0002901 0.0007691 0.0001469 0.0001525
-0.0004361 0.0044623 0.0075785 -0.0179479 -0.0003022 -0.0016981 0.0101363 -0.0221486 -0.0000353 0.0003550 0.0002856 -0.0002056 0.0003951 0.0005095 0.0003749 -0.0002383 0.0002910 0.0008734 0.0001394 0.0002788
0.0094379 -0.0112567 0.0059077 0.0004128 -0.0038688 0.0139277 0.0076268 -0.0218807 -0.0000208 0.0005332 0.0002808 -0.0001558 0.0004167 0.0004843 0.0003615 -0.0003961 0.0002881 0.0007633 0.0000754 0.0002835
0.0067376 -0.0060486 0.0058434 -0.0009382 -0.0030006 0.0107296 0.0132734 -0.0326516 -0.0000130 0.0004755 0.0002707 -0.0003409 0.0003817 0.0003622 0.0003496 -0.0005865 0.0002805 0.0005563 0.0000547 0.0001364
-0.0001410 -0.0033960 0.0042028 -0.0075574 -0.0087705 0.0027128 0.0006648 0.0012889 -0.0000147 0.0003679 0.0002644 -0.0003671 0.0003594 0.0004301 0.0003500 -0.0005635 0.0002847 0.0006205 0.0000193 0.0001880
0.0022461 -0.0045037 0.0011181 0.0009372 -0.0058072 0.0003396 -0.0023630 0.0031716 -0.0000157 0.0004236 0.0002732 -0.0002295 0.0003296 0.0006023 0.0003500 -0.0004726 0.0002985 0.0007315 -0.0000226 0.0002968
-0.0056981 0.0190583 0.0049842 -0.0047176 0.0005746 -0.0083195 -0.0030850 0.0052728 -0.0000157 0.0005059 0.0002848 -0.0000574 0.0003065 0.0007399 0.0003639 -0.0003282 0.0003072 0.0008949 -0.0000148 0.0004266
-0.0126598 0.0253481 0.0010698 0.0045697 -0.0013897 -0.0085147 -0.0064270 0.0131041 -0.0000140 0.0006301 0.0002727 -0.0000750 0.0002577 0.0007387 0.0003700 -0.0003989 0.0003155 0.0008087 0.0000365 0.0003264
-0.0002299 -0.0041006 0.0031959 -0.0054301 0.0053022 -0.0138989 -0.0016741 -0.0006439 -0.0000106 0.0006069 0.0002576 -0.0002298 0.0002687 0.0005917 0.0003597 -0.0005333 0.0003111 0.0006480 0.0000633 0.0001423
0.0093927 -0.0246899 0.0001141 -0.0175462 0.0111250 -0.0244849 -0.0051376 0.0036541 -0.0000050 0.0005512 0.0002684 -0.0001903 0.0003101 0.0006044 0.0003536 -0.0004862 0.0003058 0.0007444 0.0001015 0.0001672
0.0061883 -0.0092554 -0.0088987 0.0139098 -0.0023669 0.0004149 -0.0110027 0.0136748 -0.0000016 0.0006215 0.0002833 -0.0000654 0.0002959 0.0007723 0.0003480 -0.0003817 0.0003048 0.0008910 0.0001406 0.0002639
0.0062407 -0.0141403 -0.0047840 0.0138181 -0.0053680 0.0096078 -0.0056281 0.0145764 -0.0000031 0.0007247 0.0002820 0.0001010 0.0002977 0.0008888 0.0003496 -0.0002451 0.0003066 0.0010507 0.0001210 0.0003980
0.0043410 -0.0042193 0.0030274 -0.0141184 -0.0041674 0.0099949 -0.0000932 0.0071338 0.0000060 0.0007414 0.0002734 -0.0000013 0.0003368 0.0007619 0.0003370 -0.0003617 0.0003061 0.0009040 0.0001025 0.0002820
0.0106033 -0.0082100 0.0064135 -0.0152297 -0.0054006 0.0148309 -0.0043874 0.0083380 0.0000106 0.0006594 0.0002714 -0.0001763 0.0003836 0.0005925 0.0003255 -0.0004813 0.0002985 0.0007510 0.0000847 0.0001535
0.0149108 -0.0286429 0.0059141 -0.0087957 -0.0037467 0.0110683 -0.0160128 0.0175150 0.0000095 0.0006557 0.0002729 -0.0000907 0.0004530 0.0005782 0.0003325 -0.0004040 0.0002971 0.0008646 0.0000612 0.0002641
0.0045651 -0.0121100 0.0036775 -0.0028866 0.0029261 0.0024081 -0.0182006 0.0137766 0.0000126 0.0007247 0.0002707 0.0000596 0.0004998 0.0006884 0.0003322 -0.0003456 0.0003063 0.0009918 0.0000415 0.0003813
0.0033870 -0.0020914 0.0047398 -0.0007849 0.0079741 -0.0051482 -0.0124400 0.0198913 0.0000076 0.0008422 0.0002773 0.0002517 0.0004897 0.0008209 0.0003284 -0.0003581 0.0003215 0.0010092 0.0000190 0.0003805
0.0029057 0.0036384 0.0026570 0.0009468 0.0021740 -0.0056115 -0.0108298 0.0169296 0.0000118 0.0007794 0.0002797 0.0000921 0.0004457 0.0006753 0.0003255 -0.0005332 0.0003279 0.0008303 -0.0000360 0.0002973
-0.0034173 0.0125671 -0.0048617 0.0109458 0.0003991 -0.0077435 -0.0050549 0.0013804 0.0000124 0.0006577 0.0002727 -0.0000753 0.0003876 0.0006242 0.0003059 -0.0006212 0.0003250 0.0007954 -0.0000490 0.0002977
0.0005835 0.0009677 0.0029600 -0.0090503 0.0112453 -0.0303503 -0.0012857 -0.0029053 0.0000055 0.0006859 0.0002752 0.0000411 0.0003827 0.0007066 0.0002888 -0.0005862 0.0003168 0.0009174 -0.0000290 0.0003636
0.0043188 -0.0176085 0.0067972 -0.0212596 0.0169598 -0.0409094 -0.0056645 -0.0047007 0.0000015 0.0007558 0.0002871 0.0001693 0.0003803 0.0007825 0.0002793 -0.0005210 0.0003093 0.0010490 0.0000367 0.0004215
-0.0031911 0.0006903 -0.0069553 0.0044490 0.0091826 -0.0275299 -0.0007958 -0.0229860 0.0000016 0.0008843 0.0002881 0.0002751 0.0003603 0.0008035 0.0002654 -0.0005770 0.0003182 0.0009696 0.0001038 0.0003142
-0.0035706 0.0083238 -0.0045166 0.0078642 0.0013591 -0.0099393 0.0116912 -0.0332273 0.0000024 0.0008236 0.0002734 0.0001131 0.0003115 0.0006908 0.0002542 -0.0007566 0.0003217 0.0007783 0.0000592 0.0002126
-0.0036680 0.0042393 0.0001674 0.0082436 0.0005643 0.0022438 0.0017203 0.0007593 -0.0000004 0.0007096 0.0002649 0.0000205 0.0003565 0.0006831 0.0002378 -0.0007648 0.0003070 0.0008289 0.0000786 0.0002391
0.0089138 -0.0153690 -0.0025780 0.0092552 0.0012031 -0.0003096 -0.0036897 0.0096030 -0.0000032 0.0007304 0.0002623 0.0001397 0.0004476 0.0007184 0.0002303 -0.0007005 0.0003076 0.0009339 0.0001168 0.0002946
0.0020985 0.0037339 -0.0097962 0.0141554 0.0015294 -0.0057266 0.0023968 -0.0096407 -0.0000040 0.0007969 0.0002488 0.0002941 0.0005010 0.0007983 0.0002232 -0.0005999 0.0003109 0.0010697 0.0001158 0.0004166
-0.0040634 0.0102606 -0.0007427 -0.0029762 -0.0011951 0.0034871 0.0085450 -0.0212994 0.0000053 0.0009296 0.0002239 0.0003295 0.0005068 0.0008210 0.0002165 -0.0006312 0.0003200 0.0009943 0.0000714 0.0003864
0.0028690 -0.0033166 0.0148237 -0.0321226 -0.0004351 -0.0052760 0.0006384 -0.0043949 0.0000165 0.0008457 0.0001737 0.0000483 0.0004474 0.0006565 0.0001968 -0.0008164 0.0003336 0.0007941 0.0000306 0.0001896
-0.0002049 -0.0011739 0.0018326 0.0019792 -0.0039358 0.0055141 -0.0036383 0.0093474 -0.0000027 0.0006238 0.0001267 -0.0001290 0.0004037 0.0006184 0.0001784 -0.0008409 0.0003468 0.0008443 -0.0000078 0.0002129
-0.0061596 0.0109629 -0.0083169 0.0029417 -0.0038020 0.0116577 -0.0010077 0.0116997 -0.0000337 0.0005489 0.0001111 -0.0000747 0.0003744 0.0007826 0.0001884 -0.0006963 0.0003509 0.0009591 -0.0000163 0.0003192
0.0031425 0.0012940 0.0069655 -0.0268236 0.0038510 -0.0084410 0.0017633 -0.0032564 -0.0000447 0.0006108 0.0001013 0.0000368 0.0003581 0.0009620 0.0002000 -0.0005087 0.0003454 0.0010922 0.0000129 0.0004297
0.0030180 -0.0036145 0.0032105 -0.0114587 0.0034218 -0.0141943 0.0028191 -0.0116683 -0.0000535 0.0007346 0.0000995 0.0000477 0.0003178 0.0009691 0.0002021 -0.0005483 0.0003563 0.0009838 0.0000607 0.0003582
0.0027332 -0.0036238 0.0046681 -0.0183815 -0.0041624 -0.0011372 -0.0046868 0.0087171 -0.0000625 0.0006413 0.0001022 -0.0001603 0.0003147 0.0008341 0.0002087 -0.0006490 0.0003570 0.0007981 0.0001193 0.0001547
0.0066911 -0.0114881 0.0081166 -0.0135036 0.0012621 -0.0014127 -0.0043263 0.0033298 -0.0000745 0.0005065 0.0001159 -0.0002378 0.0002974 0.0009311 0.0002328 -0.0005092 0.0003617 0.0008753 0.0001045 0.0002198
-0.0055241 0.0092772 0.0030703 0.0033656 -0.0031316 0.0078390 -0.0043110 0.0063146 -0.0000891 0.0005169 0.0001303 -0.0001374 0.0003136 0.0010704 0.0002651 -0.0002826 0.0003576 0.0009998 0.0001489 0.0003177
-0.0032598 0.0126156 0.0061722 -0.0011268 -0.0053386 0.0089595 -0.0048830 0.0144080 -0.0000934 0.0005829 0.0001317 0.0000218 0.0003813 0.0011203 0.0002846 -0.0000980 0.0003506 0.0011356 0.0002086 0.0004447
0.0053785 -0.0045365 0.0051587 -0.0028030 -0.0064680 0.0087090 0.0038931 -0.0068469 -0.0000899 0.0007468 0.0001251 0.0000911 0.0004651 0.0010382 0.0002723 -0.0001714 0.0003510 0.0010452 0.0001906 0.0004447
0.0058477 -0.0101430 0.0021177 -0.0031489 -0.0092175 0.0198409 -0.0009572 -0.0009258 -0.0000876 0.0006982 0.0001099 -0.0000821 0.0004885 0.0008713 0.0002692 -0.0002846 0.0003345 0.0008326 0.0001542 0.0003457
0.0061503 -0.0067371 0.0073437 -0.0267223 -0.0050935 0.0153614 -0.0057850 0.0027132 -0.0000855 0.0005883 0.0001100 -0.0001254 0.0004554 0.0009114 0.0002936 -0.0001725 0.0003327 0.0008704 0.0001447 0.0003980
0.0147978 -0.0268690 0.0063659 -0.0084157 -0.0062945 0.0056035 -0.0001190 -0.0027282 -0.0000929 0.0006380 0.0001227 -0.0000037 0.0004463 0.0010233 0.0003341 -0.0000154 0.0003506 0.0009647 0.0001320 0.0005366
0.0053842 -0.0140124 0.0065333 -0.0037912 0.0039650 -0.0223061 -0.0004025 0.0031832 -0.0000997 0.0007135 0.0001352 0.0001459 0.0004334 0.0011117 0.0003710 0.0001859 0.0003673 0.0010932 0.0001390 0.0006772
-0.0096572 0.0096142 0.0169410 -0.0338147 0.0075785 -0.0210245 -0.0012086 -0.0024828 -0.0000885 0.0008614 0.0001433 0.0002395 0.0004228 0.0011378 0.0003743 0.0001702 0.0003756 0.0010395 0.0001417 0.0006321
-0.0076177 0.0128510 0.0063949 -0.0047441 0.0011830 -0.0067091 0.0002680 -0.0036141 -0.0000775 0.0008092 0.0001503 0.0000537 0.0003370 0.0010964 0.0003712 0.0000264 0.0003782 0.0008905 0.0001688 0.0005223
-0.0025713 0.0094643 0.0001944 0.0024967 0.0059916 -0.0145404 0.0019829 -0.0062289 -0.0000753 0.0007000 0.0001562 -0.0000437 0.0003042 0.0010862 0.0003715 0.0000614 0.0003894 0.0009675 0.0002044 0.0005205
-0.0009715 0.0021216 0.0121869 -0.0356209 0.0057682 -0.0108695 0.0002896 -0.0050636 -0.0000812 0.0007318 0.0001642 0.0000701 0.0002869 0.0011960 0.0003666 0.0001282 0.0003900 0.0010762 0.0001848 0.0006355
-0.0035326 0.0052889 0.0172511 -0.0439755 0.0012541 -0.0075944 0.0000631 -0.0054645 -0.0000831 0.0008124 0.0001702 0.0002146 0.0002598 0.0013524 0.0003532 0.0002186 0.0003722 0.0012208 0.0002170 0.0007834
-0.0022601 0.0077488 0.0100415 -0.0255613 0.0042794 -0.0087956 -0.0058382 -0.0022403 -0.0000748 0.0009611 0.0001643 0.0002763 0.0003069 0.0012916 0.0003404 0.0001493 0.0003691 0.0011551 0.0002371 0.0006863
-0.0002199 -0.0018732 0.0030463 -0.0087839 0.0025031 -0.0071604 -0.0022523 -0.0024245 -0.0000744 0.0008759 0.0001493 0.0000767 0.0004100 0.0010814 0.0003377 0.0000352 0.0003696 0.0010135 0.0001980 0.0005511
0.0032029 -0.0097055 0.0053188 -0.0165315 -0.0026709 -0.0073308 0.0007367 -0.0024409 -0.0000758 0.0007521 0.0001488 0.0000021 0.0004916 0.0010360 0.0003379 0.0000913 0.0003727 0.0010962 0.0001843 0.0005890
0.0099244 -0.0235891 0.0071192 -0.0284909 -0.0029823 -0.0022330 -0.0051627 0.0107417 -0.0000791 0.0007518 0.0001538 0.0001202 0.0004600 0.0011919 0.0003405 0.0001803 0.0003772 0.0012219 0.0001877 0.0006631
-0.0001518 -0.0005796 0.0008713 -0.0099922 -0.0041316 0.0084350 -0.0057883 0.0064496 -0.0000801 0.0007640 0.0001365 0.0002472 0.0004377 0.0014008 0.0003499 0.0002854 0.0003869 0.0013584 0.0001855 0.0007784
0.0030946 -0.0005907 -0.0001133 0.0019786 -0.0034479 0.0074684 0.0037584 -0.0318461 -0.0000761 0.0008709 0.0001277 0.0002992 0.0004472 0.0013586 0.0003549 0.0002068 0.0004052 0.0012500 0.0001599 0.0006925
0.0171221 -0.0323778 -0.0015091 0.0107748 0.0035263 -0.0071821 0.0048861 -0.0283351 -0.0000754 0.0007930 0.0001152 0.0001490 0.0004307 0.0012280 0.0003473 0.0000756 0.0003968 0.0010774 0.0001351 0.0005751
0.0069324 -0.0148496 -0.0025230 0.0094531 0.0083025 -0.0201747 -0.0021955 0.0026750 -0.0000749 0.0006853 0.0001145 0.0001175 0.0003856 0.0012967 0.0003465 0.0001111 0.0003906 0.0011442 0.0001449 0.0006469
0.0034955 -0.0119262 0.0011545 -0.0019530 0.0086012 -0.0281283 -0.0054131 0.0095483 -0.0000783 0.0007229 0.0001324 0.0002220 0.0003434 0.0013915 0.0003484 0.0001868 0.0003967 0.0012289 0.0001437 0.0007137
0.0107256 -0.0335039 0.0016080 -0.0026403 0.0027994 -0.0071751 -0.0069332 0.0074413 -0.0000864 0.0007684 0.0001466 0.0003513 0.0002834 0.0015545 0.0003504 0.0002927 0.0004028 0.0013553 0.0001465 0.0008277
0.0032751 -0.0206208 -0.0002540 -0.0018811 -0.0006716 -0.0039029 -0.0038826 0.0080975 -0.0000927 0.0008404 0.0001432 0.0003595 0.0002851 0.0014391 0.0003495 0.0002004 0.0004315 0.0012847 0.0002238 0.0008115
0.0041868 -0.0107664 0.0022079 0.0014234 0.0006890 0.0016160 -0.0020443 0.0097236 -0.0000886 0.0007431 0.0001390 0.0001805 0.0003012 0.0012462 0.0003457 0.0000706 0.0004661 0.0011912 0.0002903 0.0007390
0.0018121 -0.0024305 -0.0005248 0.0078930 0.0006070 0.0082643 -0.0015711 0.0077097 -0.0000828 0.0006556 0.0001474 0.0001793 0.0003541 0.0012582 0.0003382 0.0001359 0.0004734 0.0013010 0.0002933 0.0007419
-0.0080915 0.0104061 -0.0056855 0.0056830 -0.0060190 0.0108818 0.0003072 -0.0028952 -0.0000866 0.0006971 0.0001507 0.0002875 0.0004069 0.0012867 0.0003392 0.0002234 0.0004587 0.0013778 0.0002944 0.0007402
-0.0007593 -0.0003272 0.0001018 0.0018682 -0.0056754 0.0060304 0.0054722 -0.0116232 -0.0000898 0.0007517 0.0001503 0.0003972 0.0003688 0.0014646 0.0003461 0.0003485 0.0004420 0.0014915 0.0003000 0.0008544
0.0013510 -0.0084170 0.0002255 0.0086124 -0.0003659 -0.0074888 0.0025974 -0.0048968 -0.0000797 0.0008089 0.0001234 0.0003005 0.0004015 0.0013551 0.0003437 0.0002474 0.0004301 0.0013149 0.0002511 0.0007842
-0.0105011 0.0023792 0.0004699 0.0098476 -0.0095642 0.0122290 -0.0016502 0.0038135 -0.0000677 0.0006895 0.0001179 0.0000890 0.0004291 0.0011191 0.0003465 0.0001411 0.0004187 0.0011207 0.0002129 0.0006489
0.0002125 -0.0066680 0.0046727 0.0011001 -0.0051070 0.0154236 -0.0011021 0.0061502 -0.0000646 0.0005763 0.0001241 0.0001562 0.0004196 0.0011512 0.0003582 0.0002452 0.0004172 0.0012176 0.0002324 0.0007145
-0.0003692 0.0006998 0.0021253 0.0046535 0.0040090 0.0017399 -0.0029707 0.0055956 -0.0000663 0.0006159 0.0001236 0.0002883 0.0004022 0.0012595 0.0003750 0.0003403 0.0004306 0.0013334 0.0002111 0.0008391
-0.0042234 0.0082312 -0.0022962 0.0080799 0.0022097 -0.0074453 -0.0004535 -0.0010390 -0.0000696 0.0007054 0.0001367 0.0004047 0.0003839 0.0014238 0.0003816 0.0004519 0.0004368 0.0014833 0.0001986 0.0009596
-0.0032304 0.0125986 -0.0052250 0.0073534 -0.0066355 0.0002495 0.0053039 -0.0156601 -0.0000655 0.0006871 0.0001345 0.0002501 0.0003013 0.0013793 0.0003745 0.0003299 0.0004373 0.0013365 0.0002187 0.0008382
-0.0088446 0.0171130 -0.0103896 0.0092565 -0.0112223 0.0080060 0.0117164 -0.0338495 -0.0000626 0.0005680 0.0001324 0.0000709 0.0002648 0.0012296 0.0003756 0.0002296 0.0004316 0.0012168 0.0002388 0.0007238
-0.0024729 -0.0000413 -0.0039359 0.0145272 0.0049370 -0.0078169 -0.0003701 -0.0050927 -0.0000641 0.0005325 0.0001341 0.0001549 0.0003117 0.0012573 0.0003696 0.0003192 0.0004260 0.0013410 0.0002468 0.0008186
0.0030994 -0.0023261 -0.0033995 0.0161494 0.0084427 -0.0054904 -0.0037440 -0.0052926 -0.0000706 0.0005702 0.0001357 0.0002692 0.0003444 0.0012993 0.0003559 0.0003849 0.0004196 0.0014482 0.0002382 0.0009367
0.0024310 -0.0019649 -0.0024579 -0.0078829 0.0025396 -0.0060234 -0.0066646 -0.0005567 -0.0000764 0.0006605 0.0001426 0.0004126 0.0003533 0.0013254 0.0003526 0.0003761 0.0004200 0.0014444 0.0002993 0.0008514
0.0027094 -0.0042775 0.0083413 -0.0322712 -0.0040493 0.0014869 -0.0040342 0.0146652 -0.0000735 0.0005941 0.0001327 0.0002701 0.0003054 0.0012673 0.0003458 0.0002724 0.0004148 0.0012941 0.0003248 0.0007226
0.0008525 -0.0034701 -0.0011556 -0.0094833 -0.0058720 0.0080777 -0.0026184 0.0079709 -0.0000701 0.0004758 0.0001255 0.0001450 0.0003455 0.0011808 0.0003412 0.0002715 0.0004024 0.0013134 0.0003251 0.0007284
-0.0045457 0.0079408 -0.0000982 -0.0017178 -0.0026698 -0.0070008 -0.0012786 -0.0090839 -0.0000699 0.0004777 0.0001276 0.0002482 0.0003926 0.0012129 0.0003354 0.0003640 0.0004025 0.0014401 0.0003232 0.0008381
0.0037043 -0.0026946 0.0005525 0.0043396 -0.0062448 -0.0032868 -0.0028343 0.0026820 -0.0000700 0.0005224 0.0001155 0.0003671 0.0003813 0.0013193 0.0003341 0.0004668 0.0004061 0.0015687 0.0003103 0.0010167
0.0061712 -0.0102388 0.0047788 -0.0058920 0.0011094 -0.0054434 -0.0012584 0.0031410 -0.0000699 0.0006106 0.0001049 0.0003763 0.0004064 0.0012385 0.0003390 0.0004016 0.0004141 0.0014730 0.0002676 0.0009659
0.0046170 0.0043165 0.0034331 0.0049016 -0.0006703 0.0047472 -0.0003135 0.0040565 -0.0000677 0.0005314 0.0001032 0.0002174 0.0004039 0.0011478 0.0003373 0.0003190 0.0004044 0.0013457 0.0002085 0.0008990
0.0144115 -0.0155310 -0.0015917 0.0148956 -0.0000071 0.0076976 -0.0086761 0.0141189 -0.0000642 0.0004290 0.0001103 0.0002088 0.0003344 0.0012652 0.0003364 0.0003804 0.0003951 0.0014375 0.0002243 0.0009589
0.0152986 -0.0308447 -0.0027248 0.0123506 0.0044311 -0.0027825 -0.0017116 -0.0003403 -0.0000644 0.0004507 0.0001196 0.0003153 0.0003350 0.0013149 0.0003418 0.0004611 0.0004062 0.0015476 0.0002367 0.0010372
-0.0064380 0.0063443 0.0022816 0.0070129 0.0126425 -0.0251874 -0.0022172 0.0115104 -0.0000677 0.0005036 0.0001215 0.0004461 0.0003330 0.0014407 0.0003439 0.0005730 0.0004102 0.0016876 0.0002304 0.0011445
-0.0207536 0.0210792 0.0008235 0.0053274 0.0189038 -0.0351335 -0.0133617 0.0213527 -0.0000678 0.0004822 0.0001142 0.0003238 0.0003031 0.0013451 0.0003378 0.0004770 0.0004042 0.0015600 0.0002094 0.0010586
-0.0062439 0.0015235 -0.0072430 0.0102999 0.0095640 -0.0219105 -0.0194566 0.0202744 -0.0000633 0.0003794 0.0001133 0.0001664 0.0002913 0.0012315 0.0003324 0.0003969 0.0004000 0.0014379 0.0002349 0.0009602
-0.0027610 0.0018339 0.0036226 -0.0037935 0.0014498 -0.0075691 0.0013096 -0.0017418 -0.0000631 0.0003699 0.0001155 0.0002452 0.0002806 0.0013155 0.0003347 0.0004705 0.0004032 0.0015580 0.0003030 0.0010227
0.0029152 -0.0085979 0.0037841 0.0040068 0.0030558 -0.0071134 0.0059478 -0.0120786 -0.0000642 0.0004149 0.0001196 0.0003385 0.0003444 0.0013377 0.0003385 0.0005545 0.0004037 0.0016692 0.0003591 0.0010789
0.0149483 -0.0451248 -0.0058729 0.0181859 -0.0023143 0.0035956 -0.0088362 0.0166113 -0.0000699 0.0004737 0.0001219 0.0004179 0.0003437 0.0013705 0.0003315 0.0005647 0.0003932 0.0015368 0.0003534 0.0010179
-0.0064316 0.0107289 -0.0036175 0.0086701 -0.0075270 0.0112178 -0.0005830 0.0095775 -0.0000682 0.0003771 0.0001131 0.0002873 0.0003062 0.0012050 0.0003309 0.0004593 0.0003866 0.0013286 0.0003297 0.0009030
-0.0073595 0.0189105 0.0047682 -0.0114892 0.0036065 -0.0155147 0.0083831 -0.0131736 -0.0000504 0.0002726 0.0001098 0.0001835 0.0003740 0.0010913 0.0003304 0.0004264 0.0003961 0.0014173 0.0003045 0.0009296
-0.0011906 0.0054438 -0.0056771 0.0040042 0.0095801 -0.0166075 0.0054885 -0.0122185 -0.0000460 0.0002974 0.0001080 0.0002288 0.0004039 0.0011684 0.0003125 0.0004598 0.0004066 0.0015718 0.0002662 0.0010686
-0.0082297 0.0140134 -0.0087576 0.0135188 0.0040558 -0.0007082 0.0048512 -0.0097256 -0.0000510 0.0003299 0.0001083 0.0003108 0.0003947 0.0012455 0.0003013 0.0005268 0.0003993 0.0017181 0.0002791 0.0011779
-0.0057576 0.0084768 -0.0073633 0.0133648 -0.0000582 0.0030624 -0.0014817 0.0041497 -0.0000486 0.0003316 0.0000927 0.0001939 0.0003767 0.0011356 0.0003013 0.0003917 0.0003942 0.0015616 0.0002485 0.0010663
0.0095273 -0.0187780 0.0003902 0.0034197 0.0078343 -0.0147033 -0.0051192 0.0129062 -0.0000502 0.0001846 0.0000743 -0.0000750 0.0003495 0.0009430 0.0003069 0.0002327 0.0004018 0.0013358 0.0001955 0.0009224
0.0044144 -0.0146777 0.0017534 -0.0012124 0.0122101 -0.0346801 -0.0034905 0.0077123 -0.0000561 0.0000717 0.0000858 -0.0001206 0.0003265 0.0009086 0.0003118 0.0002610 0.0004122 0.0013871 0.0001935 0.0009371
0.0027917 -0.0088772 -0.0017244 -0.0029250 -0.0013826 -0.0059463 -0.0018111 0.0015956 -0.0000580 0.0000683 0.0001031 -0.0000523 0.0002658 0.0010366 0.0003103 0.0003281 0.0004068 0.0014925 0.0002171 0.0010122
0.0083000 -0.0168846 0.0080171 -0.0177691 0.0055082 -0.0116684 0.0048104 -0.0140890 -0.0000652 0.0001151 0.0001015 0.0000730 0.0002573 0.0011666 0.0003133 0.0004320 0.0003998 0.0016397 0.0002309 0.0011154
0.0045276 -0.0047143 0.0043837 -0.0092929 0.0046295 -0.0089440 0.0038011 -0.0106543 -0.0000619 0.0001028 0.0000927 -0.0000775 0.0002810 0.0009709 0.0003062 0.0002994 0.0003921 0.0014627 0.0002793 0.0009159
0.0069301 -0.0060181 0.0060060 -0.0087595 -0.0063450 0.0079411 0.0010979 0.0009508 -0.0000497 -0.0000544 0.0000864 -0.0003558 0.0002743 0.0007519 0.0002961 0.0001387 0.0003752 0.0012460 0.0003018 0.0007242
0.0085098 -0.0130751 0.0104913 -0.0211004 -0.0071655 0.0080905 0.0055703 -0.0075257 -0.0000526 -0.0001408 0.0000773 -0.0003801 0.0002683 0.0007339 0.0002945 0.0001632 0.0003609 0.0012706 0.0002738 0.0007891
0.0039943 -0.0012488 0.0109422 -0.0274102 -0.0017922 -0.0089116 0.0061391 -0.0102167 -0.0000603 -0.0001366 0.0000731 -0.0002876 0.0003100 0.0007456 0.0002925 0.0002417 0.0003602 0.0013251 0.0002898 0.0008558
0.0041455 0.0038790 0.0040718 0.0026210 0.0007726 -0.0117466 -0.0003433 0.0026434 -0.0000589 -0.0000702 0.0000841 -0.0001119 0.0003519 0.0008251 0.0002979 0.0003818 0.0003642 0.0014841 0.0002798 0.0010134
0.0032720 -0.0002888 -0.0025385 0.0140037 0.0020539 -0.0066599 0.0032382 -0.0094189 -0.0000395 -0.0000268 0.0000735 -0.0002091 0.0003836 0.0006430 0.0003035 0.0002869 0.0003540 0.0013344 0.0002543 0.0009506
0.0012622 -0.0093822 0.0024159 -0.0075115 0.0041129 -0.0112021 0.0022082 -0.0074992 -0.0000258 -0.0001484 0.0000503 -0.0004609 0.0003810 0.0004425 0.0003078 0.0001523 0.0003567 0.0011073 0.0002151 0.0008121
-0.0016546 -0.0071279 0.0065712 -0.0099893 0.0007281 0.0001029 -0.0039071 0.0078462 -0.0000276 -0.0002212 0.0000536 -0.0004794 0.0003595 0.0004623 0.0003187 0.0002019 0.0003636 0.0011696 0.0001848 0.0008379
-0.0052108 0.0048598 0.0046556 -0.0006201 0.0047893 -0.0109684 -0.0137898 0.0159695 -0.0000236 -0.0001787 0.0000642 -0.0004092 0.0003092 0.0005495 0.0003336 0.0002685 0.0003569 0.0012596 0.0001984 0.0009296
-0.0029908 0.0009294 0.0104428 -0.0140745 0.0064483 -0.0119169 -0.0171991 0.0070209 -0.0000107 -0.0000859 0.0000601 -0.0002825 0.0002476 0.0007160 0.0003371 0.0003790 0.0003523 0.0014008 0.0002047 0.0011040
-0.0054189 0.0087110 0.0022234 -0.0031892 0.0093491 -0.0146757 0.0003541 -0.0101897 0.0000008 0.0000350 0.0000454 -0.0002256 0.0002392 0.0007186 0.0003270 0.0003187 0.0003622 0.0013140 0.0001972 0.0010104
-0.0111899 0.0109748 0.0011926 -0.0010342 0.0063515 -0.0101085 0.0024869 -0.0038055 0.0000030 -0.0000606 0.0000440 -0.0004484 0.0001941 0.0005682 0.0003100 0.0001433 0.0003612 0.0011156 0.0002102 0.0007922
0.0049003 -0.0178492 0.0048251 -0.0058001 0.0032929 -0.0062734 -0.0032058 0.0048760 0.0000098 -0.0001994 0.0000436 -0.0005646 0.0001575 0.0005121 0.0003005 0.0001257 0.0003565 0.0011560 0.0002246 0.0007750
0.0142207 -0.0279663 -0.0026829 0.0019323 0.0123096 -0.0261133 -0.0093665 0.0133593 0.0000110 -0.0001769 0.0000454 -0.0004817 0.0001482 0.0006099 0.0002990 0.0001953 0.0003559 0.0012756 0.0002141 0.0008807
0.0026126 -0.0091041 -0.0016755 -0.0089377 0.0053266 -0.0121398 -0.0058347 0.0149874 0.0000072 -0.0001020 0.0000559 -0.0003604 0.0002064 0.0007041 0.0002917 0.0002925 0.0003437 0.0014236 0.0002407 0.0010086
0.0008180 -0.0037274 0.0010571 -0.0051166 0.0037921 -0.0088255 -0.0041962 0.0139643 0.0000202 0.0000288 0.0000601 -0.0001396 0.0002825 0.0007793 0.0002863 0.0003990 0.0003417 0.0015836 0.0002865 0.0010676
0.0092343 -0.0137313 -0.0021100 0.0053360 0.0050971 -0.0109344 0.0014166 -0.0006650 0.0000360 0.0000461 0.0000468 -0.0002717 0.0003464 0.0005987 0.0002741 0.0002667 0.0003385 0.0014349 0.0002833 0.0009184
0.0062891 -0.0096911 0.0019340 -0.0097375 -0.0015477 0.0003187 -0.0002885 -0.0015050 0.0000424 -0.0000384 0.0000274 -0.0004592 0.0003687 0.0004552 0.0002610 0.0001158 0.0003425 0.0012700 0.0002492 0.0007948
-0.0000583 0.0022463 0.0061783 -0.0242849 -0.0007414 -0.0030364 -0.0017091 0.0011864 0.0000438 -0.0000393 0.0000289 -0.0003682 0.0003216 0.0005870 0.0002603 0.0001530 0.0003555 0.0013634 0.0002142 0.0008814
0.0013597 0.0031320 -0.0066400 0.0087415 0.0011071 -0.0079867 0.0021683 0.0031753 0.0000506 0.0000225 0.0000329 -0.0002436 0.0003005 0.0007353 0.0002672 0.0002135 0.0003620 0.0014861 0.0001576 0.0010252
0.0078792 -0.0173170 -0.0113253 0.0139617 -0.0005027 -0.0003530 0.0025783 -0.0062166 0.0000639 0.0001209 0.0000291 -0.0000515 0.0002911 0.0008946 0.0002705 0.0003434 0.0003673 0.0016651 0.0001320 0.0011752
0.0011845 0.0026038 -0.0069933 -0.0018399 0.0048397 -0.0107354 0.0161678 -0.0528089 0.0000734 0.0002278 0.0000250 -0.0000747 0.0003033 0.0008425 0.0002611 0.0002754 0.0003634 0.0015393 0.0001306 0.0010651
-0.0096316 0.0253062 0.0127121 -0.0325102 0.0117247 -0.0347182 0.0057663 -0.0255238 0.0000764 0.0001797 0.0000294 -0.0002356 0.0002542 0.0007691 0.0002593 0.0001795 0.0003600 0.0013663 0.0001560 0.0008869
-0.0066036 0.0144861 0.0180326 -0.0484559 -0.0015541 -0.0013644 -0.0058140 0.0099732 0.0000823 0.0001249 0.0000491 -0.0002260 0.0002176 0.0008357 0.0002741 0.0002447 0.0003629 0.0014387 0.0001822 0.0009055
0.0027171 -0.0041674 0.0002694 -0.0006759 -0.0037056 0.0123715 0.0003954 0.0034667 0.0000819 0.0001948 0.0000674 -0.0001179 0.0002179 0.0009780 0.0002817 0.0003311 0.0003574 0.0015227 0.0001733 0.0009744
-0.0069962 0.0078244 -0.0029916 0.0072698 0.0005957 0.0006063 0.0010660 -0.0012849 0.0000770 0.0003008 0.0000776 0.0000451 0.0002132 0.0011453 0.0002794 0.0004710 0.0003460 0.0016569 0.0002122 0.0010964
-0.0091694 0.0170539 -0.0118698 0.0219616 0.0075159 -0.0167024 0.0012868 -0.0003708 0.0000903 0.0004137 0.0000622 0.0000539 0.0002432 0.0010366 0.0002706 0.0003977 0.0003438 0.0015112 0.0002214 0.0010207
0.0027047 0.0039003 -0.0042148 0.0097239 0.0033977 -0.0060459 0.0049538 -0.0078101 0.0001014 0.0003530 0.0000436 -0.0000940 0.0003281 0.0008286 0.0002593 0.0002703 0.0003346 0.0013163 0.0002151 0.0008339
0.0119028 -0.0216280 0.0355381 -0.0926797 -0.0048099 0.0073515 0.0048324 -0.0141307 0.0001004 0.0002930 0.0000530 -0.0000883 0.0003960 0.0008292 0.0002599 0.0003030 0.0003299 0.0013917 0.0002472 0.0008057
0.0108485 -0.0311872 0.0075154 -0.0186273 -0.0110031 0.0093529 0.0001346 -0.0037738 0.0000974 0.0003531 0.0000660 0.0000276 0.0003491 0.0009995 0.0002616 0.0003630 0.0003354 0.0015004 0.0002082 0.0009149
0.0016791 -0.0048802 -0.0024701 0.0093718 -0.0065208 -0.0007336 -0.0065601 0.0113548 0.0000987 0.0004317 0.0000603 0.0001908 0.0003449 0.0011715 0.0002569 0.0004821 0.0003379 0.0016584 0.0001634 0.0010925
0.0022029 0.0004658 0.0021044 -0.0053996 -0.0096614 0.0064431 -0.0050892 0.0021591 0.0001094 0.0005230 0.0000465 0.0001562 0.0004014 0.0010192 0.0002526 0.0003811 0.0003350 0.0015185 0.0001527 0.0009555
0.0044399 -0.0048283 0.0091924 -0.0366889 -0.0152078 0.0160603 -0.0013070 -0.0007839 0.0001184 0.0004348 0.0000422 -0.0000495 0.0004159 0.0008255 0.0002492 0.0002268 0.0003309 0.0012944 0.0001275 0.0007575
0.0007212 -0.0013731 -0.0021215 0.0069663 -0.0003056 -0.0046189 -0.0015076 0.0002950 0.0001174 0.0003306 0.0000475 -0.0000605 0.0003571 0.0009194 0.0002567 0.0002697 0.0003379 0.0013485 0.0001334 0.0007513
0.0113739 -0.0235973 -0.0082509 0.0234446 0.0075426 -0.0241674 -0.0107222 0.0103399 0.0001090 0.0003634 0.0000572 0.0000372 0.0003141 0.0010510 0.0002693 0.0003552 0.0003433 0.0014437 0.0001115 0.0008284
0.0193076 -0.0421474 -0.0040659 0.0077910 0.0008072 -0.0053716 -0.0072319 0.0113600 0.0001051 0.0004292 0.0000784 0.0001656 0.0002682 0.0012575 0.0002761 0.0004802 0.0003481 0.0015825 0.0000989 0.0009633
0.0059003 -0.0155269 0.0175065 -0.0409102 0.0024428 -0.0069162 0.0018823 -0.0005802 0.0001030 0.0004839 0.0000761 0.0000802 0.0002463 0.0011634 0.0002740 0.0003601 0.0003467 0.0013985 0.0001391 0.0007588
-0.0072715 0.0090819 0.0158218 -0.0237791 0.0074968 -0.0093739 -0.0035460 0.0076554 0.0001020 0.0003709 0.0000537 -0.0001415 0.0002704 0.0009164 0.0002668 0.0001848 0.0003387 0.0011378 0.0001519 0.0005039
-0.0082161 0.0174363 0.0112987 -0.0107362 0.0092761 -0.0100931 -0.0034568 0.0066110 0.0000994 0.0002685 0.0000642 -0.0001559 0.0002934 0.0009377 0.0002580 0.0002100 0.0003243 0.0011853 0.0001434 0.0005101
0.0036192 -0.0033840 0.0048482 -0.0086010 0.0051637 -0.0169599 0.0046233 -0.0038454 0.0000950 0.0002782 0.0000794 -0.0000738 0.0003611 0.0009425 0.0002523 0.0002489 0.0003131 0.0012717 0.0001996 0.0005262
0.0121964 -0.0263778 0.0049413 -0.0079227 -0.0023758 -0.0004816 0.0033169 0.0040761 0.0000854 0.0003413 0.0000843 0.0000730 0.0003465 0.0010869 0.0002527 0.0003467 0.0003151 0.0014149 0.0002312 0.0006396
0.0032476 -0.0030044 0.0070051 -0.0176438 -0.0045261 0.0061431 -0.0025616 0.0125701 0.0000842 0.0003897 0.0000741 -0.0000241 0.0003653 0.0009735 0.0002449 0.0002229 0.0003050 0.0012349 0.0001798 0.0005074
0.0121256 -0.0187045 0.0082340 -0.0229279 -0.0000302 -0.0123454 -0.0002012 0.0018781 0.0000917 0.0002579 0.0000596 -0.0002664 0.0004258 0.0007057 0.0002373 0.0000428 0.0002931 0.0009748 0.0001498 0.0002984
0.0100531 -0.0135067 0.0124125 -0.0262031 0.0063379 -0.0200561 0.0081705 -0.0228291 0.0000895 0.0001595 0.0000533 -0.0002501 0.0004189 0.0007136 0.0002288 0.0000640 0.0002862 0.0010242 0.0001464 0.0003095
-0.0050600 0.0103949 0.0037953 -0.0063115 0.0079807 -0.0154471 0.0024528 -0.0090900 0.0000826 0.0001764 0.0000573 -0.0001625 0.0004098 0.0007985 0.0002283 0.0000961 0.0002771 0.0011133 0.0001214 0.0003469
0.0013323 0.0052154 0.0038476 -0.0038096 0.0074508 -0.0098767 0.0009029 -0.0100814 0.0000736 0.0002376 0.0000654 -0.0000187 0.0004074 0.0009881 0.0002250 0.0001821 0.0002733 0.0012342 0.0000643 0.0004690
0.0071052 -0.0042301 0.0020541 -0.0007897 -0.0003137 0.0008730 0.0071343 -0.0172024 0.0000803 0.0002089 0.0000569 -0.0001580 0.0003829 0.0008708 0.0002123 0.0000502 0.0002679 0.0010494 0.0000279 0.0003327
0.0026191 -0.0010438 -0.0029972 0.0100217 -0.0043137 0.0053886 0.0030139 -0.0012884 0.0000850 0.0000808 0.0000483 -0.0003860 0.0003548 0.0006713 0.0002160 -0.0001002 0.0002679 0.0008605 0.0000247 0.0001576
-0.0048574 0.0139445 0.0046332 -0.0002647 0.0036186 0.0018301 -0.0080041 0.0189408 0.0000760 0.0000502 0.0000540 -0.0003454 0.0003548 0.0007159 0.0002156 -0.0000504 0.0002714 0.0009414 0.0000220 0.0001904
-0.0020823 0.0123462 0.0021729 0.0037174 0.0042534 -0.0008241 -0.0093934 0.0158450 0.0000691 0.0000872 0.0000694 -0.0002567 0.0003347 0.0007802 0.0002214 0.0000118 0.0002744 0.0010275 0.0000071 0.0002735
0.0053217 -0.0005200 -0.0042802 0.0155048 -0.0051840 0.0039330 -0.0069570 0.0107538 0.0000616 0.0001776 0.0000823 -0.0000855 0.0002913 0.0008647 0.0002365 0.0000040 0.0002733 0.0009633 0.0000369 0.0001965
0.0048209 -0.0014524 -0.0066727 0.0134504 -0.0000073 -0.0077482 0.0008486 0.0031842 0.0000560 0.0001194 0.0000820 -0.0002498 0.0002581 0.0006883 0.0002399 -0.0001435 0.0002685 0.0007038 0.0000803 -0.0000062
0.0091983 -0.0116492 -0.0112161 0.0082039 0.0009846 -0.0044097 0.0126377 -0.0287136 0.0000569 0.0000039 0.0000840 -0.0004700 0.0003159 0.0004929 0.0002295 -0.0001997 0.0002544 0.0006537 0.0001242 -0.0000573
-0.0042240 0.0123230 -0.0129063 0.0116158 -0.0094022 0.0148836 0.0078684 -0.0181275 0.0000597 0.0000080 0.0000882 -0.0004284 0.0003418 0.0005557 0.0002188 -0.0001296 0.0002363 0.0007542 0.0001336 0.0000001
-0.0141845 0.0299399 -0.0013488 -0.0051903 -0.0037848 0.0113798 0.0094739 -0.0172256 0.0000611 0.0000379 0.0000915 -0.0003237 0.0003193 0.0006118 0.0002283 -0.0000204 0.0002371 0.0008633 0.0001049 0.0001073
-0.0040927 0.0050792 0.0195513 -0.0400926 0.0091129 -0.0104835 0.0101901 -0.0257774 0.0000626 0.0001240 0.0000951 -0.0003130 0.0003772 0.0004947 0.0002319 -0.0001053 0.0002371 0.0007245 0.0000751 0.0000003
0.0118997 -0.0235935 0.0065006 0.0000365 0.0084540 -0.0096448 0.0096452 -0.0268110 0.0000659 0.0000392 0.0000816 -0.0005562 0.0004063 0.0002928 0.0002240 -0.0003100 0.0002339 0.0004984 0.0000321 -0.0001403
0.0094478 -0.0087778 -0.0039875 0.0197106 0.0001695 0.0106333 0.0037140 -0.0064697 0.0000682 -0.0001055 0.0000774 -0.0006627 0.0004508 0.0001704 0.0002248 -0.0003024 0.0002297 0.0005308 0.0000303 -0.0001072
0.0017054 0.0006673 -0.0016793 0.0038829 -0.0004013 0.0041730 0.0002827 -0.0000422 0.0000640 -0.0001146 0.0000796 -0.0005796 0.0004639 0.0002339 0.0002302 -0.0001883 0.0002261 0.0006368 -0.0000189 0.0000151
0.0063720 -0.0043811 0.0169202 -0.0330988 0.0106813 -0.0181042 0.0013707 0.0004923 0.0000623 -0.0000547 0.0000874 -0.0004583 0.0004394 0.0003646 0.0002413 -0.0000733 0.0002339 0.0008134 -0.0000222 0.0001509
0.0110979 -0.0125220 0.0092167 -0.0086640 0.0115746 -0.0135419 -0.0031698 0.0083509 0.0000666 -0.0000144 0.0000873 -0.0005955 0.0004095 0.0002411 0.0002483 -0.0001925 0.0002442 0.0006516 -0.0000158 0.0000461
0.0079604 -0.0073721 -0.0046105 0.0072903 0.0052643 -0.0104745 -0.0089940 0.0148702 0.0000681 -0.0001260 0.0000761 -0.0008499 0.0003495 0.0001212 0.0002410 -0.0003495 0.0002421 0.0004320 -0.0000179 -0.0001217
0.0056066 -0.0027974 -0.0043191 0.0034185 -0.0002294 0.0047431 -0.0062161 0.0125179 0.0000701 -0.0002079 0.0000890 -0.0008328 0.0003412 0.0001486 0.0002344 -0.0003137 0.0002362 0.0005271 0.0000053 -0.0001243
0.0017478 -0.0074065 -0.0018101 -0.0040025 -0.0016686 0.0005925 0.0027925 -0.0096070 0.0000696 -0.0001811 0.0001111 -0.0007081 0.0003314 0.0002237 0.0002361 -0.0002407 0.0002319 0.0006473 0.0000588 -0.0000935
-0.0012168 0.0044942 -0.0015766 -0.0045611 -0.0016141 -0.0119331 -0.0002704 -0.0081798 0.0000692 -0.0000910 0.0001255 -0.0005178 0.0003419 0.0003734 0.0002359 -0.0001084 0.0002301 0.0008129 0.0001138 0.0000102
0.0013405 0.0059864 -0.0028464 0.0036575 0.0037760 -0.0088733 -0.0054094 0.0041731 0.0000748 -0.0000722 0.0001182 -0.0006452 0.0003348 0.0002735 0.0002311 -0.0002119 0.0002314 0.0006448 0.0000645 -0.0000569
0.0071745 -0.0186095 0.0018063 -0.0089545 -0.0044948 0.0041678 -0.0093304 0.0038619 0.0000721 -0.0001786 0.0001106 -0.0008662 0.0003897 0.0000650 0.0002257 -0.0003294 0.0002200 0.0004639 0.0000495 -0.0001906
0.0111662 -0.0180296 0.0080770 -0.0219159 -0.0078786 0.0159088 -0.0056105 -0.0042384 0.0000698 -0.0002213 0.0001215 -0.0008083 0.0004646 0.0000467 0.0002226 -0.0002410 0.0002209 0.0005788 0.0000815 -0.0001534
0.0051386 -0.0056873 0.0109633 -0.0180228 -0.0048801 0.0121882 0.0059075 -0.0140543 0.0000743 -0.0001696 0.0001283 -0.0006927 0.0005313 0.0000629 0.0002304 -0.0001297 0.0002345 0.0007178 0.0001028 -0.0000219
-0.0043037 0.0011317 0.0069477 -0.0034798 -0.0008620 -0.0061365 0.0070222 -0.0099650 0.0000738 -0.0000434 0.0001283 -0.0004819 0.0005623 0.0002290 0.0002449 -0.0000152 0.0002448 0.0008385 0.0000749 0.0001055
-0.0013650 0.0033686 -0.0000112 0.0108238 0.0018450 -0.0107096 0.0037119 0.0037186 0.0000800 -0.0000596 0.0001261 -0.0006163 0.0005107 0.0001798 0.0002488 -0.0001083 0.0002475 0.0006577 0.0000236 -0.0000066
0.0039410 -0.0028068 -0.0034469 0.0122831 -0.0000261 -0.0000596 -0.0026941 0.0168314 0.0000894 -0.0001643 0.0001307 -0.0008161 0.0004784 0.0000518 0.0002588 -0.0001782 0.0002462 0.0005222 -0.0000085 -0.0000565
-0.0038854 0.0081550 -0.0034650 0.0059460 0.0090711 -0.0221656 -0.0065014 0.0124867 0.0000904 -0.0001575 0.0001348 -0.0007284 0.0004680 0.0001292 0.0002719 -0.0000971 0.0002468 0.0006026 0.0000091 -0.0000020
-0.0104886 0.0108193 0.0008286 0.0010955 0.0206459 -0.0544092 -0.0053237 0.0087244 0.0000904 -0.0000936 0.0001374 -0.0006139 0.0004990 0.0001948 0.0002745 0.0000017 0.0002454 0.0007008 0.0000313 0.0000754
0.0019866 -0.0141772 -0.0008867 0.0017860 0.0104014 -0.0266864 -0.0068576 0.0135889 0.0000922 0.0000208 0.0001522 -0.0005269 0.0004324 0.0002673 0.0002804 -0.0000226 0.0002410 0.0005704 0.0000498 0.0000084
0.0040141 -0.0096826 -0.0004661 -0.0051372 0.0015566 -0.0082815 -0.0088252 0.0063679 0.0000984 -0.0000210 0.0001554 -0.0007101 0.0003637 0.0001148 0.0002893 -0.0001740 0.0002303 0.0003253 0.0000985 -0.0001314
-0.0054676 0.0071636 0.0098836 -0.0166610 0.0075253 -0.0183112 0.0009744 -0.0145042 0.0001073 -0.0000583 0.0001640 -0.0008068 0.0003870 0.0000323 0.0002857 -0.0001967 0.0002296 0.0003615 0.0001048 -0.0000106
-0.0046031 0.0070039 0.0052946 -0.0002637 0.0102740 -0.0279244 -0.0078213 0.0073694 0.0001054 0.0000109 0.0001668 -0.0007298 0.0004090 0.0001166 0.0002692 -0.0001321 0.0002366 0.0004802 0.0001246 0.0001089
-0.0040337 0.0177311 -0.0022865 0.0117658 0.0069881 -0.0123256 -0.0067813 0.0087274 0.0000952 0.0000393 0.0001627 -0.0006554 0.0004480 0.0001879 0.0002698 -0.0000757 0.0002353 0.0007384 0.0001762 0.0002308
-0.0035125 0.0159589 0.0005251 0.0046502 0.0030881 -0.0021786 0.0125113 -0.0283268 0.0001038 0.0001268 0.0001378 -0.0007609 0.0005182 0.0000179 0.0002824 -0.0001640 0.0002480 0.0007101 0.0001935 0.0001310
0.0119401 -0.0271672 -0.0064804 0.0145115 0.0001291 -0.0123220 0.0142993 -0.0399820 0.0001091 0.0000442 0.0001278 -0.0010103 0.0005586 -0.0002586 0.0003027 -0.0002161 0.0002685 0.0004298 0.0001726 -0.0000909
0.0012298 -0.0044381 -0.0138570 0.0169085 0.0085917 -0.0398771 0.0071018 -0.0220506 0.0001096 -0.0000661 0.0001561 -0.0009924 0.0005122 -0.0001722 0.0003204 -0.0001271 0.0002788 0.0004738 0.0001190 -0.0000090
-0.0065305 0.0122847 -0.0019770 0.0076749 -0.0050381 -0.0019036 0.0016974 -0.0085085 0.0001122 -0.0000186 0.0001636 -0.0008869 0.0005138 -0.0000408 0.0003290 -0.0000296 0.0002974 0.0006221 0.0000706 0.0001686
0.0003943 -0.0014398 0.0014875 0.0039517 -0.0067510 0.0136721 -0.0004995 -0.0116816 0.0001074 0.0000367 0.0001766 -0.0007511 0.0005610 0.0000057 0.0003456 0.0001111 0.0003048 0.0007594 0.0000657 0.0002678
0.0060140 -0.0130914 -0.0015653 -0.0104752 -0.0048774 0.0110600 -0.0020454 0.0015166 0.0001186 0.0000858 0.0001693 -0.0008213 0.0005635 -0.0000783 0.0003445 -0.0000028 0.0002898 0.0005974 0.0000408 0.0001310
0.0006709 -0.0023167 -0.0066709 -0.0054495 -0.0018489 -0.0018039 -0.0048080 0.0180623 0.0001310 0.0000042 0.0001596 -0.0010413 0.0005218 -0.0001750 0.0003334 -0.0001623 0.0002886 0.0004011 0.0000473 -0.0000558
0.0018000 -0.0005559 -0.0027016 0.0063081 0.0004736 -0.0070283 -0.0030971 0.0145454 0.0001308 -0.0000552 0.0001781 -0.0010239 0.0004655 -0.0001208 0.0003319 -0.0001395 0.0002947 0.0005040 0.0000488 -0.0000154
0.0050438 -0.0008913 0.0048489 -0.0035473 0.0053233 -0.0176833 -0.0013824 0.0031502 0.0001263 -0.0000086 0.0002044 -0.0009029 0.0004169 0.0000502 0.0003260 -0.0000744 0.0002947 0.0006416 0.0000378 0.0001084
-0.0011075 0.0062146 0.0049985 -0.0118244 -0.0000416 -0.0104420 -0.0003101 -0.0051412 0.0001277 0.0000809 0.0002127 -0.0007059 0.0004135 0.0002475 0.0003196 0.0000591 0.0002934 0.0008316 0.0001178 0.0002008
-0.0123628 0.0151758 0.0006640 -0.0010863 -0.0056084 0.0093895 -0.0042563 0.0002361 0.0001343 0.0001235 0.0001932 -0.0007840 0.0004357 0.0001077 0.0003039 -0.0000573 0.0002904 0.0006695 0.0001506 0.0000776
-0.0114934 0.0179205 0.0021117 -0.0089701 -0.0062496 0.0080960 -0.0022784 -0.0016662 0.0001360 0.0000460 0.0001867 -0.0009760 0.0005171 -0.0000841 0.0002874 -0.0001904 0.0002778 0.0004774 0.0001317 -0.0000494
-0.0068049 0.0126667 0.0099068 -0.0290440 -0.0091489 0.0066126 -0.0000159 -0.0101596 0.0001368 0.0000252 0.0002036 -0.0009116 0.0005872 -0.0000637 0.0002930 -0.0001332 0.0002723 0.0005939 0.0001616 -0.0000108
-0.0047819 0.0109518 0.0065121 -0.0264274 0.0030383 -0.0114846 -0.0008577 -0.0003285 0.0001344 0.0000929 0.0002135 -0.0007649 0.0005570 0.0000902 0.0002946 -0.0000527 0.0002803 0.0007137 0.0001591 0.0001180
-0.0065620 0.0162641 -0.0042799 0.0085789 0.0120223 -0.0297088 -0.0004775 0.0077388 0.0001329 0.0002045 0.0002116 -0.0005604 0.0005904 0.0002665 0.0002890 0.0000575 0.0002896 0.0008595 0.0001161 0.0002604
-0.0017942 0.0081695 0.0019273 0.0065263 0.0043073 -0.0171211 -0.0086129 0.0108153 0.0001405 0.0002000 0.0001968 -0.0007016 0.0006288 0.0001174 0.0002817 -0.0000796 0.0002877 0.0007023 0.0000943 0.0001288
0.0068935 -0.0101127 0.0074434 -0.0113545 -0.0106991 0.0124007 -0.0050735 -0.0023350 0.0001530 0.0001085 0.0001796 -0.0008580 0.0006358 -0.0000022 0.0002714 -0.0001952 0.0002795 0.0005782 0.0000669 0.0000625
0.0018455 -0.0003856 0.0022964 -0.0000115 -0.0044632 0.0115164 0.0001500 -0.0013665 0.0001508 0.0001269 0.0001824 -0.0007503 0.0005966 0.0001398 0.0002721 -0.0001442 0.0002917 0.0006973 0.0000506 0.0001613
0.0080828 -0.0131949 -0.0103321 0.0166991 0.0003266 -0.0019890 -0.0025769 0.0102023 0.0001480 0.0002125 0.0001954 -0.0006406 0.0005500 0.0002807 0.0002740 -0.0000903 0.0003045 0.0008064 0.0000716 0.0002317
0.0196511 -0.0425075 -0.0144365 0.0156225 -0.0002800 -0.0009905 -0.0042789 0.0156253 0.0001542 0.0003412 0.0002142 -0.0004977 0.0005025 0.0004192 0.0002705 -0.0001105 0.0003131 0.0007519 0.0000753 0.0001904
-0.0028376 0.0038294 0.0026562 -0.0105534 0.0023397 -0.0068132 -0.0050659 0.0111076 0.0001570 0.0002917 0.0002108 -0.0006771 0.0004557 0.0003251 0.0002633 -0.0002425 0.0003052 0.0005635 0.0001126 0.0000148
-0.0138850 0.0184251 0.0067126 -0.0125692 -0.0017952 -0.0024902 -0.0015210 -0.0020596 0.0001586 0.0001936 0.0002040 -0.0008384 0.0004952 0.0002354 0.0002597 -0.0002473 0.0002915 0.0005937 0.0001473 0.0000369
-0.0047726 -0.0046469 -0.0008542 0.0018275 0.0037809 -0.0065932 0.0029443 0.0003581 0.0001566 0.0002199 0.0002101 -0.0007470 0.0005549 0.0002664 0.0002569 -0.0001720 0.0002923 0.0007117 0.0001467 0.0001284
0.0029532 -0.0114392 0.0009510 -0.0042342 0.0022482 -0.0038788 0.0050672 -0.0049104 0.0001500 0.0002714 0.0002133 -0.0006374 0.0005830 0.0003210 0.0002513 -0.0000766 0.0002964 0.0008405 0.0001700 0.0002077
0.0063773 -0.0085951 -0.0022020 -0.0035832 -0.0128470 0.0109405 0.0075096 -0.0110155 0.0001470 0.0003496 0.0002056 -0.0006906 0.0005710 0.0003038 0.0002388 -0.0001810 0.0002948 0.0006814 0.0001715 0.0001111
0.0106795 -0.0236819 -0.0040471 0.0004967 -0.0172851 0.0181134 0.0019808 0.0012287 0.0001449 0.0002467 0.0001843 -0.0009142 0.0006041 0.0001269 0.0002306 -0.0003480 0.0002854 0.0004533 0.0001535 -0.0000525
0.0043649 -0.0189346 0.0053317 -0.0156372 -0.0023310 0.0028421 -0.0060920 0.0123563 0.0001401 0.0001226 0.0001788 -0.0009365 0.0006472 0.0000987 0.0002355 -0.0003374 0.0002862 0.0005160 0.0001259 0.0000030
0.0122538 -0.0319386 0.0098780 -0.0235981 0.0082367 -0.0223502 -0.0026882 0.0051893 0.0001395 0.0001224 0.0001835 -0.0008396 0.0006617 0.0001669 0.0002347 -0.0002752 0.0002907 0.0006290 0.0001329 0.0000750
0.0031203 -0.0026661 0.0102297 -0.0192646 0.0038809 -0.0099636 -0.0001542 0.0026313 0.0001353 0.0001620 0.0001913 -0.0007061 0.0006692 0.0002642 0.0002387 -0.0001640 0.0002980 0.0007864 0.0001132 0.0001671
-0.0072690 0.0210414 0.0047882 -0.0123251 -0.0055407 0.0090320 0.0002515 0.0071075 0.0001325 0.0001554 0.0001772 -0.0008568 0.0006281 0.0001559 0.0002357 -0.0003205 0.0002970 0.0005803 0.0000533 0.0000575
-0.0032266 0.0107541 0.0020235 -0.0109683 -0.0055478 0.0061042 0.0044289 -0.0095227 0.0001316 0.0000043 0.0001731 -0.0011321 0.0005509 0.0000429 0.0002262 -0.0005281 0.0002894 0.0003436 0.0000463 -0.0001053
0.0027604 -0.0036742 -0.0077755 0.0095761 -0.0033573 0.0003968 0.0095478 -0.0217737 0.0001233 -0.0000900 0.0001879 -0.0011229 0.0005205 0.0000673 0.0002261 -0.0005241 0.0002978 0.0004318 0.0000976 -0.0001354
0.0038588 -0.0038475 -0.0012607 0.0025871 -0.0015583 0.0061544 0.0056895 -0.0032560 0.0001156 -0.0000730 0.0001923 -0.0010127 0.0005181 0.0001398 0.0002233 -0.0004539 0.0003000 0.0005410 0.0001014 -0.0000387
0.0030843 -0.0070994 0.0033253 -0.0058508 0.0032749 0.0019310 -0.0008110 0.0055537 0.0001088 -0.0000068 0.0002047 -0.0008269 0.0005546 0.0002615 0.0002197 -0.0003695 0.0002929 0.0006368 0.0001067 0.0000159
0.0000653 -0.0110804 0.0013639 -0.0002272 -0.0004904 0.0012848 -0.0058712 0.0006560 0.0001062 -0.0000599 0.0001947 -0.0010044 0.0006123 0.0000226 0.0002093 -0.0005302 0.0002844 0.0004055 0.0001548 -0.0001888
0.0030704 -0.0219954 -0.0026695 0.0046605 -0.0012255 -0.0024615 0.0112513 -0.0258677 0.0001073 -0.0002343 0.0001867 -0.0012768 0.0005831 -0.0001467 0.0002028 -0.0006593 0.0002744 0.0002116 0.0001828 -0.0003198
0.0040934 -0.0202294 -0.0072240 0.0088469 -0.0029318 0.0070412 0.0123621 -0.0233135 0.0001037 -0.0003023 0.0001936 -0.0012348 0.0006169 -0.0001156 0.0002050 -0.0006143 0.0002703 0.0002876 0.0001878 -0.0002883
0.0062016 -0.0162669 -0.0011388 -0.0033246 -0.0033365 0.0076439 -0.0009876 -0.0016151 0.0000969 -0.0002774 0.0001944 -0.0011201 0.0006628 -0.0000412 0.0002041 -0.0005357 0.0002685 0.0004024 0.0001783 -0.0001811
0.0011254 0.0019933 0.0020018 -0.0090618 0.0044938 -0.0089701 0.0011069 -0.0053542 0.0000970 -0.0001930 0.0001981 -0.0009057 0.0006537 0.0001059 0.0002048 -0.0004648 0.0002720 0.0005018 0.0001828 -0.0001577
-0.0055608 0.0110788 0.0079720 -0.0188240 0.0001869 0.0046010 0.0095408 -0.0273571 0.0001077 -0.0002454 0.0001915 -0.0010946 0.0006897 -0.0001112 0.0002143 -0.0006098 0.0002778 0.0002729 0.0001599 -0.0003402
-0.0025499 0.0109366 0.0029705 0.0005855 -0.0070384 0.0147103 0.0078384 -0.0204746 0.0001064 -0.0003984 0.0001877 -0.0013679 0.0007074 -0.0002807 0.0002234 -0.0006820 0.0002771 0.0001232 0.0000925 -0.0003659
0.0051819 0.0043101 0.0045243 0.0016169 0.0002445 -0.0036446 -0.0003955 -0.0010068 0.0001019 -0.0004348 0.0001990 -0.0013189 0.0006659 -0.0001741 0.0002357 -0.0005893 0.0002788 0.0002259 0.0000845 -0.0002990
0.0071582 -0.0098629 -0.0025253 0.0046017 0.0081149 -0.0290784 -0.0032256 0.0039045 0.0001069 -0.0004006 0.0002101 -0.0012252 0.0006279 -0.0001003 0.0002606 -0.0004565 0.0002895 0.0003240 0.0001137 -0.0002348
-0.0027010 -0.0004480 0.0060864 -0.0066923 0.0019799 -0.0058783 -0.0022197 0.0095202 0.0001139 -0.0002965 0.0002205 -0.0010290 0.0006004 0.0000789 0.0002775 -0.0003177 0.0002958 0.0004124 0.0000830 -0.0001421
-0.0048867 0.0091948 0.0088390 -0.0094264 0.0027759 0.0011879 -0.0023031 0.0065525 0.0001228 -0.0003202 0.0002212 -0.0012115 0.0006061 -0.0000650 0.0002902 -0.0004025 0.0002833 0.0001984 0.0000754 -0.0002993
-0.0054872 0.0093101 -0.0065110 0.0075676 -0.0041507 0.0103395 -0.0032909 0.0035174 0.0001237 -0.0004518 0.0002232 -0.0014595 0.0006057 -0.0002843 0.0003043 -0.0004495 0.0002764 0.0000446 0.0001416 -0.0003960
0.0016509 -0.0035526 0.0003508 -0.0086515 -0.0081550 0.0142486 0.0056236 -0.0050951 0.0001141 -0.0004731 0.0002320 -0.0013820 0.0005947 -0.0002221 0.0003077 -0.0003557 0.0002850 0.0001525 0.0001682 -0.0002986
0.0091636 -0.0088663 -0.0014432 -0.0005954 -0.0026745 0.0047821 0.0045262 -0.0031180 0.0001077 -0.0004105 0.0002434 -0.0012594 0.0006684 -0.0001703 0.0003047 -0.0002582 0.0002911 0.0002923 0.0001866 -0.0001954
0.0076683 -0.0044984 0.0016698 -0.0023369 -0.0037565 0.0069655 -0.0075239 0.0097962 0.0001117 -0.0002797 0.0002537 -0.0010271 0.0006987 -0.0000005 0.0002974 -0.0001731 0.0002906 0.0004067 0.0002056 -0.0001562
0.0043998 -0.0017546 0.0033409 -0.0020165 -0.0102012 0.0075309 -0.0010079 -0.0034122 0.0001293 -0.0002943 0.0002314 -0.0011390 0.0006915 -0.0001103 0.0002899 -0.0003072 0.0002861 0.0002123 0.0001993 -0.0003337
0.0046555 -0.0092559 -0.0032038 0.0095975 0.0076266 -0.0252192 0.0000678 -0.0022616 0.0001413 -0.0003968 0.0002232 -0.0013232 0.0007510 -0.0002885 0.0002956 -0.0004086 0.0002809 0.0000945 0.0001460 -0.0003658
0.0047928 0.0007475 0.0006470 0.0090148 0.0021020 0.0009549 -0.0008640 -0.0022992 0.0001389 -0.0003808 0.0002330 -0.0012203 0.0007430 -0.0001364 0.0002992 -0.0003236 0.0002777 0.0002228 0.0000659 -0.0001799
0.0042565 0.0026836 0.0071721 -0.0067690 -0.0024035 0.0100613 -0.0037905 0.0030504 0.0001415 -0.0003026 0.0002430 -0.0010938 0.0006608 0.0000441 0.0002965 -0.0002246 0.0002885 0.0003346 0.0001007 -0.0001007
0.0020862 0.0000057 0.0097312 -0.0365210 -0.0028803 0.0074493 0.0054779 -0.0088384 0.0001501 -0.0001689 0.0002593 -0.0008891 0.0006763 0.0001288 0.0003005 -0.0001853 0.0003034 0.0003665 0.0001436 -0.0001294
-0.0028181 0.0097844 0.0153002 -0.0350911 -0.0049536 0.0061066 0.0047421 -0.0012780 0.0001580 -0.0001843 0.0002496 -0.0010179 0.0006965 0.0000154 0.0002994 -0.0003099 0.0002980 0.0001853 0.0001124 -0.0002249
-0.0014617 0.0047816 0.0053848 -0.0052275 0.0055926 -0.0214306 0.0016821 0.0040606 0.0001624 -0.0002579 0.0002575 -0.0011695 0.0006571 -0.0000302 0.0002985 -0.0003607 0.0002940 0.0001270 0.0001013 -0.0002447
-0.0077465 0.0121356 -0.0039679 0.0063281 0.0005060 -0.0043814 0.0048741 -0.0078723 0.0001573 -0.0002121 0.0002748 -0.0010503 0.0006321 0.0000973 0.0002960 -0.0002777 0.0002946 0.0002514 0.0001660 -0.0002007
-0.0099839 0.0050215 0.0073397 -0.0177103 -0.0049203 0.0080215 -0.0025794 0.0058481 0.0001540 -0.0001276 0.0002790 -0.0009251 0.0006484 0.0001949 0.0002921 -0.0001733 0.0002919 0.0003892 0.0002239 -0.0001195
0.0155581 -0.0407073 0.0057531 -0.0153889 -0.0035139 0.0038601 0.0082196 -0.0111853 0.0001652 0.0000136 0.0002850 -0.0007980 0.0006965 0.0002037 0.0002850 -0.0001975 0.0002908 0.0003142 0.0002320 -0.0001938
0.0001828 0.0068341 0.0002293 -0.0005567 -0.0034347 0.0030719 0.0092369 -0.0140543 0.0001750 -0.0000236 0.0002690 -0.0009411 0.0006960 0.0001336 0.0002737 -0.0003191 0.0002798 0.0001334 0.0002066 -0.0003285
-0.0067010 0.0190427 -0.0005086 0.0094954 0.0040153 -0.0097134 -0.0024943 -0.0003539 0.0001827 -0.0001115 0.0002600 -0.0010277 0.0006997 0.0001072 0.0002762 -0.0003028 0.0002806 0.0001888 0.0002153 -0.0003083
-0.0080842 0.0148401 0.0034562 0.0016143 0.0041786 -0.0023792 -0.0022954 -0.0046552 0.0001836 -0.0000723 0.0002726 -0.0009259 0.0007805 0.0001125 0.0002775 -0.0002267 0.0002852 0.0003070 0.0002038 -0.0002194
-0.0036489 0.0144313 0.0048978 -0.0060031 -0.0047355 0.0160236 -0.0072040 0.0063751 0.0001761 0.0000056 0.0002774 -0.0007920 0.0007990 0.0002573 0.0002703 -0.0001252 0.0002782 0.0004461 0.0001396 -0.0000172
-0.0022126 0.0093001 0.0022081 0.0016723 -0.0050805 0.0072982 -0.0019473 -0.0007023 0.0001818 0.0000978 0.0002643 -0.0008251 0.0007476 0.0002460 0.0002627 -0.0002485 0.0002674 0.0002718 0.0001263 -0.0001035
0.0010491 0.0016895 0.0026303 0.0024492 0.0043542 -0.0210899 0.0047606 -0.0084575 0.0001847 0.0000286 0.0002557 -0.0010183 0.0007364 0.0000926 0.0002619 -0.0004298 0.0002636 0.0000626 0.0001061 -0.0002874
0.0058898 -0.0077294 0.0068052 -0.0046872 0.0122411 -0.0284301 -0.0082057 0.0189674 0.0001823 -0.0000455 0.0002549 -0.0009990 0.0007536 0.0001039 0.0002594 -0.0003979 0.0002755 0.0001614 0.0000834 -0.0002169
-0.0007696 -0.0013270 0.0098385 -0.0184020 0.0050161 -0.0056801 -0.0150715 0.0196699 0.0001824 -0.0000043 0.0002712 -0.0008950 0.0007017 0.0002062 0.0002628 -0.0003264 0.0002807 0.0002786 0.0000910 -0.0000975
-0.0007435 0.0061532 -0.0006502 0.0074362 -0.0015206 0.0029530 -0.0126286 0.0145991 0.0001797 0.0000803 0.0002897 -0.0007363 0.0006327 0.0004380 0.0002667 -0.0002204 0.0002798 0.0004331 0.0001174 0.0000003
-0.0020364 0.0024498 -0.0017994 0.0076101 -0.0041977 0.0007326 -0.0076635 0.0134324 0.0001797 0.0000762 0.0002729 -0.0008737 0.0006600 0.0002754 0.0002591 -0.0003604 0.0002786 0.0002311 0.0001619 -0.0002234
0.0099037 -0.0246778 0.0051708 -0.0204666 0.0008393 -0.0042718 -0.0014751 -0.0037086 0.0001789 -0.0000460 0.0002706 -0.0011216 0.0007012 0.0000212 0.0002513 -0.0005033 0.0002639 0.0000267 0.0002143 -0.0004261
0.0032692 0.0004366 0.0030737 -0.0116976 0.0003241 -0.0003062 0.0026118 -0.0064143 0.0001786 -0.0000862 0.0002757 -0.0010692 0.0006778 0.0001487 0.0002448 -0.0004298 0.0002512 0.0001440 0.0002466 -0.0003593
-0.0012490 0.0026427 0.0043459 -0.0072511 0.0022432 -0.0042500 0.0127828 -0.0261266 0.0001748 -0.0000461 0.0002758 -0.0009490 0.0006652 0.0002413 0.0002485 -0.0003508 0.0002494 0.0002571 0.0002480 -0.0002597
0.0055543 -0.0096708 0.0025828 -0.0037218 0.0025128 -0.0052500 0.0117107 -0.0250861 0.0001738 0.0000448 0.0002854 -0.0007727 0.0007496 0.0002793 0.0002505 -0.0003134 0.0002509 0.0002726 0.0002084 -0.0002320
0.0056167 -0.0041964 -0.0009831 0.0107362 -0.0009514 0.0092953 0.0022649 0.0011576 0.0001781 -0.0000070 0.0002732 -0.0009494 0.0007847 0.0001184 0.0002393 -0.0004568 0.0002417 0.0000440 0.0001500 -0.0003450
0.0091645 -0.0232922 0.0018173 0.0015564 0.0011889 0.0049432 0.0027407 -0.0031038 0.0001781 -0.0001417 0.0002607 -0.0011783 0.0007974 -0.0000740 0.0002377 -0.0005299 0.0002304 -0.0000362 0.0001548 -0.0003913
-0.0000096 -0.0091797 -0.0009279 -0.0024963 -0.0020461 0.0020620 -0.0031916 0.0012905 0.0001725 -0.0001530 0.0002601 -0.0011029 0.0007821 0.0000072 0.0002494 -0.0004733 0.0002372 0.0000786 0.0001433 -0.0002959
0.0010654 -0.0006975 0.0022103 -0.0010931 0.0010181 -0.0065497 -0.0090942 0.0091181 0.0001678 -0.0001111 0.0002666 -0.0009965 0.0007637 0.0001188 0.0002528 -0.0003890 0.0002468 0.0001892 0.0001187 -0.0001739
0.0005189 -0.0015189 0.0012732 -0.0025442 0.0043410 -0.0088985 -0.0033609 -0.0037442 0.0001687 -0.0000059 0.0002766 -0.0008967 0.0007505 0.0001229 0.0002549 -0.0004336 0.0002483 0.0000896 0.0000760 -0.0002235
-0.0030913 0.0091152 -0.0084748 0.0178187 -0.0019745 0.0098639 0.0037063 -0.0089520 0.0001713 -0.0000758 0.0002650 -0.0010740 0.0006650 0.0000673 0.0002568 -0.0005832 0.0002365 -0.0001145 0.0000478 -0.0003693
0.0022216 -0.0011419 0.0011301 0.0052314 -0.0010715 0.0035395 0.0029986 -0.0034786 0.0001667 -0.0002071 0.0002658 -0.0012223 0.0006727 0.0000084 0.0002593 -0.0005603 0.0002342 -0.0000769 0.0000816 -0.0003821
0.0039678 -0.0130399 0.0110221 -0.0184075 0.0033502 -0.0171868 -0.0050761 0.0107111 0.0001573 -0.0002035 0.0002801 -0.0011457 0.0006917 0.0000648 0.0002584 -0.0004530 0.0002334 0.0000458 0.0001418 -0.0003401
-0.0051081 0.0110484 -0.0007124 0.0022769 -0.0014635 -0.0132511 -0.0087296 0.0148098 0.0001563 -0.0001545 0.0002811 -0.0010192 0.0006438 0.0002314 0.0002525 -0.0003379 0.0002281 0.0001922 0.0001973 -0.0002481
-0.0024202 0.0060656 -0.0092486 0.0153625 0.0006479 -0.0103331 0.0018517 -0.0064304 0.0001586 -0.0000858 0.0002725 -0.0010715 0.0006385 0.0001324 0.0002442 -0.0004410 0.0002255 0.0000251 0.0002008 -0.0003613
0.0032343 -0.0121496 -0.0075788 0.0135331 0.0016161 -0.0048652 0.0016041 -0.0029030 0.0001556 -0.0001819 0.0002647 -0.0012853 0.0007036 -0.0000806 0.0002353 -0.0005905 0.0002157 -0.0001768 0.0001925 -0.0005367
0.0142091 -0.0300173 -0.0043407 0.0015724 -0.0017575 0.0045954 -0.0026624 0.0077599 0.0001583 -0.0002856 0.0002666 -0.0012935 0.0007530 -0.0001323 0.0002395 -0.0005577 0.0002115 -0.0000929 0.0001853 -0.0004819
0.0010869 -0.0025278 -0.0081945 0.0085221 0.0019435 -0.0112489 -0.0045204 0.0061527 0.0001585 -0.0002707 0.0002670 -0.0011764 0.0007945 -0.0000948 0.0002369 -0.0004750 0.0002045 0.0000342 0.0001917 -0.0003832
-0.0210538 0.0316710 -0.0132896 0.0191620 0.0018014 -0.0093325 -0.0091713 0.0132269 0.0001526 -0.0002019 0.0002657 -0.0010008 0.0008155 0.0000811 0.0002365 -0.0003555 0.0002049 0.0002115 0.0001436 -0.0002202
-0.0079011 0.0176476 -0.0001982 -0.0069114 -0.0024471 0.0019202 -0.0046915 0.0057156 0.0001509 -0.0001955 0.0002580 -0.0011235 0.0008030 -0.0000431 0.0002380 -0.0004842 0.0002112 0.0000272 0.0000935 -0.0003291
0.0040263 -0.0090434 0.0078615 -0.0113062 -0.0073628 0.0093585 0.0005446 -0.0057830 0.0001537 -0.0003192 0.0002491 -0.0013526 0.0007644 -0.0002109 0.0002438 -0.0006364 0.0002213 -0.0001957 0.0000587 -0.0004629
0.0045928 -0.0142155 0.0024312 0.0040055 -0.0060263 0.0049219 -0.0015985 0.0047811 0.0001518 -0.0003648 0.0002452 -0.0012973 0.0007214 -0.0001065 0.0002487 -0.0005846 0.0002292 -0.0001013 0.0000554 -0.0004117
0.0039040 -0.0134343 0.0056220 -0.0096900 0.0039256 -0.0129997 0.0031295 -0.0056853 0.0001427 -0.0003120 0.0002540 -0.0011755 0.0007277 -0.0000412 0.0002453 -0.0004979 0.0002249 0.0000418 0.0000917 -0.0003465
0.0036777 -0.0072550 0.0053615 -0.0134887 0.0009669 -0.0008278 0.0044705 -0.0149095 0.0001384 -0.0002039 0.0002709 -0.0009885 0.0006969 0.0001219 0.0002450 -0.0004125 0.0002248 0.0001461 0.0001227 -0.0003061
-0.0011447 0.0077953 -0.0087624 0.0070167 -0.0004004 0.0024967 -0.0006711 0.0047934 0.0001458 -0.0002278 0.0002615 -0.0011375 0.0006317 0.0000769 0.0002403 -0.0005504 0.0002267 -0.0000631 0.0001455 -0.0005083
-0.0001853 0.0073727 -0.0072992 0.0160509 0.0019119 -0.0082305 0.0002920 0.0039763 0.0001508 -0.0003622 0.0002605 -0.0013757 0.0005861 -0.0000011 0.0002438 -0.0006419 0.0002241 -0.0002086 0.0001192 -0.0005610
0.0010138 0.0085521 -0.0013118 0.0129871 0.0040468 -0.0201295 -0.0050909 0.0087945 0.0001431 -0.0003719 0.0002714 -0.0013038 0.0006165 0.0000464 0.0002462 -0.0005407 0.0002152 -0.0000945 0.0001373 -0.0004503
0.0026742 0.0075019 -0.0040074 0.0068903 0.0032273 -0.0151602 -0.0034934 0.0049686 0.0001406 -0.0003127 0.0002725 -0.0011710 0.0006969 0.0000193 0.0002472 -0.0004312 0.0002146 0.0000340 0.0002175 -0.0004070
0.0050648 -0.0066597 -0.0157382 0.0163347 -0.0005626 -0.0074802 0.0078737 -0.0180142 0.0001459 -0.0002004 0.0002735 -0.0009750 0.0008012 0.0000520 0.0002469 -0.0003857 0.0002196 0.0000695 0.0002150 -0.0004088
0.0046132 -0.0111916 -0.0156778 0.0162689 -0.0030916 -0.0008471 0.0001948 -0.0048069 0.0001534 -0.0002328 0.0002577 -0.0011361 0.0008440 -0.0000661 0.0002508 -0.0005123 0.0002139 -0.0001137 0.0001544 -0.0005075
0.0058395 -0.0129145 -0.0006990 0.0043396 -0.0010630 -0.0009754 -0.0036940 0.0051209 0.0001615 -0.0003459 0.0002493 -0.0013372 0.0007889 -0.0001319 0.0002539 -0.0005227 0.0002101 -0.0001564 0.0001239 -0.0004900
-0.0010524 -0.0069047 -0.0069977 0.0092137 -0.0004093 0.0036197 -0.0033113 0.0034567 0.0001661 -0.0003309 0.0002496 -0.0012431 0.0007538 -0.0000370 0.0002615 -0.0004000 0.0002182 -0.0000332 0.0000818 -0.0003600
-0.0067917 0.0092163 -0.0182093 0.0139422 -0.0026354 0.0089673 -0.0013503 -0.0033279 0.0001676 -0.0002598 0.0002586 -0.0011358 0.0007515 0.0000392 0.0002811 -0.0002820 0.0002248 0.0000988 0.0000785 -0.0002454
-0.0060125 0.0088794 -0.0074013 0.0016337 -0.0022979 0.0011928 0.0091000 -0.0196226 0.0001745 -0.0001283 0.0002706 -0.0009932 0.0007511 0.0001235 0.0002868 -0.0002789 0.0002298 0.0000732 0.0000842 -0.0002625
-0.0039294 -0.0061359 -0.0013634 -0.0021649 0.0049234 -0.0141865 0.0048649 -0.0069205 0.0001774 -0.0001555 0.0002626 -0.0011511 0.0006993 0.0000774 0.0002760 -0.0004025 0.0002278 -0.0001158 0.0001066 -0.0004094
0.0012534 -0.0122523 -0.0060019 0.0083468 0.0001278 0.0048297 -0.0033464 0.0102174 0.0001816 -0.0002377 0.0002635 -0.0012836 0.0006422 0.0000265 0.0002739 -0.0004142 0.0002226 -0.0001162 0.0001391 -0.0004866
0.0051669 -0.0088366 -0.0092185 0.0128699 -0.0014066 0.0104126 -0.0069627 0.0094168 0.0001820 -0.0001939 0.0002852 -0.0011799 0.0006061 0.0001444 0.0002799 -0.0003378 0.0002207 -0.0000096 0.0001091 -0.0003874
-0.0041283 0.0099803 0.0005926 -0.0034169 0.0028446 0.0001642 -0.0080535 0.0100053 0.0001757 -0.0001106 0.0002955 -0.0010468 0.0006313 0.0002567 0.0002744 -0.0002301 0.0002119 0.0001242 0.0001603 -0.0002690
-0.0037676 0.0104202 0.0055661 -0.0194222 0.0076443 -0.0158627 -0.0098583 0.0121352 0.0001818 -0.0000077 0.0002798 -0.0010362 0.0006632 0.0001339 0.0002679 -0.0003289 0.0002053 0.0000065 0.0002071 -0.0004001
0.0101644 -0.0118279 0.0032133 -0.0084356 0.0019703 -0.0034208 0.0017725 -0.0021877 0.0001848 -0.0000823 0.0002591 -0.0012434 0.0007348 -0.0001117 0.0002605 -0.0004892 0.0001963 -0.0001931 0.0001802 -0.0005467
0.0087975 -0.0113177 0.0062986 -0.0092611 -0.0019311 0.0087896 0.0082130 -0.0157199 0.0001829 -0.0001818 0.0002519 -0.0012784 0.0007846 -0.0001600 0.0002563 -0.0004638 0.0001910 -0.0001444 0.0001865 -0.0005177
0.0067199 -0.0120938 0.0117806 -0.0337070 -0.0038086 0.0078710 0.0068186 -0.0128141 0.0001793 -0.0001522 0.0002581 -0.0011550 0.0007281 -0.0000211 0.0002578 -0.0003847 0.0001920 -0.0000364 0.0001994 -0.0004120
0.0146180 -0.0254527 0.0017036 -0.0028247 -0.0093228 0.0067718 0.0010740 0.0001851 0.0001774 -0.0000836 0.0002657 -0.0010146 0.0007376 0.0001388 0.0002624 -0.0002766 0.0002142 0.0001391 0.0001823 -0.0001211
0.0036509 -0.0024925 0.0024752 -0.0028967 -0.0030718 -0.0026969 -0.0015088 -0.0142768 0.0001844 -0.0000700 0.0002421 -0.0011255 0.0007589 -0.0000395 0.0002624 -0.0004252 0.0002527 0.0000091 0.0001873 -0.0000846
0.0034001 -0.0053670 0.0009338 -0.0126551 0.0058572 -0.0152396 -0.0019168 -0.0051500 0.0001917 -0.0001636 0.0002239 -0.0013198 0.0007539 -0.0002193 0.0002540 -0.0005789 0.0002632 -0.0001927 0.0001905 -0.0002171
0.0025131 0.0028722 -0.0022506 0.0090721 0.0049797 -0.0164419 -0.0053794 0.0100113 0.0001900 -0.0001808 0.0002392 -0.0012785 0.0006923 -0.0000936 0.0002531 -0.0005181 0.0002711 -0.0001214 0.0001936 -0.0001829
-0.0021853 0.0126365 -0.0068071 0.0183598 0.0034559 -0.0149591 -0.0066163 0.0062098 0.0001850 -0.0001132 0.0002533 -0.0011679 0.0006600 0.0000045 0.0002605 -0.0004428 0.0002831 -0.0000042 0.0002085 -0.0001187
0.0039803 -0.0060184 -0.0062166 0.0149777 0.0022857 -0.0109488 -0.0018291 -0.0036320 0.0001851 -0.0000143 0.0002762 -0.0010081 0.0006261 0.0001939 0.0002660 -0.0003836 0.0002812 0.0000961 0.0001701 -0.0000445
0.0030775 -0.0013744 -0.0013863 0.0039164 0.0001956 -0.0050191 0.0036422 -0.0115205 0.0001916 -0.0000353 0.0002732 -0.0011894 0.0005818 0.0000739 0.0002644 -0.0005299 0.0002729 -0.0000880 0.0002186 -0.0002366
-0.0032001 0.0081211 -0.0019095 0.0049959 0.0014758 -0.0062024 0.0013790 -0.0050087 0.0001982 -0.0001430 0.0002600 -0.0014204 0.0006031 -0.0000991 0.0002583 -0.0006281 0.0002611 -0.0002119 0.0002589 -0.0003608
-0.0071066 0.0146863 0.0055881 0.0003274 0.0026574 -0.0024816 0.0055119 -0.0131620 0.0001924 -0.0001402 0.0002663 -0.0013469 0.0006618 -0.0000731 0.0002477 -0.0005671 0.0002597 -0.0001054 0.0002567 -0.0003134
-0.0026267 0.0115612 0.0064736 -0.0070934 0.0011059 -0.0029707 0.0054584 -0.0141449 0.0001859 -0.0000750 0.0002757 -0.0012298 0.0006965 -0.0000694 0.0002461 -0.0004969 0.0002631 0.0000082 0.0002928 -0.0002650
0.0005802 0.0044383 -0.0036848 -0.0027128 -0.0126829 0.0100382 -0.0030212 0.0051764 0.0001899 0.0000379 0.0002826 -0.0010812 0.0006485 0.0000618 0.0002462 -0.0005232 0.0002627 -0.0000322 0.0002563 -0.0002378
-0.0016954 0.0082839 -0.0021962 0.0024773 -0.0112837 0.0133579 0.0024982 -0.0050651 0.0001944 -0.0000177 0.0002645 -0.0012664 0.0006914 -0.0000783 0.0002497 -0.0006896 0.0002616 -0.0002396 0.0002087 -0.0003359
-0.0057673 0.0110890 0.0066488 -0.0053274 0.0011321 0.0005120 0.0096301 -0.0211813 0.0001924 -0.0001299 0.0002457 -0.0014365 0.0007521 -0.0002084 0.0002470 -0.0007151 0.0002596 -0.0002399 0.0002414 -0.0003900
-0.0003237 -0.0030830 0.0000327 0.0065820 0.0011676 0.0016735 0.0043503 -0.0050925 0.0001955 -0.0001199 0.0002400 -0.0013280 0.0007465 -0.0001379 0.0002410 -0.0006363 0.0002507 -0.0001234 0.0002557 -0.0003374
0.0066140 -0.0138807 0.0023451 0.0022375 -0.0043007 0.0065431 0.0017092 -0.0021058 0.0001996 -0.0000695 0.0002505 -0.0012142 0.0007548 -0.0000880 0.0002505 -0.0005395 0.0002562 0.0000125 0.0002150 -0.0002015
0.0047212 -0.0059663 -0.0033148 0.0082024 -0.0097504 0.0200659 0.0019216 -0.0065539 0.0002005 0.0000522 0.0002494 -0.0011388 0.0007340 -0.0000821 0.0002500 -0.0006055 0.0002724 -0.0000868 0.0001900 -0.0002361
-0.0037333 0.0066956 -0.0070263 0.0142701 -0.0094617 0.0211236 -0.0065682 0.0040134 0.0002058 -0.0000189 0.0002459 -0.0013407 0.0006386 -0.0001211 0.0002463 -0.0007819 0.0002727 -0.0002997 0.0001727 -0.0004028
-0.0098488 0.0189153 0.0015790 0.0003869 -0.0099873 0.0156966 -0.0004154 -0.0010184 0.0002088 -0.0001360 0.0002585 -0.0014603 0.0006073 -0.0001552 0.0002490 -0.0007777 0.0002712 -0.0002508 0.0001928 -0.0004096
-0.0011213 0.0077760 0.0037085 0.0010910 -0.0064145 0.0145386 -0.0004424 0.0037381 0.0002016 -0.0000981 0.0002510 -0.0013424 0.0006242 -0.0000745 0.0002434 -0.0006846 0.0002663 -0.0001303 0.0002155 -0.0003031
-0.0039070 0.0137554 0.0094587 -0.0147448 0.0034206 -0.0023939 -0.0144152 0.0236353 0.0001952 -0.0000298 0.0002584 -0.0012011 0.0006401 0.0000479 0.0002372 -0.0005671 0.0002660 0.0000212 0.0002212 -0.0001836
-0.0068974 0.0146169 -0.0000845 -0.0072362 0.0043544 -0.0053393 -0.0146796 0.0177251 0.0001948 0.0000142 0.0002570 -0.0012349 0.0006439 -0.0000771 0.0002348 -0.0006473 0.0002816 -0.0000921 0.0002788 -0.0002569
