-0.0000000 -0.0000000 -0.0000000 -0.0000000 -0.0000000 -0.0000000 -0.0000000 -0.0000000 -0.0000000 -0.0000000 -0.0000000 -0.0000000 -0.0000000 -0.0000000 -0.0000000 -0.0000000 -0.0000000 -0.0000000 -0.0000000 -0.0000000
-0.0000000 -0.0000000 -0.0000000 -0.0000000 -0.0000000 -0.0000000 -0.0000000 -0.0000000 -0.0000000 -0.0000000 -0.0000000 -0.0000000 -0.0000000 -0.0000000 -0.0000000 -0.0000000 -0.0000000 -0.0000000 -0.0000000 -0.0000000
0.0000477 -0.0002099 -0.0000106 -0.0000429 -0.0000239 -0.0000755 -0.0058387 -0.0008104 -0.0000526 -0.0001541 -0.0000007 -0.0000744 0.0000038 -0.0001292 0.0000000 -0.0000819 -0.0000024 -0.0000947 -0.0000029 -0.0000873
0.0000617 -0.0002278 0.0000036 -0.0000337 -0.0000424 -0.0001604 0.0003865 0.0036983 -0.0000629 -0.0001393 -0.0000053 -0.0000786 -0.0000263 -0.0001498 0.0000000 -0.0000434 -0.0000017 -0.0000391 0.0000106 -0.0000225
0.0000732 -0.0001135 0.0000259 0.0000778 -0.0000480 -0.0001525 0.0025273 0.0048010 -0.0000656 -0.0000524 -0.0000060 -0.0000251 -0.0000468 -0.0000639 0.0000056 0.0000279 -0.0000035 0.0000426 0.0000105 0.0000791
0.0000633 -0.0000131 0.0000366 0.0001754 -0.0000795 -0.0001611 0.0043826 -0.0035402 -0.0000722 0.0000690 -0.0000076 0.0000525 -0.0000465 0.0000231 -0.0000033 0.0001144 -0.0000087 0.0001200 0.0000008 0.0001723
0.0000317 0.0000419 0.0000277 0.0002299 -0.0001193 -0.0001699 0.0069530 -0.0077910 -0.0000872 0.0001868 -0.0000148 0.0001277 -0.0000493 0.0001039 -0.0000082 0.0001857 -0.0000095 0.0001680 -0.0000017 0.0002626
0.0000276 0.0001071 0.0000336 0.0002284 -0.0001038 -0.0001225 0.0033826 -0.0025564 -0.0001124 0.0000890 -0.0000252 0.0001000 -0.0000229 0.0001759 0.0000243 0.0001723 0.0000326 0.0001509 0.0000799 0.0003878
0.0000589 0.0001335 0.0000604 0.0001550 -0.0000329 -0.0000864 -0.0070354 0.0049038 -0.0001215 -0.0001086 -0.0000298 -0.0000055 0.0000183 0.0001111 0.0000505 0.0000872 0.0000661 0.0000729 0.0001321 0.0004588
0.0000602 0.0000897 0.0000763 0.0001076 0.0000063 -0.0000920 -0.0001852 -0.0073306 -0.0001154 -0.0001339 -0.0000324 -0.0000265 0.0000262 0.0000413 0.0000532 0.0000879 0.0000732 0.0001124 0.0001506 0.0006076
0.0000972 0.0002443 0.0000974 0.0002190 0.0000693 0.0000898 -0.0047134 -0.0005054 -0.0001099 -0.0000502 -0.0000452 0.0000009 0.0000048 0.0001640 0.0000773 0.0002344 0.0001311 0.0003582 0.0002492 0.0009914
0.0001670 0.0006474 0.0001103 0.0004207 0.0001727 0.0005306 0.0071614 -0.0070908 -0.0000748 0.0001063 -0.0000536 0.0000545 -0.0000243 0.0003740 0.0001015 0.0004383 0.0001928 0.0006509 0.0003398 0.0013659
0.0002256 0.0010969 0.0000980 0.0006113 0.0002684 0.0009936 0.0097323 -0.0129335 -0.0000527 0.0002090 -0.0000524 0.0001451 -0.0000304 0.0005481 0.0001056 0.0005814 0.0002127 0.0008245 0.0003764 0.0015196
0.0002977 0.0013877 0.0000924 0.0007182 0.0003439 0.0012674 -0.0018280 -0.0106424 -0.0000302 0.0002166 -0.0000489 0.0001682 -0.0000250 0.0005558 0.0000953 0.0005114 0.0002079 0.0007252 0.0003376 0.0013523
0.0002694 0.0011892 0.0000947 0.0006334 0.0003417 0.0011704 0.0009639 -0.0110200 0.0000217 0.0002220 -0.0000411 0.0001130 -0.0000343 0.0004371 0.0000921 0.0003535 0.0001936 0.0005267 0.0003048 0.0011192
0.0001976 0.0007718 0.0000850 0.0004821 0.0002841 0.0009124 -0.0016541 -0.0029150 0.0000464 0.0002653 -0.0000295 0.0001247 -0.0000305 0.0004135 0.0000953 0.0003598 0.0001934 0.0005616 0.0003113 0.0011335
0.0002107 0.0007402 0.0000692 0.0004228 0.0002478 0.0008556 0.0034355 -0.0001766 0.0000099 0.0002150 -0.0000210 0.0001920 -0.0000387 0.0004876 0.0000963 0.0004482 0.0002094 0.0006847 0.0003067 0.0012455
0.0002667 0.0010310 0.0000771 0.0005163 0.0002879 0.0010726 0.0029822 0.0053616 -0.0000450 0.0001237 -0.0000271 0.0002467 -0.0001046 0.0005372 0.0000911 0.0005377 0.0001975 0.0007578 0.0002703 0.0012950
0.0002769 0.0012512 0.0000929 0.0006636 0.0003102 0.0012513 0.0003988 0.0028461 -0.0000525 0.0001800 -0.0000428 0.0002673 -0.0001481 0.0004949 0.0000909 0.0005396 0.0001845 0.0006960 0.0002463 0.0012327
0.0002565 0.0011271 0.0000985 0.0006260 0.0002920 0.0011910 0.0083844 -0.0114248 -0.0000220 0.0001659 -0.0000517 0.0001834 -0.0001413 0.0003789 0.0001072 0.0004228 0.0002029 0.0005193 0.0002760 0.0010445
0.0002690 0.0008713 0.0001069 0.0004711 0.0003128 0.0010423 0.0013602 -0.0040098 0.0000084 0.0000628 -0.0000522 0.0000833 -0.0001345 0.0003016 0.0001260 0.0003586 0.0002226 0.0004671 0.0003209 0.0009575
0.0002978 0.0008042 0.0001271 0.0004770 0.0003569 0.0010290 -0.0103745 0.0148599 0.0000342 0.0000662 -0.0000496 0.0000825 -0.0001249 0.0003054 0.0001355 0.0003950 0.0002277 0.0005283 0.0003593 0.0010121
0.0003195 0.0008944 0.0001510 0.0006118 0.0003875 0.0011112 -0.0053048 0.0092251 0.0000477 0.0001258 -0.0000446 0.0001414 -0.0001360 0.0003725 0.0001311 0.0004665 0.0002205 0.0006010 0.0003699 0.0010917
0.0003358 0.0010837 0.0001679 0.0007458 0.0003957 0.0011909 0.0051141 -0.0070982 0.0000413 0.0001849 -0.0000406 0.0002316 -0.0001387 0.0004680 0.0001228 0.0005292 0.0002193 0.0006688 0.0003757 0.0011350
0.0003660 0.0012404 0.0001871 0.0007995 0.0004183 0.0012402 0.0123356 -0.0172249 0.0000393 0.0000395 -0.0000488 0.0001507 -0.0000678 0.0005858 0.0002267 0.0006241 0.0002914 0.0006754 0.0004449 0.0011331
0.0005236 0.0016860 0.0002530 0.0009287 0.0007482 0.0017892 0.0070540 -0.0037949 0.0001972 -0.0001546 -0.0000565 -0.0000967 0.0001091 0.0007642 0.0003755 0.0007151 0.0003913 0.0006739 0.0005006 0.0010978
0.0006492 0.0021659 0.0003425 0.0011831 0.0010281 0.0023069 0.0070066 -0.0039738 0.0003484 -0.0001297 -0.0000340 -0.0001408 0.0001751 0.0008107 0.0004030 0.0007256 0.0004512 0.0008052 0.0005571 0.0011548
0.0006135 0.0021781 0.0004273 0.0014119 0.0009710 0.0022097 0.0016191 -0.0011755 0.0003281 -0.0000655 -0.0000224 -0.0001042 0.0001221 0.0007696 0.0003896 0.0007303 0.0004833 0.0009664 0.0006178 0.0013313
0.0005600 0.0021594 0.0004840 0.0015390 0.0009388 0.0021841 -0.0167997 0.0202432 0.0003066 -0.0000195 -0.0000304 -0.0001161 0.0001360 0.0008737 0.0004002 0.0008161 0.0004904 0.0010781 0.0006374 0.0015098
0.0005452 0.0022782 0.0004804 0.0015682 0.0009413 0.0022872 -0.0000035 0.0112447 0.0002927 0.0000396 -0.0000087 0.0000092 0.0001634 0.0010197 0.0004005 0.0008652 0.0004941 0.0011374 0.0006412 0.0015905
0.0005651 0.0023692 0.0004584 0.0015106 0.0009324 0.0022411 0.0098178 -0.0092579 0.0002767 -0.0000737 0.0000277 0.0000602 0.0001958 0.0009264 0.0003834 0.0006608 0.0004909 0.0009566 0.0006183 0.0013583
0.0005493 0.0023157 0.0004309 0.0012774 0.0010081 0.0022167 0.0064592 -0.0113520 0.0002892 -0.0003536 0.0000531 -0.0000615 0.0002513 0.0006551 0.0003803 0.0004005 0.0004509 0.0006438 0.0005700 0.0009757
0.0005373 0.0021666 0.0004079 0.0011176 0.0010622 0.0021860 0.0077262 -0.0044251 0.0003080 -0.0003910 0.0000576 -0.0001199 0.0002337 0.0004644 0.0003611 0.0002859 0.0004385 0.0006058 0.0006046 0.0009500
0.0005114 0.0019862 0.0004004 0.0011048 0.0008775 0.0017171 0.0129239 -0.0175818 0.0002717 -0.0002776 0.0000216 -0.0001470 0.0001431 0.0003697 0.0003221 0.0002791 0.0004689 0.0007795 0.0007002 0.0012363
0.0004496 0.0018401 0.0003844 0.0011033 0.0006833 0.0013948 -0.0012084 -0.0078869 0.0002116 -0.0002107 -0.0000377 -0.0002135 0.0000736 0.0003365 0.0002908 0.0003441 0.0004481 0.0008548 0.0006996 0.0013939
0.0004151 0.0017647 0.0003600 0.0011128 0.0006165 0.0013981 0.0076775 -0.0203440 0.0001819 -0.0001061 -0.0000565 -0.0001758 0.0000393 0.0003774 0.0002646 0.0004190 0.0004092 0.0008877 0.0006656 0.0014854
0.0003945 0.0017311 0.0003493 0.0011110 0.0005630 0.0013561 0.0109039 -0.0108597 0.0001762 -0.0000794 -0.0000519 -0.0001596 0.0000493 0.0003691 0.0002579 0.0003670 0.0004004 0.0007915 0.0006575 0.0013956
0.0003425 0.0015679 0.0003424 0.0009724 0.0005370 0.0012179 0.0045416 0.0072678 0.0001724 -0.0002236 -0.0000552 -0.0003108 0.0000639 0.0002167 0.0002746 0.0002022 0.0004105 0.0006002 0.0006721 0.0012013
0.0002889 0.0013288 0.0003406 0.0007790 0.0005491 0.0010623 -0.0005442 0.0101562 0.0001731 -0.0002977 -0.0000584 -0.0004391 0.0000726 0.0000879 0.0002845 0.0001473 0.0004161 0.0005767 0.0006828 0.0012232
0.0002601 0.0012000 0.0003606 0.0007078 0.0005666 0.0010326 -0.0052031 0.0061300 0.0001622 -0.0002056 -0.0000522 -0.0004081 0.0000456 0.0000282 0.0002590 0.0001542 0.0004003 0.0006230 0.0006741 0.0013353
0.0002384 0.0011650 0.0004023 0.0007787 0.0005735 0.0010244 -0.0030371 0.0087950 0.0001840 -0.0000302 -0.0000258 -0.0002664 -0.0000003 0.0000181 0.0002261 0.0001845 0.0003624 0.0006658 0.0006479 0.0013898
0.0002327 0.0011196 0.0004529 0.0009827 0.0006120 0.0011434 -0.0095027 0.0087234 0.0002639 0.0002472 -0.0000107 -0.0001236 -0.0000178 0.0000644 0.0002066 0.0002848 0.0003304 0.0007485 0.0005939 0.0014208
0.0002237 0.0010092 0.0004755 0.0011149 0.0006277 0.0012585 -0.0039068 0.0015121 0.0003126 0.0004187 -0.0000047 -0.0000481 -0.0000325 0.0000809 0.0001894 0.0002705 0.0003088 0.0006712 0.0005206 0.0012276
0.0002046 0.0007777 0.0004618 0.0009685 0.0005940 0.0010260 -0.0046474 0.0018478 0.0003121 0.0002694 0.0000196 -0.0000893 0.0000020 -0.0000772 0.0001763 0.0000590 0.0002862 0.0003863 0.0004510 0.0007503
0.0001723 0.0003896 0.0004521 0.0006933 0.0005747 0.0006528 -0.0124436 0.0059636 0.0003203 0.0000486 0.0000467 -0.0001770 0.0000403 -0.0002756 0.0001702 -0.0001061 0.0002594 0.0002132 0.0004186 0.0004697
0.0001295 0.0001194 0.0004413 0.0005504 0.0005571 0.0004649 -0.0028188 0.0030388 0.0003192 -0.0000179 0.0000617 -0.0001859 0.0000314 -0.0003286 0.0001632 -0.0001017 0.0002415 0.0002421 0.0004001 0.0005144
0.0001214 0.0001346 0.0004288 0.0005429 0.0005373 0.0004494 0.0015690 -0.0118012 0.0002928 -0.0000112 0.0000608 -0.0001478 0.0000124 -0.0002563 0.0001590 -0.0000214 0.0002444 0.0003570 0.0003955 0.0006713
0.0001243 0.0003479 0.0004200 0.0005874 0.0005305 0.0005006 -0.0052684 -0.0154011 0.0002573 0.0000199 0.0000518 -0.0000741 0.0000045 -0.0001445 0.0001449 0.0000844 0.0002381 0.0004710 0.0003895 0.0008112
0.0001106 0.0005474 0.0004062 0.0006365 0.0005135 0.0005940 -0.0029850 0.0049778 0.0002282 0.0000893 0.0000450 0.0000212 -0.0000212 -0.0000170 0.0001216 0.0001905 0.0002162 0.0005588 0.0003677 0.0008914
0.0001023 0.0006381 0.0003884 0.0006460 0.0004903 0.0006196 0.0036850 -0.0001683 0.0002148 0.0000814 0.0000452 0.0000332 -0.0000048 -0.0000296 0.0001145 0.0001491 0.0002122 0.0004706 0.0003421 0.0007540
0.0001229 0.0004947 0.0003778 0.0005050 0.0004757 0.0004383 0.0012684 -0.0001076 0.0002257 -0.0000836 0.0000624 -0.0000759 0.0000456 -0.0002176 0.0001163 -0.0000530 0.0002118 0.0002143 0.0003230 0.0003776
0.0001458 0.0002189 0.0003629 0.0002798 0.0004394 0.0001575 0.0038487 0.0043728 0.0002385 -0.0002463 0.0000953 -0.0001395 0.0000678 -0.0002759 0.0001101 -0.0001320 0.0001927 0.0001230 0.0002945 0.0001603
0.0001487 0.0001914 0.0003518 0.0001677 0.0004045 -0.0000091 0.0079462 -0.0194372 0.0001987 -0.0003491 0.0001232 -0.0000807 0.0000602 -0.0002572 0.0000882 -0.0001181 0.0001585 0.0001236 0.0002239 0.0001642
0.0001829 0.0003253 0.0003721 0.0002383 0.0004045 0.0000090 0.0014525 -0.0143638 0.0001613 -0.0003243 0.0001241 -0.0000035 0.0000148 -0.0002208 0.0000675 -0.0000741 0.0001116 0.0001122 0.0001868 0.0001772
0.0002203 0.0004179 0.0003835 0.0003518 0.0003896 0.0000715 0.0039935 -0.0046557 0.0001764 -0.0001456 0.0001119 0.0000769 0.0000103 -0.0001216 0.0000457 0.0000345 0.0000531 0.0001185 0.0001501 0.0001888
0.0002096 0.0004671 0.0003678 0.0003903 0.0003425 0.0000822 -0.0025054 -0.0022090 0.0001803 0.0000122 0.0000959 0.0001548 -0.0000106 -0.0000431 0.0000188 0.0001106 0.0000149 0.0001364 0.0001349 0.0002440
0.0001780 0.0004350 0.0003708 0.0003819 0.0002893 -0.0000115 0.0026850 -0.0103074 0.0001703 -0.0000006 0.0000705 0.0000778 -0.0000557 -0.0001098 0.0000064 0.0000210 0.0000157 0.0000140 0.0001700 0.0001328
0.0001453 0.0002224 0.0003986 0.0002754 0.0002402 -0.0003232 0.0028686 -0.0037799 0.0001570 -0.0001721 0.0000434 -0.0001533 -0.0000668 -0.0003666 -0.0000110 -0.0002414 -0.0000059 -0.0002938 0.0001334 -0.0002469
0.0001414 -0.0001366 0.0003655 -0.0000001 0.0001341 -0.0008066 0.0014036 0.0013717 0.0001977 -0.0001621 0.0000500 -0.0002198 -0.0000383 -0.0005041 -0.0000407 -0.0003752 -0.0000527 -0.0004578 0.0000841 -0.0004419
0.0001594 -0.0003964 0.0003027 -0.0002701 0.0000153 -0.0012339 0.0040729 0.0023748 0.0002682 0.0000640 0.0000798 -0.0001056 0.0000062 -0.0003849 -0.0000495 -0.0003011 -0.0000758 -0.0004051 0.0000813 -0.0003246
0.0001155 -0.0005906 0.0002551 -0.0004182 -0.0000036 -0.0013261 0.0095830 0.0051275 0.0002993 0.0002945 0.0001015 0.0000321 0.0000366 -0.0001959 -0.0000465 -0.0001718 -0.0000807 -0.0002813 0.0000865 -0.0001623
0.0000636 -0.0007044 0.0002018 -0.0005060 0.0000182 -0.0012045 0.0044359 0.0079526 0.0002710 0.0003839 0.0001190 0.0001768 0.0000919 0.0000247 -0.0000450 -0.0000080 -0.0000659 -0.0000834 0.0001063 0.0001168
0.0000990 -0.0002926 0.0001897 -0.0004038 0.0000879 -0.0008226 -0.0024580 0.0062400 0.0001632 0.0002326 0.0001143 0.0002768 0.0001042 0.0002262 -0.0000362 0.0001493 -0.0000326 0.0001202 0.0001440 0.0003953
0.0001615 0.0002860 0.0002172 -0.0002191 0.0001690 -0.0004753 -0.0030988 0.0053762 0.0001030 0.0000363 0.0001067 0.0002426 0.0000926 0.0002364 -0.0000194 0.0000954 -0.0000016 0.0000587 0.0001720 0.0003271
0.0001823 0.0003592 0.0002534 -0.0002039 0.0001772 -0.0005844 -0.0145726 0.0160216 0.0001215 -0.0001390 0.0001140 0.0000876 0.0001197 0.0000881 0.0000059 -0.0000612 0.0000302 -0.0000880 0.0002343 0.0002294
0.0002115 0.0003365 0.0003115 -0.0001036 0.0002002 -0.0006148 -0.0015183 0.0107077 0.0001073 -0.0002518 0.0000989 -0.0000478 0.0000852 0.0000437 0.0000356 -0.0000101 0.0000962 0.0000606 0.0003277 0.0003995
0.0002644 0.0005305 0.0003629 0.0001409 0.0002335 -0.0004515 -0.0091365 0.0213099 0.0001025 -0.0002056 0.0000917 -0.0000262 0.0000571 0.0000855 0.0000428 0.0000976 0.0001191 0.0002187 0.0003085 0.0004767
0.0002959 0.0006178 0.0003628 0.0002516 0.0002106 -0.0003939 -0.0127601 0.0160191 0.0001211 -0.0000827 0.0001014 0.0001052 0.0000296 0.0001448 0.0000262 0.0001923 0.0000917 0.0002853 0.0002638 0.0005405
0.0003035 0.0006945 0.0003563 0.0003333 0.0001911 -0.0003064 0.0015675 -0.0009244 0.0001175 0.0000583 0.0000910 0.0001972 -0.0000236 0.0002531 0.0000195 0.0003444 0.0000787 0.0003996 0.0002415 0.0006804
0.0003008 0.0008135 0.0003474 0.0004245 0.0001806 -0.0001571 0.0135697 -0.0119768 0.0001278 0.0002091 0.0000882 0.0003117 -0.0000007 0.0004114 0.0000301 0.0005027 0.0000766 0.0005248 0.0002332 0.0008214
0.0003027 0.0009026 0.0003559 0.0004747 0.0001813 -0.0000952 0.0183554 -0.0209908 0.0001421 0.0002473 0.0000944 0.0003412 0.0000473 0.0004836 0.0000575 0.0004928 0.0001028 0.0004827 0.0002759 0.0008345
0.0002925 0.0008085 0.0003809 0.0004159 0.0001925 -0.0002227 0.0176427 -0.0223479 0.0001573 0.0001345 0.0001036 0.0002305 0.0000584 0.0003965 0.0000782 0.0003349 0.0001213 0.0002979 0.0003063 0.0006774
0.0002822 0.0006020 0.0003846 0.0003275 0.0001809 -0.0003479 0.0174305 -0.0225555 0.0001720 0.0000937 0.0001079 0.0001815 0.0000719 0.0003439 0.0000797 0.0002962 0.0001190 0.0002718 0.0003104 0.0006636
0.0002658 0.0005498 0.0003807 0.0003396 0.0001702 -0.0003362 0.0100920 -0.0191032 0.0001682 0.0001637 0.0001015 0.0002207 0.0000645 0.0003806 0.0000771 0.0003638 0.0001177 0.0003695 0.0003219 0.0008022
0.0002555 0.0005771 0.0003753 0.0004069 0.0001505 -0.0002725 -0.0048677 -0.0144615 0.0001623 0.0002846 0.0000885 0.0002848 0.0000330 0.0004518 0.0000702 0.0004598 0.0001109 0.0004681 0.0003212 0.0009352
0.0002383 0.0006143 0.0003551 0.0004696 0.0001085 -0.0001925 -0.0332742 0.0214726 0.0001633 0.0004473 0.0000811 0.0003891 0.0000171 0.0005180 0.0000458 0.0005377 0.0000821 0.0005169 0.0002612 0.0009892
0.0001901 0.0006387 0.0003197 0.0005051 0.0000611 -0.0001617 -0.0228802 0.0140153 0.0001625 0.0005912 0.0000768 0.0005108 0.0000082 0.0006101 0.0000157 0.0005881 0.0000546 0.0005394 0.0001982 0.0009634
0.0001632 0.0006045 0.0002930 0.0004554 0.0000340 -0.0001940 -0.0079923 -0.0037788 0.0001768 0.0006256 0.0000887 0.0005584 0.0000282 0.0006401 0.0000186 0.0004919 0.0000515 0.0003978 0.0001622 0.0008321
0.0001594 0.0004333 0.0002825 0.0002925 0.0000535 -0.0002737 -0.0063314 0.0049944 0.0002233 0.0005397 0.0001130 0.0004976 0.0001061 0.0005562 0.0000468 0.0003558 0.0000596 0.0002331 0.0001852 0.0006761
0.0001527 0.0002074 0.0002629 0.0001435 0.0001061 -0.0002850 -0.0139403 0.0147284 0.0002679 0.0005162 0.0001137 0.0004703 0.0001370 0.0004976 0.0000527 0.0003510 0.0000631 0.0002479 0.0001956 0.0006710
0.0001387 0.0000993 0.0002398 0.0000832 0.0001361 -0.0002091 0.0037654 -0.0060476 0.0002670 0.0005787 0.0001043 0.0005226 0.0000766 0.0005160 0.0000392 0.0003768 0.0000535 0.0002983 0.0001484 0.0007351
0.0001077 0.0001119 0.0002193 0.0000738 0.0001375 -0.0001566 0.0079618 -0.0102294 0.0002288 0.0005626 0.0000985 0.0005915 0.0000614 0.0006231 0.0000247 0.0004534 0.0000405 0.0003949 0.0001009 0.0007255
0.0001506 0.0004814 0.0001884 0.0000689 0.0001942 0.0000360 -0.0113884 0.0109068 0.0001541 0.0004376 0.0000968 0.0007007 0.0000519 0.0007946 0.0000164 0.0005581 0.0000329 0.0005032 0.0000658 0.0008174
0.0002263 0.0009850 0.0001896 0.0001986 0.0002513 0.0003079 -0.0078960 0.0079611 0.0000915 0.0004185 0.0000866 0.0007747 0.0000185 0.0008226 0.0000165 0.0005645 0.0000380 0.0004868 0.0000631 0.0008610
0.0001999 0.0010454 0.0002142 0.0002750 0.0002185 0.0002404 0.0081677 -0.0137927 0.0000934 0.0004020 0.0000746 0.0006987 0.0000193 0.0006727 0.0000169 0.0004363 0.0000446 0.0003262 0.0000625 0.0006454
0.0001571 0.0007940 0.0002237 0.0001482 0.0001885 -0.0000458 0.0096016 -0.0129037 0.0001174 0.0002978 0.0000754 0.0005993 0.0000268 0.0005592 0.0000137 0.0003284 0.0000328 0.0002154 0.0000653 0.0004847
0.0001496 0.0006241 0.0002287 0.0000902 0.0001850 -0.0001627 0.0045044 -0.0041188 0.0001322 0.0003026 0.0000729 0.0005935 0.0000227 0.0005277 0.0000051 0.0003233 0.0000141 0.0002191 0.0000599 0.0004784
0.0001343 0.0006015 0.0002261 0.0001233 0.0001623 -0.0001493 -0.0043498 -0.0000555 0.0001302 0.0003702 0.0000660 0.0006366 -0.0000024 0.0005436 -0.0000139 0.0003621 -0.0000020 0.0002578 0.0000332 0.0005266
0.0001300 0.0006122 0.0002204 0.0001807 0.0001389 -0.0001188 -0.0286083 0.0255049 0.0001179 0.0004673 0.0000576 0.0007070 -0.0000455 0.0006065 -0.0000343 0.0004303 -0.0000213 0.0003282 0.0000006 0.0006356
0.0001118 0.0006896 0.0002172 0.0002567 0.0001257 -0.0000524 -0.0082860 0.0134822 0.0001089 0.0005762 0.0000454 0.0007621 -0.0000682 0.0006484 -0.0000376 0.0004366 -0.0000297 0.0003185 -0.0000177 0.0006423
0.0000847 0.0006637 0.0002193 0.0002304 0.0001198 -0.0000961 0.0019939 0.0101912 0.0001195 0.0005264 0.0000445 0.0007023 -0.0000308 0.0005557 -0.0000236 0.0003120 -0.0000135 0.0001765 0.0000098 0.0004619
0.0000919 0.0004655 0.0002283 0.0000881 0.0001283 -0.0002797 -0.0017218 0.0133093 0.0001370 0.0003508 0.0000560 0.0005811 0.0000060 0.0004335 0.0000004 0.0002190 0.0000158 0.0001289 0.0000897 0.0004813
0.0001268 0.0004041 0.0002421 0.0000443 0.0001745 -0.0002734 -0.0050468 -0.0019609 0.0001401 0.0003524 0.0000432 0.0005108 -0.0000305 0.0003842 0.0000174 0.0002466 0.0000424 0.0002106 0.0001565 0.0007421
0.0001290 0.0003634 0.0002323 0.0000699 0.0002205 -0.0000706 -0.0242294 0.0088705 0.0001646 0.0005221 0.0000182 0.0004860 -0.0000567 0.0003936 0.0000376 0.0003605 0.0000463 0.0003047 0.0001804 0.0008932
0.0000816 0.0001987 0.0001917 0.0000279 0.0002272 0.0000590 -0.0273124 0.0243990 0.0002033 0.0007101 0.0000112 0.0005279 -0.0000614 0.0004755 0.0000363 0.0004649 0.0000298 0.0003919 0.0001876 0.0009647
0.0000007 0.0000644 0.0001528 -0.0000152 0.0002138 0.0001113 -0.0111926 0.0115256 0.0002068 0.0008543 0.0000137 0.0005908 -0.0000795 0.0004860 0.0000140 0.0004265 0.0000236 0.0003482 0.0001784 0.0009191
-0.0000595 -0.0001753 0.0001379 -0.0001301 0.0001710 -0.0000553 0.0030266 -0.0041338 0.0001999 0.0007973 0.0000246 0.0005146 -0.0000609 0.0003443 0.0000185 0.0002646 0.0000342 0.0001641 0.0001807 0.0006770
-0.0000593 -0.0005226 0.0001417 -0.0003424 0.0001378 -0.0003855 0.0041194 0.0028395 0.0002023 0.0005919 0.0000376 0.0003671 -0.0000173 0.0001941 0.0000359 0.0001447 0.0000394 0.0000713 0.0002010 0.0004833
-0.0000259 -0.0005974 0.0001423 -0.0004211 0.0001625 -0.0004547 0.0067334 -0.0005712 0.0001594 0.0003603 0.0000487 0.0003224 -0.0000055 0.0001554 0.0000451 0.0001484 0.0000427 0.0001201 0.0001995 0.0005025
0.0000769 -0.0001911 0.0001687 -0.0002822 0.0002821 -0.0001167 0.0181690 -0.0336827 0.0001059 0.0001780 0.0000547 0.0003499 -0.0000355 0.0002008 0.0000395 0.0002068 0.0000385 0.0001855 0.0001925 0.0006001
0.0001625 0.0002367 0.0001970 -0.0000992 0.0003724 0.0001928 -0.0035288 -0.0076244 0.0000946 0.0001956 0.0000566 0.0004175 -0.0000463 0.0003141 0.0000295 0.0002987 0.0000256 0.0002770 0.0001902 0.0007085
0.0001637 0.0003790 0.0001900 0.0000071 0.0003617 0.0002849 -0.0115199 0.0163358 0.0000892 0.0003083 0.0000576 0.0005028 -0.0000455 0.0004529 0.0000236 0.0004101 0.0000142 0.0003849 0.0001758 0.0008359
0.0001413 0.0004575 0.0001851 0.0000577 0.0003479 0.0003473 0.0008800 0.0064020 0.0000909 0.0003188 0.0000567 0.0004945 -0.0000314 0.0004285 0.0000308 0.0003683 0.0000211 0.0003151 0.0001637 0.0007385
0.0001458 0.0003623 0.0001952 -0.0000281 0.0003413 0.0002349 -0.0021699 0.0090048 0.0001087 0.0001596 0.0000661 0.0003577 -0.0000008 0.0002348 0.0000468 0.0001670 0.0000414 0.0001067 0.0001767 0.0004645
0.0001661 0.0001404 0.0002078 -0.0001540 0.0003446 0.0000520 0.0048317 -0.0017573 0.0001224 0.0000301 0.0000795 0.0002639 0.0000132 0.0001149 0.0000502 0.0000955 0.0000412 0.0000558 0.0001901 0.0003878
0.0001758 0.0000508 0.0002109 -0.0001684 0.0003434 0.0000244 0.0188030 -0.0384694 0.0001231 0.0000455 0.0000847 0.0002790 -0.0000192 0.0001515 0.0000456 0.0001487 0.0000278 0.0001272 0.0001730 0.0004800
0.0001748 0.0001136 0.0002096 -0.0001085 0.0003377 0.0001105 0.0266294 -0.0548806 0.0001163 0.0001159 0.0000843 0.0003381 -0.0000353 0.0002457 0.0000409 0.0002373 0.0000187 0.0002143 0.0001402 0.0006064
0.0001776 0.0002623 0.0002072 -0.0000083 0.0003232 0.0002208 0.0167162 -0.0266318 0.0001092 0.0002136 0.0000796 0.0004214 -0.0000317 0.0003459 0.0000328 0.0003560 0.0000087 0.0003209 0.0001272 0.0007565
0.0001820 0.0004058 0.0002036 0.0001013 0.0002992 0.0003368 0.0020275 -0.0015924 0.0001033 0.0002927 0.0000758 0.0004787 -0.0000274 0.0003969 0.0000317 0.0003808 0.0000102 0.0003234 0.0001186 0.0007674
0.0001717 0.0003903 0.0002061 0.0000834 0.0002892 0.0002961 0.0048512 0.0012671 0.0001081 0.0002039 0.0000799 0.0004062 -0.0000100 0.0003282 0.0000430 0.0002625 0.0000266 0.0001753 0.0001254 0.0005739
0.0001643 0.0002100 0.0002132 -0.0000633 0.0003162 0.0001566 0.0109596 -0.0101575 0.0001173 0.0000237 0.0000814 0.0002739 0.0000099 0.0002272 0.0000617 0.0002081 0.0000449 0.0001338 0.0001562 0.0004879
0.0001964 0.0002211 0.0002220 -0.0000892 0.0004064 0.0003324 0.0000187 -0.0058516 0.0001024 -0.0000525 0.0000307 0.0001135 0.0000231 0.0002367 0.0001508 0.0004141 0.0001146 0.0003350 0.0002259 0.0006589
0.0002196 0.0003177 0.0001997 -0.0001035 0.0004417 0.0004390 -0.0046015 -0.0009930 0.0001288 -0.0000035 -0.0000363 -0.0000496 0.0000474 0.0003725 0.0002282 0.0006169 0.0001726 0.0005037 0.0002530 0.0007821
0.0002073 0.0003287 0.0001739 -0.0001240 0.0004014 0.0003222 -0.0000288 -0.0071083 0.0001610 0.0001385 -0.0000389 0.0000182 0.0000965 0.0005840 0.0002343 0.0007487 0.0001873 0.0006356 0.0002429 0.0009957
0.0002325 0.0005207 0.0001856 0.0000072 0.0004178 0.0004822 -0.0045294 0.0059539 0.0001534 0.0003331 -0.0000030 0.0002605 0.0001004 0.0007291 0.0001859 0.0007761 0.0001770 0.0007632 0.0002245 0.0012334
0.0002603 0.0007237 0.0001872 0.0001394 0.0004222 0.0007104 -0.0119126 0.0196486 0.0001535 0.0005222 0.0000185 0.0004621 0.0000837 0.0007819 0.0001063 0.0006807 0.0001412 0.0007750 0.0001613 0.0012175
0.0002409 0.0007183 0.0001829 0.0001313 0.0003868 0.0006940 -0.0388736 0.0394740 0.0001516 0.0004940 0.0000274 0.0004653 0.0000932 0.0007120 0.0000791 0.0005324 0.0001336 0.0006235 0.0001381 0.0009891
0.0002244 0.0005491 0.0001862 -0.0000214 0.0003720 0.0004830 -0.0095260 0.0151082 0.0001656 0.0003010 0.0000280 0.0002682 0.0000648 0.0005143 0.0000727 0.0003551 0.0001512 0.0004813 0.0001836 0.0008381
0.0002154 0.0003638 0.0001939 -0.0000999 0.0003607 0.0003658 0.0079096 -0.0028382 0.0001480 0.0001877 -0.0000106 0.0000646 -0.0000456 0.0002958 0.0000581 0.0002797 0.0001407 0.0004202 0.0001778 0.0007070
0.0001732 0.0001957 0.0001903 -0.0001156 0.0003173 0.0002979 0.0047894 -0.0057596 0.0001368 0.0001855 -0.0000297 0.0000453 -0.0000792 0.0001461 -0.0000019 0.0001939 0.0000567 0.0002253 0.0000379 0.0002838
0.0000705 0.0000265 0.0001720 -0.0001380 0.0002692 0.0001890 -0.0135179 0.0062088 0.0001345 0.0002483 -0.0000347 0.0000890 -0.0000973 0.0001382 -0.0000667 0.0001267 0.0000105 0.0001612 -0.0000162 0.0001639
-0.0000263 -0.0000004 0.0001554 -0.0000768 0.0002315 0.0001858 -0.0008110 0.0055878 0.0000675 0.0003042 -0.0000912 0.0000328 -0.0002039 0.0002003 -0.0000601 0.0002715 0.0000835 0.0004665 0.0001405 0.0007832
-0.0000674 0.0001390 0.0001563 0.0000760 0.0002096 0.0003482 0.0043617 0.0043314 0.0000163 0.0004533 -0.0001356 0.0000259 -0.0002575 0.0003331 -0.0000325 0.0005147 0.0001534 0.0007976 0.0002794 0.0013311
-0.0001211 0.0001420 0.0001583 0.0001271 0.0001861 0.0004238 0.0011456 -0.0011500 0.0000422 0.0006256 -0.0001305 0.0000308 -0.0002433 0.0003621 -0.0000186 0.0004884 0.0001737 0.0007414 0.0003145 0.0012513
-0.0001644 -0.0001658 0.0001495 -0.0000376 0.0001382 0.0001512 0.0031760 -0.0067527 0.0000827 0.0005487 -0.0000971 -0.0000666 -0.0002035 0.0002031 -0.0000193 0.0002170 0.0001523 0.0003942 0.0002670 0.0007603
-0.0001677 -0.0005568 0.0001377 -0.0002749 0.0001215 -0.0001667 0.0095112 -0.0066710 0.0001311 0.0004400 -0.0000486 -0.0000789 -0.0001367 0.0001295 -0.0000242 0.0000821 0.0001169 0.0002093 0.0002106 0.0004852
-0.0001732 -0.0006516 0.0001351 -0.0003784 0.0001542 -0.0002592 0.0023991 0.0017237 0.0001490 0.0004545 -0.0000391 -0.0000510 -0.0001216 0.0001338 -0.0000153 0.0001659 0.0001316 0.0003125 0.0002663 0.0006544
-0.0001551 -0.0005761 0.0001418 -0.0003219 0.0001570 -0.0002352 -0.0136138 0.0149106 0.0001314 0.0005409 -0.0000597 -0.0000394 -0.0001530 0.0001617 -0.0000074 0.0002937 0.0001531 0.0004894 0.0003273 0.0008996
-0.0001461 -0.0005619 0.0001299 -0.0002561 0.0000996 -0.0002375 0.0012872 0.0044639 0.0001423 0.0007358 -0.0000650 0.0000241 -0.0001838 0.0002862 0.0000045 0.0004290 0.0001651 0.0006431 0.0003721 0.0011267
-0.0001694 -0.0005210 0.0001049 -0.0001928 0.0000415 -0.0002446 -0.0009432 0.0060863 0.0001335 0.0008887 -0.0000692 0.0000678 -0.0002166 0.0003474 0.0000039 0.0004757 0.0001742 0.0006681 0.0003811 0.0011043
-0.0001818 -0.0006103 0.0000978 -0.0002221 0.0000035 -0.0003521 -0.0060046 0.0013290 0.0001279 0.0008307 -0.0000577 0.0000472 -0.0001975 0.0002733 0.0000051 0.0003710 0.0001638 0.0004960 0.0003596 0.0008147
-0.0001715 -0.0008299 0.0001157 -0.0003384 0.0000015 -0.0005666 0.0011790 -0.0035462 0.0001415 0.0006521 -0.0000246 0.0000105 -0.0001433 0.0001500 0.0000155 0.0002837 0.0001312 0.0003130 0.0003146 0.0005440
-0.0001455 -0.0009257 0.0001308 -0.0003715 0.0000199 -0.0006551 0.0032980 0.0048149 0.0001578 0.0005937 0.0000160 0.0000875 -0.0001210 0.0001491 0.0000236 0.0003097 0.0001034 0.0002766 0.0002602 0.0004923
-0.0001158 -0.0008511 0.0001400 -0.0002933 0.0000236 -0.0005945 0.0137896 -0.0183307 0.0001625 0.0006376 0.0000433 0.0002161 -0.0000985 0.0002253 0.0000246 0.0003722 0.0000881 0.0003328 0.0002259 0.0005842
-0.0000965 -0.0007309 0.0001418 -0.0001962 0.0000073 -0.0005064 0.0231556 -0.0534372 0.0001456 0.0007031 0.0000515 0.0003257 -0.0000835 0.0003077 0.0000164 0.0004676 0.0000832 0.0004739 0.0002342 0.0007689
-0.0000620 -0.0005079 0.0001383 -0.0001092 -0.0000095 -0.0003863 0.0077627 -0.0140486 0.0001112 0.0007847 0.0000348 0.0003960 -0.0001110 0.0003977 0.0000142 0.0006082 0.0000970 0.0006742 0.0002844 0.0010468
0.0000952 -0.0002894 0.0001416 -0.0001336 -0.0000130 -0.0002964 0.0011408 -0.0005829 0.0000796 0.0007614 0.0000074 0.0003405 -0.0001394 0.0003685 0.0000348 0.0006193 0.0001345 0.0007005 0.0003648 0.0011203
0.0003801 -0.0001779 0.0002253 -0.0002891 -0.0000090 -0.0003285 0.0053806 -0.0090106 0.0000551 0.0005912 -0.0000192 0.0001578 -0.0001717 0.0002777 0.0000717 0.0005476 0.0001929 0.0006549 0.0004508 0.0011222
0.0006593 0.0000437 0.0003743 -0.0003135 0.0000008 -0.0003462 0.0071815 -0.0140311 0.0000356 0.0005234 -0.0000326 0.0000764 -0.0001973 0.0002521 0.0000884 0.0005545 0.0002132 0.0006899 0.0004418 0.0011813
0.0006685 0.0000942 0.0004195 -0.0001197 -0.0000119 -0.0002966 -0.0091907 0.0053447 0.0000483 0.0006346 -0.0000186 0.0001642 -0.0001882 0.0002575 0.0000677 0.0005535 0.0001565 0.0006307 0.0003375 0.0010036
0.0002717 -0.0001782 0.0002745 -0.0000169 -0.0000466 -0.0002611 0.0023753 -0.0044198 0.0000762 0.0007600 -0.0000009 0.0003043 -0.0001596 0.0002908 0.0000323 0.0005806 0.0001014 0.0006272 0.0002712 0.0009490
-0.0000731 -0.0002268 0.0001315 0.0000216 -0.0000717 -0.0001776 0.0134823 -0.0245420 0.0000671 0.0008607 -0.0000074 0.0004054 -0.0001916 0.0003752 0.0000151 0.0006393 0.0001124 0.0007260 0.0002820 0.0010827
-0.0001425 -0.0001726 0.0001057 0.0000454 -0.0000837 -0.0001668 0.0017154 -0.0041091 0.0000475 0.0008093 -0.0000165 0.0003594 -0.0002358 0.0003162 0.0000189 0.0005315 0.0001313 0.0006239 0.0002834 0.0009428
-0.0001394 -0.0003413 0.0000995 -0.0000632 -0.0000810 -0.0003024 0.0025451 -0.0027978 0.0000582 0.0006399 -0.0000091 0.0002424 -0.0002323 0.0001241 0.0000258 0.0003730 0.0001275 0.0004642 0.0002822 0.0007282
-0.0001179 -0.0005005 0.0000871 -0.0001333 -0.0000945 -0.0003702 0.0078093 -0.0129190 0.0000626 0.0006043 -0.0000080 0.0002224 -0.0002268 0.0000305 0.0000087 0.0003500 0.0001127 0.0004561 0.0002637 0.0006527
-0.0001719 -0.0005519 0.0000584 -0.0001272 -0.0001286 -0.0003460 0.0079974 -0.0101402 0.0000540 0.0006693 -0.0000031 0.0003066 -0.0002143 0.0000892 -0.0000121 0.0003994 0.0000945 0.0005185 0.0002273 0.0006731
-0.0002274 -0.0005116 0.0000314 -0.0000695 -0.0001552 -0.0002896 0.0088046 -0.0126341 0.0000313 0.0007211 -0.0000025 0.0004009 -0.0002182 0.0002089 -0.0000260 0.0005163 0.0000934 0.0006640 0.0002267 0.0008415
-0.0002205 -0.0003102 0.0000186 0.0000457 -0.0001707 -0.0001648 0.0055077 -0.0093820 -0.0000033 0.0007526 -0.0000146 0.0004393 -0.0002483 0.0002635 -0.0000321 0.0005467 0.0001102 0.0006972 0.0002499 0.0008724
-0.0001834 -0.0003146 0.0000176 0.0000262 -0.0001764 -0.0001908 0.0065408 -0.0217458 -0.0000131 0.0006517 -0.0000195 0.0003587 -0.0002631 0.0001742 -0.0000157 0.0004182 0.0001298 0.0005619 0.0002723 0.0006889
-0.0001664 -0.0005182 0.0000229 -0.0000999 -0.0001764 -0.0003456 0.0020896 -0.0334182 -0.0000065 0.0005268 -0.0000174 0.0002555 -0.0002795 0.0000875 -0.0000070 0.0003567 0.0001374 0.0005260 0.0003032 0.0006338
-0.0001572 -0.0005793 0.0000238 -0.0001174 -0.0001700 -0.0003542 -0.0060543 -0.0051225 -0.0000106 0.0005474 -0.0000200 0.0002514 -0.0002827 0.0001076 -0.0000084 0.0004130 0.0001372 0.0006333 0.0003343 0.0007526
-0.0001338 -0.0005311 0.0000191 -0.0000438 -0.0001677 -0.0002561 -0.0023056 -0.0029514 -0.0000225 0.0006430 -0.0000305 0.0002951 -0.0003008 0.0001848 -0.0000113 0.0005182 0.0001345 0.0007779 0.0003521 0.0009467
-0.0001212 -0.0004018 0.0000111 0.0000524 -0.0001829 -0.0001274 0.0004234 -0.0059120 -0.0000388 0.0007691 -0.0000494 0.0003542 -0.0003335 0.0002864 -0.0000235 0.0006543 0.0001239 0.0009239 0.0003567 0.0011691
-0.0001158 -0.0002286 0.0000016 0.0001446 -0.0001997 0.0000161 0.0081338 -0.0173154 -0.0000520 0.0008584 -0.0000648 0.0003695 -0.0003364 0.0002997 -0.0000255 0.0006501 0.0001243 0.0009035 0.0003540 0.0011672
-0.0001077 -0.0002651 -0.0000015 0.0000819 -0.0001979 -0.0000345 0.0214933 -0.0334136 -0.0000464 0.0007722 -0.0000654 0.0002643 -0.0003630 0.0001844 -0.0000144 0.0004904 0.0001345 0.0007139 0.0003512 0.0009504
-0.0000470 -0.0004851 0.0000005 -0.0000735 -0.0001859 -0.0001729 0.0211209 -0.0351508 -0.0000266 0.0006304 -0.0000537 0.0001791 -0.0003685 0.0000954 -0.0000094 0.0004220 0.0001252 0.0006326 0.0003367 0.0008602
0.0000121 -0.0005223 0.0000034 -0.0000980 -0.0001683 -0.0001435 0.0195730 -0.0384889 -0.0000251 0.0006372 -0.0000445 0.0002049 -0.0003461 0.0001222 -0.0000142 0.0004853 0.0001093 0.0007009 0.0003348 0.0009439
0.0000163 -0.0004219 0.0000063 -0.0000368 -0.0001639 -0.0000644 0.0080042 -0.0122490 -0.0000308 0.0007298 -0.0000453 0.0002644 -0.0003179 0.0001607 -0.0000264 0.0005800 0.0000955 0.0007998 0.0003400 0.0010652
0.0000154 -0.0003344 0.0000015 0.0000384 -0.0001835 0.0000199 0.0001069 0.0020699 -0.0000375 0.0008458 -0.0000512 0.0003509 -0.0003306 0.0002793 -0.0000377 0.0006964 0.0000810 0.0009025 0.0003173 0.0012259
-0.0000028 -0.0002197 -0.0000033 0.0000910 -0.0001977 0.0000898 0.0083356 -0.0110013 -0.0000423 0.0008592 -0.0000559 0.0003540 -0.0003530 0.0003044 -0.0000286 0.0006697 0.0000853 0.0008452 0.0003013 0.0011698
-0.0000341 -0.0002831 0.0000008 0.0000064 -0.0001911 0.0000029 0.0038615 -0.0142178 -0.0000359 0.0007221 -0.0000514 0.0002357 -0.0003207 0.0001381 -0.0000155 0.0005299 0.0001006 0.0006831 0.0003114 0.0009562
-0.0000298 -0.0004754 0.0000050 -0.0001084 -0.0001816 -0.0001247 -0.0010411 -0.0078891 -0.0000316 0.0006581 -0.0000415 0.0001726 -0.0003117 0.0000904 -0.0000121 0.0005140 0.0001057 0.0006818 0.0003275 0.0009512
0.0000001 -0.0005084 0.0000054 -0.0001063 -0.0001744 -0.0001331 -0.0012070 0.0035648 -0.0000377 0.0007207 -0.0000408 0.0002006 -0.0003193 0.0001588 -0.0000142 0.0005928 0.0001039 0.0007881 0.0003255 0.0010883
0.0000144 -0.0004045 0.0000030 -0.0000506 -0.0001700 -0.0000649 -0.0077783 0.0142881 -0.0000557 0.0008027 -0.0000495 0.0002573 -0.0003166 0.0002502 -0.0000223 0.0006892 0.0000981 0.0009074 0.0003181 0.0012575
0.0000160 -0.0002412 -0.0000046 0.0000411 -0.0001776 0.0000603 -0.0027353 0.0064490 -0.0000787 0.0009046 -0.0000602 0.0003275 -0.0003384 0.0003914 -0.0000264 0.0008132 0.0001034 0.0010760 0.0003254 0.0015088
0.0000096 -0.0000751 -0.0000091 0.0001232 -0.0001913 0.0001628 0.0094841 -0.0131039 -0.0000931 0.0009105 -0.0000718 0.0003050 -0.0003431 0.0004141 -0.0000214 0.0008026 0.0001276 0.0010725 0.0003374 0.0015262
-0.0000027 -0.0001447 -0.0000038 0.0000492 -0.0001793 0.0000514 0.0151972 -0.0338724 -0.0000891 0.0007708 -0.0000707 0.0001741 -0.0003518 0.0002835 -0.0000114 0.0006372 0.0001459 0.0008820 0.0003613 0.0012948
-0.0000055 -0.0003732 0.0000012 -0.0000781 -0.0001602 -0.0001226 -0.0060593 -0.0014739 -0.0000779 0.0006896 -0.0000579 0.0001042 -0.0003660 0.0002332 -0.0000112 0.0005727 0.0001438 0.0008246 0.0003685 0.0012609
-0.0000003 -0.0004205 0.0000018 -0.0000809 -0.0001535 -0.0001255 -0.0164597 0.0073785 -0.0000801 0.0007371 -0.0000527 0.0001373 -0.0003393 0.0002609 -0.0000174 0.0006221 0.0001333 0.0008861 0.0003659 0.0013538
0.0000060 -0.0003449 0.0000019 -0.0000204 -0.0001537 -0.0000519 -0.0074982 0.0062223 -0.0000935 0.0008273 -0.0000569 0.0002100 -0.0003501 0.0003297 -0.0000300 0.0006896 0.0001183 0.0009624 0.0003489 0.0014586
0.0000098 -0.0002367 -0.0000019 0.0000623 -0.0001624 0.0000432 -0.0057257 0.0173933 -0.0001058 0.0009384 -0.0000631 0.0003040 -0.0003848 0.0004501 -0.0000509 0.0007868 0.0000935 0.0010516 0.0003118 0.0015819
-0.0000125 -0.0000893 -0.0000078 0.0001417 -0.0001641 0.0001147 -0.0055749 0.0145906 -0.0001116 0.0009872 -0.0000668 0.0003354 -0.0003736 0.0004505 -0.0000577 0.0007625 0.0000870 0.0009913 0.0003018 0.0014886
-0.0000358 -0.0001586 -0.0000108 0.0000752 -0.0001621 0.0000159 -0.0137260 0.0109100 -0.0001046 0.0008662 -0.0000606 0.0002442 -0.0003543 0.0003230 -0.0000520 0.0005910 0.0001019 0.0007895 0.0003005 0.0012366
-0.0000232 -0.0003944 -0.0000034 -0.0000652 -0.0001561 -0.0001558 0.0015955 0.0024976 -0.0000925 0.0007490 -0.0000483 0.0001824 -0.0003328 0.0002425 -0.0000522 0.0005154 0.0001038 0.0007207 0.0002892 0.0011715
-0.0000109 -0.0004345 0.0000013 -0.0000766 -0.0001460 -0.0001866 0.0031180 0.0123885 -0.0000892 0.0007599 -0.0000391 0.0002186 -0.0003197 0.0002769 -0.0000607 0.0005425 0.0000955 0.0007807 0.0002884 0.0012402
-0.0000205 -0.0003131 -0.0000048 -0.0000108 -0.0001460 -0.0001258 0.0031119 0.0056343 -0.0001031 0.0008264 -0.0000360 0.0002850 -0.0003365 0.0003836 -0.0000767 0.0005982 0.0000848 0.0008694 0.0002854 0.0013274
-0.0000176 -0.0001905 -0.0000135 0.0000722 -0.0001600 -0.0000252 0.0109085 -0.0157500 -0.0001219 0.0009173 -0.0000409 0.0003806 -0.0003465 0.0005051 -0.0000972 0.0006860 0.0000700 0.0009665 0.0002600 0.0014279
-0.0000255 -0.0000388 -0.0000251 0.0001679 -0.0001769 0.0000839 0.0033836 -0.0095477 -0.0001370 0.0009726 -0.0000441 0.0004532 -0.0003620 0.0005710 -0.0001076 0.0006718 0.0000669 0.0009266 0.0002371 0.0013503
-0.0000350 -0.0000529 -0.0000299 0.0001372 -0.0001904 0.0000159 -0.0036647 0.0109423 -0.0001382 0.0008633 -0.0000375 0.0003939 -0.0003403 0.0004829 -0.0001033 0.0005272 0.0000730 0.0007336 0.0002349 0.0010796
-0.0000271 -0.0002691 -0.0000210 -0.0000037 -0.0001809 -0.0001845 -0.0123108 0.0244682 -0.0001201 0.0006931 -0.0000215 0.0003035 -0.0002896 0.0003713 -0.0000979 0.0004462 0.0000696 0.0006089 0.0002225 0.0008824
-0.0000163 -0.0003654 -0.0000127 -0.0000577 -0.0001600 -0.0002621 -0.0149523 0.0135426 -0.0001003 0.0006767 -0.0000021 0.0003362 -0.0002590 0.0003773 -0.0001010 0.0004618 0.0000463 0.0005772 0.0001849 0.0007841
-0.0000058 -0.0003386 -0.0000193 -0.0000472 -0.0001538 -0.0002440 0.0049853 -0.0089833 -0.0000883 0.0007357 0.0000131 0.0004314 -0.0002320 0.0004443 -0.0001065 0.0005192 0.0000087 0.0005819 0.0001157 0.0007247
-0.0000003 -0.0002487 -0.0000322 -0.0000179 -0.0001609 -0.0001806 0.0105964 -0.0072359 -0.0000816 0.0008176 0.0000197 0.0005378 -0.0002285 0.0005494 -0.0001094 0.0006174 -0.0000103 0.0006733 0.0000681 0.0007967
-0.0000110 -0.0000758 -0.0000424 0.0000577 -0.0001679 -0.0000834 0.0084680 -0.0083853 -0.0000852 0.0009208 0.0000196 0.0006309 -0.0002290 0.0006320 -0.0001207 0.0006007 -0.0000363 0.0005810 -0.0000081 0.0005760
-0.0000400 -0.0000940 -0.0000575 -0.0000025 -0.0001655 -0.0001314 -0.0040252 0.0023535 -0.0000578 0.0008364 0.0000412 0.0006271 -0.0001629 0.0005525 -0.0001303 0.0004380 -0.0000672 0.0002811 -0.0000734 0.0001393
-0.0000430 -0.0002390 -0.0000597 -0.0001540 -0.0001424 -0.0002954 -0.0078953 0.0094154 -0.0000308 0.0006490 0.0000621 0.0005363 -0.0001101 0.0004551 -0.0001088 0.0003577 -0.0000356 0.0002439 0.0000093 0.0001510
-0.0000423 -0.0001811 -0.0000537 -0.0001516 -0.0001240 -0.0003082 0.0010743 -0.0005658 -0.0000449 0.0006185 0.0000558 0.0004868 -0.0001204 0.0004826 -0.0000809 0.0004165 0.0000194 0.0004358 0.0001155 0.0004517
0.0000242 -0.0000210 -0.0000547 -0.0000930 -0.0001230 -0.0001966 0.0081427 -0.0199372 -0.0000639 0.0006744 0.0000429 0.0005006 -0.0001361 0.0005486 -0.0000786 0.0005279 0.0000540 0.0006332 0.0001818 0.0007530
0.0000983 0.0001782 -0.0000544 -0.0000126 -0.0001348 -0.0000790 0.0014745 -0.0095646 -0.0000889 0.0007492 0.0000274 0.0005452 -0.0001704 0.0006372 -0.0000879 0.0006327 0.0000680 0.0008066 0.0002066 0.0009895
0.0000516 0.0003688 -0.0000627 0.0001198 -0.0001598 0.0000464 0.0016729 -0.0081306 -0.0001054 0.0008388 0.0000129 0.0005911 -0.0001878 0.0006784 -0.0000942 0.0006370 0.0000767 0.0008453 0.0002251 0.0010220
-0.0000374 0.0003713 -0.0000660 0.0001283 -0.0001725 0.0000384 0.0020687 -0.0160713 -0.0000975 0.0008103 0.0000005 0.0004999 -0.0002130 0.0005591 -0.0000890 0.0005056 0.0001075 0.0007385 0.0002653 0.0009185
-0.0000899 0.0001938 -0.0000549 0.0000201 -0.0001501 -0.0000430 -0.0052835 0.0036161 -0.0000785 0.0007072 -0.0000103 0.0003387 -0.0002480 0.0003909 -0.0000805 0.0004018 0.0001320 0.0006792 0.0003032 0.0009454
-0.0001088 0.0000743 -0.0000472 -0.0000089 -0.0001150 0.0000019 0.0056823 0.0031957 -0.0000634 0.0007159 -0.0000177 0.0002883 -0.0002391 0.0003123 -0.0000727 0.0003914 0.0001291 0.0007069 0.0003219 0.0010081
-0.0001203 0.0000622 -0.0000512 0.0000302 -0.0001010 0.0000888 0.0069895 -0.0090921 -0.0000548 0.0007852 -0.0000209 0.0003150 -0.0002602 0.0002948 -0.0000742 0.0004094 0.0001112 0.0007435 0.0003068 0.0010380
-0.0001300 0.0001153 -0.0000554 0.0000877 -0.0001133 0.0001613 -0.0059604 -0.0069763 -0.0000594 0.0008449 -0.0000265 0.0003729 -0.0003001 0.0003537 -0.0000898 0.0004789 0.0000920 0.0008072 0.0002783 0.0011165
-0.0001338 0.0001902 -0.0000530 0.0001220 -0.0001258 0.0001709 -0.0016869 0.0082018 -0.0000557 0.0008078 -0.0000278 0.0003562 -0.0003041 0.0002946 -0.0000901 0.0004285 0.0000785 0.0006607 0.0002436 0.0008776
-0.0001155 0.0000344 -0.0000451 0.0000245 -0.0001324 -0.0000051 0.0027826 0.0013443 -0.0000356 0.0006344 -0.0000159 0.0002417 -0.0002654 0.0000882 -0.0000736 0.0002629 0.0000816 0.0004238 0.0002437 0.0005533
-0.0000617 -0.0001634 -0.0000312 -0.0000895 -0.0001278 -0.0001568 0.0090833 -0.0187502 -0.0000281 0.0005277 -0.0000069 0.0001840 -0.0002422 -0.0000014 -0.0000622 0.0002228 0.0000905 0.0004228 0.0002625 0.0005864
0.0000068 -0.0001670 -0.0000235 -0.0001031 -0.0000990 -0.0001161 0.0106565 -0.0180134 -0.0000268 0.0005917 -0.0000077 0.0002283 -0.0002364 0.0000467 -0.0000551 0.0003048 0.0000939 0.0005282 0.0002784 0.0007517
0.0001456 -0.0000532 -0.0000180 -0.0001538 -0.0000825 -0.0000084 0.0025307 -0.0016639 -0.0000294 0.0006935 -0.0000127 0.0002823 -0.0002238 0.0001334 -0.0000486 0.0004206 0.0001063 0.0006752 0.0003337 0.0009898
0.0003670 0.0002729 0.0000227 -0.0001844 -0.0000859 0.0001424 -0.0036604 -0.0005676 -0.0000511 0.0007559 -0.0000295 0.0002852 -0.0002452 0.0001799 -0.0000363 0.0004446 0.0001388 0.0007428 0.0003962 0.0011179
0.0005222 0.0004638 0.0001137 -0.0002273 -0.0000810 0.0001614 0.0233097 -0.0380800 -0.0000635 0.0006429 -0.0000413 0.0001584 -0.0002599 0.0000541 -0.0000078 0.0003111 0.0001843 0.0006471 0.0004425 0.0010512
0.0005998 0.0004264 0.0001968 -0.0003403 -0.0000498 0.0000425 0.0178103 -0.0209512 -0.0000531 0.0004859 -0.0000327 0.0000189 -0.0002404 -0.0001137 0.0000027 0.0002103 0.0001934 0.0005664 0.0004609 0.0009646
0.0006999 0.0004771 0.0002268 -0.0004101 -0.0000332 0.0000152 -0.0057052 0.0109139 -0.0000299 0.0004947 -0.0000139 0.0000322 -0.0002161 -0.0001332 -0.0000057 0.0002259 0.0001627 0.0005641 0.0004207 0.0009202
0.0008220 0.0006699 0.0002458 -0.0003880 -0.0000292 0.0000634 -0.0027576 0.0021809 -0.0000158 0.0005680 -0.0000003 0.0001236 -0.0002035 -0.0000920 -0.0000148 0.0002929 0.0001366 0.0006166 0.0003906 0.0009623
0.0008790 0.0009638 0.0002776 -0.0002271 -0.0000300 0.0001669 0.0117323 -0.0332551 -0.0000321 0.0006576 -0.0000088 0.0002005 -0.0001809 -0.0000309 -0.0000213 0.0003723 0.0001425 0.0007141 0.0004072 0.0010504
0.0007910 0.0008918 0.0002878 -0.0000510 -0.0000450 0.0002014 0.0064569 -0.0101638 -0.0000335 0.0006316 -0.0000119 0.0001505 -0.0001665 -0.0000793 -0.0000091 0.0002922 0.0001662 0.0006263 0.0004154 0.0009145
0.0006060 0.0004246 0.0002493 -0.0000610 -0.0000401 0.0000594 -0.0010907 0.0072654 -0.0000068 0.0004769 0.0000059 0.0000202 -0.0001523 -0.0002101 0.0000100 0.0001472 0.0001774 0.0004705 0.0004294 0.0007370
0.0004169 0.0001206 0.0001912 -0.0001097 -0.0000248 -0.0000153 -0.0054930 0.0082136 0.0000071 0.0004355 0.0000196 -0.0000023 -0.0001510 -0.0001854 0.0000208 0.0001456 0.0001776 0.0005010 0.0004461 0.0007883
0.0002714 0.0000729 0.0001469 -0.0000517 -0.0000201 0.0000476 0.0050260 0.0019074 0.0000092 0.0005164 0.0000232 0.0000594 -0.0001744 -0.0000770 0.0000207 0.0002331 0.0001709 0.0005965 0.0004414 0.0009108
0.0002092 0.0001194 0.0001155 0.0000297 -0.0000214 0.0001389 0.0135076 -0.0069735 0.0000005 0.0006013 0.0000182 0.0001325 -0.0001687 -0.0000010 0.0000145 0.0003581 0.0001581 0.0007121 0.0004267 0.0010871
0.0002178 0.0003272 0.0001171 0.0001771 -0.0000059 0.0002930 0.0086281 -0.0083032 -0.0000377 0.0004755 0.0000162 0.0001399 -0.0001355 -0.0000268 0.0000316 0.0003862 0.0001740 0.0007106 0.0004439 0.0010962
0.0003459 0.0008386 0.0001472 0.0002883 0.0001479 0.0006048 -0.0049076 -0.0072047 -0.0000941 -0.0000115 0.0000262 0.0000232 -0.0001078 -0.0001691 0.0000590 0.0002606 0.0002083 0.0005739 0.0004590 0.0008942
0.0004903 0.0012900 0.0001636 0.0003053 0.0003381 0.0009179 -0.0105347 0.0022321 -0.0001187 -0.0003721 0.0000466 -0.0000330 -0.0000832 -0.0002057 0.0000630 0.0002170 0.0002106 0.0005519 0.0004475 0.0008416
0.0005235 0.0014148 0.0001716 0.0003710 0.0004117 0.0011000 -0.0170200 0.0087532 -0.0000968 -0.0003077 0.0000652 0.0000409 -0.0000751 -0.0000997 0.0000601 0.0002944 0.0001951 0.0006419 0.0004437 0.0009455
0.0004911 0.0013357 0.0001738 0.0004453 0.0004090 0.0012059 -0.0067758 -0.0082673 -0.0000585 -0.0001129 0.0000800 0.0001546 -0.0000543 0.0000248 0.0000586 0.0003904 0.0001809 0.0007314 0.0004175 0.0010546
0.0004413 0.0011874 0.0001518 0.0004511 0.0003534 0.0011923 -0.0140887 0.0091954 -0.0000429 0.0000527 0.0000897 0.0002799 -0.0000268 0.0001625 0.0000490 0.0005167 0.0001629 0.0008293 0.0003795 0.0011508
0.0004054 0.0011075 0.0001299 0.0004186 0.0002940 0.0010967 -0.0084280 0.0108751 -0.0000381 0.0000751 0.0000974 0.0003027 -0.0000079 0.0001784 0.0000510 0.0004848 0.0001663 0.0007454 0.0003837 0.0010111
0.0003885 0.0009044 0.0001235 0.0002797 0.0002552 0.0008835 -0.0018345 0.0030627 -0.0000206 -0.0000644 0.0001146 0.0001996 0.0000209 0.0000801 0.0000692 0.0003229 0.0001843 0.0005478 0.0003964 0.0007889
0.0003737 0.0006710 0.0001194 0.0001381 0.0002421 0.0007111 -0.0008766 -0.0066754 0.0000035 -0.0000966 0.0001278 0.0001664 0.0000485 0.0000805 0.0000792 0.0003070 0.0001829 0.0005320 0.0003982 0.0007943
0.0003513 0.0006272 0.0001112 0.0001233 0.0002300 0.0007136 0.0074869 -0.0087260 0.0000192 0.0000375 0.0001252 0.0002212 0.0000277 0.0001772 0.0000744 0.0004072 0.0001722 0.0006370 0.0003838 0.0009366
0.0003439 0.0006715 0.0001013 0.0001720 0.0002080 0.0007818 0.0037948 0.0061469 0.0000100 0.0001707 0.0001144 0.0002880 -0.0000282 0.0002697 0.0000601 0.0005175 0.0001574 0.0007540 0.0003481 0.0011151
0.0003359 0.0008861 0.0000971 0.0002746 0.0002081 0.0009360 0.0011546 0.0136904 -0.0000186 0.0002544 0.0000965 0.0003700 -0.0000730 0.0003737 0.0000445 0.0006412 0.0001425 0.0008795 0.0003342 0.0012595
0.0003487 0.0012486 0.0000945 0.0004075 0.0002385 0.0011774 -0.0026311 0.0086646 -0.0000581 0.0002876 0.0000742 0.0004471 -0.0000988 0.0004674 0.0000321 0.0007807 0.0001293 0.0010159 0.0003032 0.0014297
0.0003950 0.0017290 0.0000716 0.0005288 0.0003312 0.0015895 -0.0112174 0.0037339 -0.0000694 0.0002848 0.0000520 0.0004802 -0.0000808 0.0006100 0.0000584 0.0008858 0.0001662 0.0011021 0.0002891 0.0015449
0.0004173 0.0020844 0.0000577 0.0005722 0.0004849 0.0020082 0.0016498 -0.0091538 0.0000083 0.0002131 0.0000448 0.0003813 -0.0000301 0.0006620 0.0001079 0.0008274 0.0002269 0.0010202 0.0003249 0.0014161
0.0003846 0.0020741 0.0000879 0.0005748 0.0006055 0.0021499 -0.0017345 0.0003713 0.0001152 0.0001606 0.0000352 0.0002040 0.0000244 0.0006829 0.0001703 0.0008617 0.0002903 0.0010765 0.0004074 0.0014346
0.0003223 0.0019118 0.0001314 0.0006228 0.0006628 0.0021701 -0.0151775 0.0179873 0.0001818 0.0002766 0.0000374 0.0001667 0.0000753 0.0008482 0.0001970 0.0009471 0.0003132 0.0011634 0.0004228 0.0014705
0.0002949 0.0018143 0.0001695 0.0007165 0.0006340 0.0020628 -0.0122437 0.0159343 0.0002115 0.0004616 0.0000452 0.0002504 0.0000848 0.0009046 0.0001823 0.0009874 0.0003070 0.0012076 0.0004205 0.0015056
0.0002187 0.0015069 0.0001896 0.0007356 0.0005462 0.0019808 -0.0021927 0.0129575 0.0001862 0.0007336 0.0000213 0.0003670 0.0000285 0.0008679 0.0001583 0.0011034 0.0002814 0.0012723 0.0004061 0.0016099
0.0000324 0.0009349 0.0001418 0.0005894 0.0003904 0.0018189 0.0016145 0.0123163 0.0001326 0.0010516 0.0000130 0.0005370 -0.0000394 0.0009092 0.0000952 0.0011298 0.0001732 0.0011590 0.0002699 0.0014037
-0.0000830 0.0006900 0.0000777 0.0004864 0.0002263 0.0015163 -0.0072112 0.0195143 0.0000758 0.0011704 0.0000122 0.0006596 -0.0000946 0.0009417 0.0000472 0.0010759 0.0001230 0.0010526 0.0002001 0.0012031
-0.0001105 0.0007120 0.0000656 0.0004253 0.0001700 0.0013340 -0.0123712 0.0204561 0.0000316 0.0009762 0.0000009 0.0005733 -0.0001146 0.0008154 0.0000472 0.0009439 0.0001463 0.0008906 0.0002219 0.0010259
-0.0001248 0.0005999 0.0000776 0.0003031 0.0001809 0.0011452 -0.0115572 0.0080163 0.0000316 0.0007396 -0.0000074 0.0004071 -0.0000969 0.0007148 0.0000645 0.0008596 0.0001617 0.0007921 0.0002427 0.0009330
-0.0001220 0.0004741 0.0000952 0.0002652 0.0001844 0.0010178 -0.0066303 -0.0108431 0.0000491 0.0007535 -0.0000154 0.0003771 -0.0000942 0.0007295 0.0000712 0.0008772 0.0001623 0.0008453 0.0002654 0.0010177
-0.0001364 0.0004594 0.0001038 0.0003169 0.0001549 0.0009429 0.0138237 -0.0464554 0.0000511 0.0008730 -0.0000195 0.0004316 -0.0001239 0.0007214 0.0000594 0.0009161 0.0001492 0.0009130 0.0002652 0.0011361
-0.0001575 0.0005477 0.0001056 0.0003945 0.0001296 0.0009424 0.0061329 -0.0359057 0.0000373 0.0009727 -0.0000305 0.0005013 -0.0001748 0.0007420 0.0000373 0.0009851 0.0001382 0.0010033 0.0002433 0.0012990
-0.0001726 0.0006992 0.0001044 0.0004841 0.0001048 0.0010305 -0.0048188 0.0068985 0.0000127 0.0010667 -0.0000477 0.0005736 -0.0001973 0.0008020 0.0000162 0.0010757 0.0001224 0.0011002 0.0002241 0.0014543
-0.0001814 0.0008624 0.0000963 0.0005873 0.0000904 0.0011491 -0.0055536 0.0077491 -0.0000074 0.0011383 -0.0000610 0.0006232 -0.0002017 0.0008378 0.0000139 0.0010774 0.0001234 0.0010902 0.0002243 0.0014380
-0.0001737 0.0008861 0.0001000 0.0005806 0.0000980 0.0011341 0.0124793 -0.0207141 -0.0000105 0.0010188 -0.0000609 0.0005506 -0.0001891 0.0007513 0.0000279 0.0009444 0.0001420 0.0009467 0.0002477 0.0012321
-0.0001512 0.0007793 0.0001160 0.0004789 0.0001320 0.0010116 0.0062728 0.0012408 -0.0000023 0.0008117 -0.0000503 0.0004447 -0.0001509 0.0006285 0.0000340 0.0008637 0.0001498 0.0008779 0.0002526 0.0011446
-0.0001320 0.0007704 0.0001250 0.0004642 0.0001700 0.0009933 -0.0034404 0.0075120 0.0000029 0.0007534 -0.0000477 0.0004292 -0.0001509 0.0006047 0.0000378 0.0008832 0.0001483 0.0009210 0.0002402 0.0012176
-0.0001148 0.0008570 0.0001229 0.0005231 0.0001819 0.0010554 0.0046807 -0.0031807 -0.0000043 0.0007860 -0.0000532 0.0004616 -0.0001721 0.0006148 0.0000346 0.0009257 0.0001394 0.0009863 0.0002308 0.0012954
-0.0001246 0.0009879 0.0001146 0.0005954 0.0001741 0.0011497 -0.0005626 0.0078051 -0.0000174 0.0008535 -0.0000591 0.0005262 -0.0002054 0.0006785 0.0000146 0.0009933 0.0001270 0.0010697 0.0002152 0.0014053
-0.0001568 0.0011280 0.0001057 0.0006702 0.0001542 0.0012549 -0.0058592 0.0021499 -0.0000299 0.0009510 -0.0000656 0.0006002 -0.0002474 0.0007845 -0.0000068 0.0010739 0.0001135 0.0011579 0.0001871 0.0015220
-0.0001642 0.0011784 0.0001016 0.0006889 0.0001345 0.0012503 0.0041376 0.0041834 -0.0000296 0.0009460 -0.0000695 0.0005773 -0.0002308 0.0007143 -0.0000016 0.0009984 0.0001209 0.0010621 0.0001905 0.0013764
-0.0001623 0.0010167 0.0001063 0.0005798 0.0001252 0.0010435 0.0086301 0.0049870 -0.0000077 0.0007873 -0.0000615 0.0004394 -0.0001947 0.0005026 0.0000134 0.0008100 0.0001376 0.0008504 0.0002031 0.0011213
-0.0001574 0.0008040 0.0001135 0.0004703 0.0001167 0.0008627 0.0081181 -0.0019863 0.0000136 0.0006899 -0.0000497 0.0003633 -0.0001901 0.0004173 0.0000187 0.0007474 0.0001393 0.0008056 0.0002024 0.0010717
-0.0001515 0.0007487 0.0001177 0.0004565 0.0001138 0.0008324 0.0107221 -0.0122228 0.0000250 0.0007149 -0.0000449 0.0003779 -0.0001943 0.0004298 0.0000183 0.0007775 0.0001356 0.0008621 0.0002116 0.0011224
-0.0001473 0.0007885 0.0001154 0.0004900 0.0001053 0.0008536 0.0222866 -0.0442742 0.0000243 0.0007848 -0.0000463 0.0004185 -0.0002036 0.0004802 0.0000072 0.0008404 0.0001250 0.0009405 0.0002057 0.0012251
-0.0001617 0.0008922 0.0001093 0.0005549 0.0000953 0.0009189 0.0165809 -0.0329613 0.0000119 0.0008763 -0.0000525 0.0004828 -0.0001981 0.0005396 -0.0000008 0.0009197 0.0001100 0.0010359 0.0001867 0.0013537
-0.0001656 0.0010087 0.0001035 0.0006405 0.0000900 0.0010345 0.0131704 -0.0329170 -0.0000001 0.0009626 -0.0000617 0.0005588 -0.0002099 0.0006213 -0.0000138 0.0010065 0.0000973 0.0011290 0.0001573 0.0014606
-0.0001612 0.0010949 0.0001059 0.0006713 0.0000894 0.0010787 -0.0030919 -0.0083080 0.0000000 0.0009165 -0.0000628 0.0005228 -0.0002132 0.0005755 -0.0000133 0.0009323 0.0001059 0.0010285 0.0001603 0.0012991
-0.0001569 0.0009633 0.0001173 0.0005588 0.0000978 0.0009485 -0.0104672 0.0059723 0.0000176 0.0007143 -0.0000497 0.0003601 -0.0001806 0.0003405 0.0000068 0.0007372 0.0001238 0.0008191 0.0001851 0.0010161
-0.0001349 0.0007468 0.0001257 0.0004383 0.0001273 0.0008491 0.0033730 -0.0110967 0.0000310 0.0005922 -0.0000345 0.0002708 -0.0001820 0.0002335 0.0000129 0.0006784 0.0001263 0.0007826 0.0001967 0.0009583
-0.0000965 0.0007065 0.0001301 0.0004156 0.0001659 0.0009093 -0.0001360 0.0057001 0.0000329 0.0005948 -0.0000287 0.0002787 -0.0001871 0.0002471 0.0000067 0.0007217 0.0001186 0.0008491 0.0002088 0.0010247
-0.0000675 0.0007718 0.0001309 0.0004473 0.0001862 0.0010124 -0.0052981 0.0171061 0.0000309 0.0006430 -0.0000310 0.0003233 -0.0001907 0.0002790 -0.0000087 0.0007957 0.0001043 0.0009264 0.0002078 0.0011215
-0.0000684 0.0008698 0.0001244 0.0005121 0.0001895 0.0011261 0.0002349 0.0068601 0.0000234 0.0007188 -0.0000331 0.0003954 -0.0001938 0.0003363 -0.0000209 0.0008791 0.0000848 0.0010058 0.0001868 0.0012331
-0.0000700 0.0009710 0.0001151 0.0005786 0.0001796 0.0012618 0.0070267 -0.0121094 0.0000141 0.0008119 -0.0000355 0.0004802 -0.0002258 0.0004459 -0.0000298 0.0009743 0.0000632 0.0010951 0.0001567 0.0013441
-0.0000819 0.0010718 0.0001104 0.0006286 0.0001679 0.0013281 -0.0088853 0.0056473 0.0000083 0.0008342 -0.0000357 0.0004903 -0.0002533 0.0004689 -0.0000301 0.0009391 0.0000640 0.0010337 0.0001373 0.0012445
-0.0000472 0.0011136 0.0001213 0.0005584 0.0002202 0.0013093 -0.0128984 0.0172833 -0.0000023 0.0005716 -0.0000260 0.0003558 -0.0002102 0.0002854 -0.0000138 0.0007556 0.0000858 0.0008167 0.0001346 0.0009045
0.0000620 0.0011152 0.0001356 0.0004161 0.0003538 0.0013541 -0.0113273 0.0139336 0.0000340 0.0003034 0.0000117 0.0002826 -0.0001106 0.0001629 -0.0000161 0.0006252 0.0000586 0.0006144 0.0000611 0.0004967
0.0001084 0.0010604 0.0001426 0.0003632 0.0004691 0.0014622 0.0013036 0.0004821 0.0000996 0.0003400 0.0000498 0.0003362 -0.0000629 0.0002212 -0.0000194 0.0006366 0.0000400 0.0006240 0.0000349 0.0004235
0.0000781 0.0010772 0.0001545 0.0004086 0.0005321 0.0015924 0.0133223 -0.0122838 0.0000985 0.0003182 0.0000313 0.0002829 -0.0000056 0.0005546 0.0001799 0.0011999 0.0001737 0.0010720 0.0002806 0.0011967
0.0000491 0.0017624 0.0001619 0.0006277 0.0011349 0.0030397 0.0061696 -0.0072415 0.0003553 0.0009512 -0.0001183 -0.0001520 0.0001150 0.0012409 0.0005129 0.0021325 0.0003942 0.0017317 0.0005345 0.0019965
-0.0001009 0.0024361 0.0002225 0.0008731 0.0018636 0.0043959 0.0042844 -0.0156107 0.0008453 0.0023341 -0.0001102 -0.0000294 0.0001246 0.0014099 0.0004281 0.0020133 0.0003861 0.0017649 0.0004615 0.0018252
-0.0002251 0.0019144 0.0003242 0.0008027 0.0016754 0.0034376 0.0062273 -0.0044194 0.0008534 0.0026279 0.0000613 0.0006180 0.0000301 0.0010266 0.0001096 0.0012961 0.0002142 0.0013510 0.0002395 0.0011880
-0.0003161 0.0008866 0.0003438 0.0005032 0.0010124 0.0017422 -0.0053838 0.0158187 0.0005802 0.0020641 0.0001062 0.0006807 -0.0000511 0.0007352 0.0000068 0.0009655 0.0001318 0.0010210 0.0001264 0.0006105
-0.0003998 0.0002531 0.0002985 0.0001924 0.0006419 0.0007908 -0.0196365 0.0152666 0.0005060 0.0017342 0.0001127 0.0004828 -0.0000565 0.0004947 -0.0000162 0.0007476 0.0001061 0.0007904 0.0001139 0.0002712
-0.0003804 0.0000047 0.0002704 0.0000091 0.0005244 0.0004213 0.0036623 -0.0066533 0.0004564 0.0015936 0.0000997 0.0003556 -0.0000668 0.0003821 -0.0000105 0.0007539 0.0001255 0.0008300 0.0001695 0.0003865
-0.0004127 -0.0000074 0.0002481 -0.0000393 0.0005081 0.0004288 0.0073319 0.0019169 0.0004346 0.0015963 0.0001037 0.0003794 -0.0000266 0.0004186 -0.0000075 0.0008072 0.0000853 0.0007787 0.0001135 0.0003624
-0.0006500 -0.0001769 0.0001648 -0.0000966 0.0005144 0.0005278 0.0072738 -0.0047482 0.0004218 0.0015932 0.0001172 0.0004684 0.0000362 0.0005759 0.0000136 0.0009175 0.0000807 0.0008580 0.0001162 0.0004987
-0.0007951 -0.0001519 0.0001059 -0.0000561 0.0005356 0.0006600 0.0075664 -0.0026220 0.0003788 0.0016248 0.0001090 0.0005336 0.0000414 0.0006759 0.0000321 0.0010605 0.0001226 0.0010820 0.0001816 0.0008456
-0.0007131 0.0001375 0.0001085 0.0000565 0.0005343 0.0007719 0.0019327 0.0104512 0.0003506 0.0017169 0.0000990 0.0006046 0.0000196 0.0006897 0.0000179 0.0010953 0.0001191 0.0011044 0.0001400 0.0008721
-0.0006991 0.0001391 0.0001067 0.0000325 0.0005144 0.0006967 0.0003921 -0.0008875 0.0003403 0.0016177 0.0000935 0.0005247 -0.0000150 0.0006017 0.0000195 0.0009782 0.0001420 0.0009788 0.0001498 0.0007010
-0.0006765 -0.0000066 0.0001199 -0.0000903 0.0005189 0.0004913 0.0067327 -0.0152909 0.0003432 0.0013443 0.0001037 0.0003424 -0.0000034 0.0004648 0.0000354 0.0008246 0.0001603 0.0008480 0.0001730 0.0005476
-0.0006350 -0.0000926 0.0001314 -0.0001504 0.0005448 0.0004009 0.0133334 -0.0169436 0.0003507 0.0012224 0.0001183 0.0002839 0.0000090 0.0004561 0.0000412 0.0007914 0.0001639 0.0008557 0.0001763 0.0005601
-0.0006170 -0.0000883 0.0001316 -0.0001277 0.0005575 0.0004172 0.0037244 -0.0101063 0.0003496 0.0012420 0.0001204 0.0003179 0.0000128 0.0004629 0.0000350 0.0008269 0.0001600 0.0009134 0.0001923 0.0006221
-0.0006361 -0.0000194 0.0001285 -0.0000723 0.0005462 0.0004605 -0.0162063 0.0049752 0.0003319 0.0012910 0.0001101 0.0003730 0.0000029 0.0004762 0.0000276 0.0008974 0.0001520 0.0009979 0.0001827 0.0007559
-0.0006536 0.0001048 0.0001238 0.0000009 0.0005429 0.0005449 -0.0075016 0.0114573 0.0003143 0.0013545 0.0001022 0.0004419 -0.0000354 0.0005522 0.0000181 0.0009832 0.0001379 0.0010854 0.0001617 0.0008805
-0.0006476 0.0002260 0.0001170 0.0000751 0.0005353 0.0006295 -0.0071719 0.0210134 0.0003041 0.0013625 0.0000965 0.0004606 -0.0000542 0.0005434 0.0000159 0.0009759 0.0001413 0.0010494 0.0001666 0.0008290
-0.0006355 0.0001788 0.0001149 0.0000251 0.0005368 0.0005641 -0.0065433 0.0206965 0.0003064 0.0012109 0.0000977 0.0003609 -0.0000470 0.0004254 0.0000293 0.0008450 0.0001615 0.0008929 0.0001707 0.0006505
-0.0006321 0.0000295 0.0001196 -0.0000960 0.0005537 0.0003902 -0.0064772 0.0115047 0.0003184 0.0010631 0.0001078 0.0002744 -0.0000181 0.0003695 0.0000393 0.0007759 0.0001684 0.0008291 0.0001690 0.0005930
-0.0006207 -0.0000031 0.0001211 -0.0001159 0.0005565 0.0003122 -0.0089678 0.0063931 0.0003251 0.0010483 0.0001097 0.0002819 -0.0000195 0.0003777 0.0000434 0.0007869 0.0001626 0.0008640 0.0001768 0.0006320
-0.0006124 0.0000586 0.0001155 -0.0000726 0.0005529 0.0003294 0.0024693 0.0031360 0.0003252 0.0010750 0.0001063 0.0003208 -0.0000349 0.0003931 0.0000334 0.0008299 0.0001494 0.0009182 0.0001866 0.0006930
-0.0006215 0.0001485 0.0001055 -0.0000110 0.0005348 0.0003884 0.0146510 -0.0061773 0.0003177 0.0011390 0.0001004 0.0003807 -0.0000490 0.0004629 0.0000174 0.0009113 0.0001400 0.0009960 0.0001719 0.0008218
-0.0006347 0.0002643 0.0000963 0.0000601 0.0005126 0.0004661 0.0049056 0.0040632 0.0003046 0.0011968 0.0000883 0.0004192 -0.0000753 0.0004983 0.0000185 0.0009055 0.0001459 0.0009750 0.0001633 0.0008111
-0.0006418 0.0002572 0.0000970 0.0000262 0.0005141 0.0004024 -0.0051463 0.0085697 0.0003072 0.0010552 0.0000886 0.0003238 -0.0000750 0.0003900 0.0000289 0.0007545 0.0001602 0.0007886 0.0001781 0.0005684
-0.0006346 0.0000912 0.0001078 -0.0001190 0.0005540 0.0002077 -0.0077280 0.0078695 0.0003257 0.0007938 0.0001055 0.0001888 -0.0000377 0.0002413 0.0000411 0.0006218 0.0001675 0.0006542 0.0001906 0.0004093
-0.0006041 0.0000243 0.0001135 -0.0001821 0.0006034 0.0001795 0.0010119 -0.0067296 0.0003384 0.0006689 0.0001169 0.0001682 -0.0000073 0.0001885 0.0000482 0.0005938 0.0001659 0.0006564 0.0001876 0.0004271
-0.0005555 0.0001484 0.0001151 -0.0001257 0.0006354 0.0003166 0.0082140 -0.0113421 0.0003337 0.0006436 0.0001200 0.0002062 -0.0000155 0.0002117 0.0000468 0.0006203 0.0001573 0.0007029 0.0001777 0.0004947
-0.0005126 0.0003711 0.0001226 -0.0000148 0.0006738 0.0004916 0.0058401 -0.0106091 0.0003182 0.0006570 0.0001191 0.0002682 -0.0000280 0.0002646 0.0000390 0.0006786 0.0001457 0.0007739 0.0001606 0.0006005
-0.0004895 0.0006033 0.0001279 0.0000985 0.0007085 0.0006756 0.0047181 -0.0043003 0.0003038 0.0006851 0.0001127 0.0003432 -0.0000481 0.0003467 0.0000237 0.0007680 0.0001325 0.0008604 0.0001407 0.0007270
-0.0004799 0.0007823 0.0001268 0.0001704 0.0007319 0.0008249 -0.0044159 0.0081078 0.0002979 0.0006384 0.0001089 0.0003401 -0.0000259 0.0003019 0.0000243 0.0007158 0.0001355 0.0007844 0.0001326 0.0006150
-0.0004656 0.0007525 0.0001316 0.0000885 0.0007701 0.0007669 -0.0144804 -0.0000877 0.0003085 0.0003956 0.0001194 0.0002000 -0.0000083 0.0001147 0.0000475 0.0004832 0.0001561 0.0005411 0.0001449 0.0002955
-0.0004213 0.0006259 0.0001441 -0.0000742 0.0008303 0.0006201 -0.0027350 -0.0104220 0.0003272 0.0001470 0.0001398 0.0000881 0.0000194 -0.0000097 0.0000679 0.0003490 0.0001621 0.0004437 0.0001485 0.0001754
-0.0003644 0.0006508 0.0001517 -0.0001157 0.0008854 0.0006467 0.0058093 -0.0169301 0.0003362 0.0000789 0.0001516 0.0000892 0.0000655 -0.0000445 0.0000703 0.0003644 0.0001549 0.0005037 0.0001344 0.0002410
-0.0003183 0.0008032 0.0001537 -0.0000682 0.0009210 0.0007682 -0.0005435 -0.0057171 0.0003336 0.0000892 0.0001521 0.0001316 0.0000538 -0.0000051 0.0000619 0.0004195 0.0001467 0.0005896 0.0001229 0.0003492
-0.0003136 0.0009514 0.0001613 0.0000346 0.0009413 0.0009323 -0.0016670 -0.0009909 0.0003458 0.0002018 0.0001481 0.0002002 0.0000245 0.0000728 0.0000467 0.0004950 0.0001351 0.0006750 0.0001217 0.0004658
-0.0003632 0.0009355 0.0001662 0.0001360 0.0009215 0.0010438 -0.0025044 -0.0012765 0.0003661 0.0004061 0.0001434 0.0002782 0.0000008 0.0001392 0.0000343 0.0005780 0.0001178 0.0007593 0.0000916 0.0006114
-0.0004158 0.0008546 0.0001538 0.0001950 0.0008771 0.0011092 -0.0052911 0.0015474 0.0003708 0.0005904 0.0001364 0.0003616 -0.0000152 0.0002345 0.0000316 0.0006556 0.0001024 0.0008467 0.0000589 0.0007254
-0.0004410 0.0008381 0.0001440 0.0001887 0.0008519 0.0011241 -0.0056235 0.0056026 0.0003751 0.0005748 0.0001301 0.0003292 -0.0000092 0.0001742 0.0000359 0.0005636 0.0001105 0.0007378 0.0000695 0.0005579
-0.0004419 0.0007135 0.0001471 0.0000479 0.0008470 0.0009645 0.0036099 -0.0070217 0.0003906 0.0003423 0.0001368 0.0001537 0.0000246 -0.0000692 0.0000505 0.0003431 0.0001273 0.0005128 0.0000796 0.0002856
-0.0004374 0.0005594 0.0001525 -0.0000744 0.0008598 0.0008184 0.0101838 -0.0088403 0.0004007 0.0002130 0.0001462 0.0000609 0.0000611 -0.0001912 0.0000617 0.0002708 0.0001313 0.0004833 0.0000889 0.0002428
-0.0004212 0.0005553 0.0001576 -0.0000634 0.0008666 0.0008279 -0.0028605 0.0155346 0.0003960 0.0002608 0.0001445 0.0000792 0.0000669 -0.0001698 0.0000624 0.0003170 0.0001279 0.0005749 0.0000875 0.0003532
-0.0004072 0.0006461 0.0001594 0.0000047 0.0008577 0.0009193 -0.0097251 0.0191072 0.0003868 0.0003336 0.0001363 0.0001241 0.0000537 -0.0001230 0.0000538 0.0003831 0.0001179 0.0006662 0.0000780 0.0004888
-0.0004096 0.0008059 0.0001576 0.0000918 0.0008663 0.0010705 0.0063665 -0.0021598 0.0003710 0.0003926 0.0001263 0.0001918 0.0000337 -0.0000545 0.0000430 0.0004702 0.0001074 0.0007677 0.0000665 0.0006231
-0.0004052 0.0010159 0.0001554 0.0001937 0.0008896 0.0012640 0.0006264 -0.0045053 0.0003521 0.0004637 0.0001142 0.0002701 -0.0000040 0.0000530 0.0000304 0.0005729 0.0000932 0.0008783 0.0000350 0.0007722
-0.0003893 0.0012129 0.0001508 0.0003005 0.0008902 0.0014383 -0.0253637 0.0171700 0.0003300 0.0005538 0.0001033 0.0003560 -0.0000228 0.0001696 0.0000139 0.0006818 0.0000725 0.0009782 -0.0000004 0.0009129
-0.0003832 0.0014526 0.0001430 0.0004071 0.0008896 0.0015670 -0.0100677 -0.0018236 0.0003066 0.0006138 0.0000945 0.0004097 -0.0000378 0.0002241 0.0000050 0.0006860 0.0000672 0.0009556 -0.0000254 0.0008711
-0.0003953 0.0014797 0.0001401 0.0003703 0.0008872 0.0015051 0.0019596 -0.0176635 0.0003117 0.0005100 0.0000965 0.0003162 -0.0000508 0.0000956 0.0000157 0.0005245 0.0000797 0.0007645 -0.0000305 0.0005958
-0.0004074 0.0012188 0.0001488 0.0001908 0.0008734 0.0012756 0.0100037 -0.0180522 0.0003333 0.0003363 0.0001091 0.0001726 -0.0000447 -0.0000627 0.0000283 0.0003953 0.0000870 0.0006442 -0.0000216 0.0004068
-0.0004059 0.0010881 0.0001559 0.0001218 0.0008721 0.0011936 0.0057397 -0.0165021 0.0003407 0.0003062 0.0001157 0.0001545 -0.0000173 -0.0001028 0.0000327 0.0003924 0.0000841 0.0006714 -0.0000097 0.0004249
-0.0003985 0.0010817 0.0001481 0.0001590 0.0008737 0.0012468 -0.0065749 -0.0014506 0.0003452 0.0004049 0.0001157 0.0002109 -0.0000025 -0.0000607 0.0000222 0.0004594 0.0000792 0.0007554 -0.0000032 0.0005285
-0.0004522 0.0009302 0.0001213 0.0001646 0.0008491 0.0013532 -0.0028903 -0.0029679 0.0003564 0.0006119 0.0001035 0.0002657 -0.0000302 0.0000115 -0.0000117 0.0005259 0.0000669 0.0008315 -0.0000078 0.0005538
-0.0005487 0.0006152 0.0000850 0.0001361 0.0007416 0.0012826 -0.0093632 0.0008486 0.0003656 0.0008587 0.0001046 0.0003684 -0.0000197 0.0001426 -0.0000712 0.0004830 0.0000168 0.0007596 -0.0001318 0.0002964
-0.0005731 0.0004663 0.0000444 0.0000761 0.0005927 0.0009781 0.0092557 -0.0193863 0.0003456 0.0009474 0.0001527 0.0006041 0.0000669 0.0004187 -0.0001550 0.0003725 -0.0000717 0.0006179 -0.0003251 -0.0000461
-0.0005106 0.0006422 0.0000283 0.0001363 0.0005224 0.0009127 0.0029292 -0.0033499 0.0002897 0.0009667 0.0001835 0.0007994 0.0001429 0.0006897 -0.0001878 0.0003909 -0.0000635 0.0007227 -0.0002969 0.0001487
-0.0004915 0.0008433 0.0000581 0.0002977 0.0004943 0.0009417 -0.0011004 0.0017991 0.0002533 0.0009448 0.0001698 0.0007395 0.0001411 0.0007245 -0.0001484 0.0003956 0.0000403 0.0007981 -0.0001343 0.0004328
-0.0005078 0.0007249 0.0000945 0.0002857 0.0004637 0.0007703 0.0045763 0.0011629 0.0002738 0.0007974 0.0001769 0.0005674 0.0001550 0.0006038 -0.0001062 0.0002632 0.0000914 0.0006298 -0.0000549 0.0003167
-0.0004937 0.0005205 0.0001214 0.0002285 0.0004658 0.0006206 0.0017408 0.0003425 0.0002888 0.0007177 0.0001945 0.0005156 0.0002221 0.0005773 -0.0000854 0.0001940 0.0000970 0.0005636 -0.0000338 0.0002497
-0.0004653 0.0004555 0.0001449 0.0002632 0.0004691 0.0005803 0.0145240 -0.0371999 0.0002908 0.0007529 0.0002057 0.0005793 0.0002478 0.0006602 -0.0000855 0.0002518 0.0000953 0.0006283 -0.0000223 0.0003087
-0.0004235 0.0005062 0.0001600 0.0003349 0.0004584 0.0006098 0.0187253 -0.0405161 0.0002795 0.0008052 0.0002101 0.0006563 0.0002442 0.0007564 -0.0000928 0.0003684 0.0000992 0.0007327 -0.0000042 0.0004597
-0.0003792 0.0007522 0.0001872 0.0004885 0.0004938 0.0007844 0.0056784 -0.0103288 0.0002435 0.0008125 0.0002119 0.0007601 0.0002403 0.0008714 -0.0000959 0.0004704 0.0000823 0.0007952 -0.0000328 0.0005436
-0.0002990 0.0010464 0.0002191 0.0006669 0.0005607 0.0010712 -0.0023527 0.0051698 0.0002124 0.0007943 0.0002166 0.0008880 0.0002458 0.0010174 -0.0000826 0.0005983 0.0000699 0.0008771 -0.0000601 0.0006738
-0.0002143 0.0013625 0.0002402 0.0008072 0.0006220 0.0013594 -0.0017144 -0.0011605 0.0001914 0.0007604 0.0002105 0.0009215 0.0002029 0.0010981 -0.0000511 0.0006674 0.0001104 0.0009161 0.0000134 0.0008232
-0.0001828 0.0014728 0.0002761 0.0008544 0.0007056 0.0014732 0.0061425 -0.0066378 0.0001901 0.0006168 0.0001937 0.0007640 0.0001720 0.0010090 -0.0000073 0.0005950 0.0001656 0.0008111 0.0001031 0.0007496
-0.0001770 0.0011840 0.0002997 0.0007289 0.0007577 0.0013620 0.0019079 0.0022320 0.0002220 0.0005085 0.0001942 0.0006087 0.0002052 0.0008983 0.0000228 0.0004968 0.0001901 0.0007222 0.0001446 0.0006627
-0.0002142 0.0008819 0.0002921 0.0005954 0.0007011 0.0011254 -0.0084740 0.0062633 0.0002615 0.0005989 0.0002001 0.0005804 0.0002132 0.0008575 0.0000208 0.0004727 0.0001846 0.0007141 0.0001475 0.0006807
-0.0002635 0.0007734 0.0002823 0.0005890 0.0005946 0.0008733 0.0008310 -0.0117285 0.0002591 0.0007163 0.0001811 0.0005787 0.0001770 0.0008355 0.0000124 0.0005120 0.0001858 0.0007919 0.0001587 0.0007934
-0.0002647 0.0008133 0.0002812 0.0006530 0.0005389 0.0007704 0.0003060 -0.0099923 0.0002350 0.0008061 0.0001652 0.0006293 0.0001492 0.0008246 -0.0000115 0.0005435 0.0001536 0.0008150 0.0001129 0.0007870
-0.0002892 0.0008233 0.0002636 0.0006777 0.0004779 0.0007096 -0.0036849 -0.0030610 0.0002177 0.0009115 0.0001539 0.0007121 0.0001355 0.0008201 -0.0000412 0.0005973 0.0001058 0.0008140 0.0000213 0.0007376
-0.0003361 0.0007628 0.0002287 0.0006552 0.0004042 0.0006435 -0.0164387 0.0152216 0.0002046 0.0010266 0.0001443 0.0008001 0.0000832 0.0008854 -0.0000454 0.0006558 0.0001145 0.0008865 0.0000455 0.0008453
-0.0003228 0.0007714 0.0002229 0.0006195 0.0003867 0.0005563 -0.0111707 0.0093066 0.0001925 0.0009620 0.0001356 0.0007245 0.0000483 0.0008212 -0.0000344 0.0005638 0.0001497 0.0007946 0.0000985 0.0007884
-0.0002927 0.0006584 0.0002391 0.0005093 0.0003857 0.0003556 -0.0047634 -0.0060129 0.0001907 0.0007268 0.0001404 0.0005412 0.0000932 0.0006473 -0.0000151 0.0004001 0.0001664 0.0006168 0.0001186 0.0005914
-0.0002941 0.0004923 0.0002409 0.0004313 0.0003874 0.0002134 -0.0179887 0.0058542 0.0002026 0.0006415 0.0001581 0.0005030 0.0001402 0.0006219 0.0000007 0.0003579 0.0001728 0.0005896 0.0001475 0.0005629
-0.0002823 0.0005390 0.0002452 0.0004882 0.0004168 0.0002708 0.0032372 -0.0159408 0.0002003 0.0006671 0.0001578 0.0005371 0.0001409 0.0006963 0.0000041 0.0004122 0.0001852 0.0006754 0.0001775 0.0006731
-0.0002784 0.0006905 0.0002509 0.0005880 0.0004553 0.0004236 0.0158625 -0.0311748 0.0001885 0.0007242 0.0001515 0.0005923 0.0001588 0.0007628 0.0000008 0.0004837 0.0001819 0.0007745 0.0001911 0.0008153
-0.0002776 0.0008091 0.0002483 0.0006719 0.0004668 0.0005385 0.0016062 -0.0000574 0.0001762 0.0008417 0.0001439 0.0006557 0.0001648 0.0008302 -0.0000076 0.0005746 0.0001759 0.0008867 0.0001933 0.0010019
-0.0002833 0.0009317 0.0002475 0.0007696 0.0004528 0.0006263 0.0059134 0.0006115 0.0001561 0.0009581 0.0001278 0.0006974 0.0001325 0.0009200 -0.0000083 0.0006506 0.0001857 0.0009763 0.0002000 0.0011030
-0.0002927 0.0009608 0.0002479 0.0007845 0.0004395 0.0006339 0.0159823 -0.0196319 0.0001494 0.0009149 0.0001181 0.0006310 0.0001401 0.0008753 -0.0000001 0.0005565 0.0001976 0.0008554 0.0002169 0.0009433
-0.0002989 0.0007996 0.0002533 0.0006676 0.0004461 0.0004821 0.0050985 -0.0047728 0.0001674 0.0007279 0.0001275 0.0004895 0.0001745 0.0007435 0.0000102 0.0003688 0.0002011 0.0006710 0.0002450 0.0007433
-0.0002962 0.0006373 0.0002531 0.0005840 0.0004639 0.0003604 -0.0005318 0.0103775 0.0001891 0.0006674 0.0001389 0.0004464 0.0001784 0.0007069 0.0000082 0.0003026 0.0001949 0.0006382 0.0002432 0.0007084
-0.0002734 0.0006006 0.0002470 0.0006003 0.0004669 0.0003991 0.0008980 0.0032595 0.0001908 0.0007131 0.0001372 0.0004812 0.0001613 0.0007037 -0.0000028 0.0003328 0.0001837 0.0006866 0.0002224 0.0007625
-0.0002536 0.0006765 0.0002405 0.0006616 0.0004651 0.0005167 -0.0036203 0.0066713 0.0001865 0.0007808 0.0001346 0.0005395 0.0001284 0.0007063 -0.0000133 0.0003985 0.0001631 0.0007591 0.0002005 0.0008546
-0.0002324 0.0008004 0.0002293 0.0007366 0.0004793 0.0006535 0.0019764 0.0093800 0.0001808 0.0008771 0.0001304 0.0006121 0.0001026 0.0007193 -0.0000302 0.0004819 0.0001451 0.0008459 0.0001770 0.0009665
-0.0002320 0.0009136 0.0002164 0.0008092 0.0004693 0.0007605 0.0083765 -0.0057583 0.0001713 0.0009821 0.0001205 0.0006865 0.0000799 0.0007483 -0.0000391 0.0005040 0.0001441 0.0008686 0.0001691 0.0009681
-0.0002546 0.0008892 0.0002105 0.0007727 0.0004412 0.0007110 -0.0016104 0.0040479 0.0001728 0.0009300 0.0001173 0.0006304 0.0000676 0.0006494 -0.0000330 0.0003893 0.0001524 0.0007371 0.0001726 0.0007992
-0.0002471 0.0006926 0.0002156 0.0006396 0.0004431 0.0005418 -0.0179412 0.0186640 0.0001897 0.0007583 0.0001249 0.0004915 0.0000863 0.0004960 -0.0000219 0.0002821 0.0001602 0.0006334 0.0001968 0.0006926
-0.0002345 0.0005946 0.0002202 0.0005847 0.0004527 0.0004770 -0.0017663 0.0004579 0.0002011 0.0007220 0.0001297 0.0004509 0.0000829 0.0004884 -0.0000118 0.0002758 0.0001654 0.0006735 0.0002276 0.0007288
-0.0002345 0.0006569 0.0002178 0.0006237 0.0004519 0.0005343 0.0059670 0.0002096 0.0001970 0.0007815 0.0001271 0.0004715 0.0000852 0.0004879 -0.0000164 0.0003037 0.0001630 0.0007471 0.0002297 0.0008169
-0.0002267 0.0007316 0.0002123 0.0006840 0.0004408 0.0006147 -0.0043299 0.0127863 0.0001890 0.0008655 0.0001202 0.0005166 0.0000906 0.0005117 -0.0000279 0.0003473 0.0001536 0.0008219 0.0002082 0.0009337
-0.0002238 0.0008096 0.0002025 0.0007509 0.0004223 0.0007064 -0.0155790 0.0237438 0.0001792 0.0009634 0.0001139 0.0005845 0.0000679 0.0005626 -0.0000441 0.0004018 0.0001397 0.0008863 0.0001967 0.0010068
-0.0002344 0.0008465 0.0001998 0.0007570 0.0004057 0.0007316 -0.0145129 0.0125678 0.0001752 0.0009406 0.0001129 0.0005583 0.0000787 0.0004723 -0.0000521 0.0003282 0.0001394 0.0007889 0.0001941 0.0008800
-0.0002372 0.0007216 0.0002049 0.0006516 0.0004043 0.0006131 -0.0019946 -0.0121422 0.0001862 0.0007901 0.0001234 0.0004298 0.0000984 0.0003058 -0.0000391 0.0001758 0.0001506 0.0006332 0.0002093 0.0006948
-0.0002200 0.0006093 0.0002124 0.0005894 0.0004306 0.0005654 -0.0146938 0.0181615 0.0001916 0.0007237 0.0001363 0.0003696 0.0000988 0.0002512 -0.0000281 0.0001394 0.0001560 0.0006369 0.0002271 0.0006989
-0.0002014 0.0006508 0.0002196 0.0006278 0.0004581 0.0006570 -0.0209642 0.0252034 0.0001851 0.0007583 0.0001378 0.0003919 0.0000795 0.0003125 -0.0000260 0.0001748 0.0001526 0.0007082 0.0002240 0.0007852
-0.0001769 0.0007475 0.0002218 0.0006961 0.0004731 0.0007727 -0.0088516 0.0105346 0.0001748 0.0008098 0.0001323 0.0004375 0.0000681 0.0003844 -0.0000320 0.0002470 0.0001445 0.0007878 0.0002260 0.0008707
-0.0001619 0.0009050 0.0002215 0.0007840 0.0004892 0.0009369 -0.0038443 0.0058961 0.0001532 0.0008594 0.0001247 0.0004955 0.0000668 0.0004499 -0.0000394 0.0003519 0.0001334 0.0008836 0.0002224 0.0009921
-0.0001587 0.0010672 0.0002215 0.0008420 0.0005100 0.0010861 0.0030585 -0.0049167 0.0001392 0.0008472 0.0001198 0.0004781 0.0000626 0.0004088 -0.0000322 0.0003285 0.0001351 0.0008246 0.0002098 0.0009262
-0.0001544 0.0009645 0.0002225 0.0007411 0.0005162 0.0009952 0.0105986 -0.0140053 0.0001521 0.0007087 0.0001305 0.0003375 0.0000778 0.0002241 -0.0000089 0.0001491 0.0001535 0.0006108 0.0002354 0.0006371
-0.0001393 0.0006915 0.0002237 0.0005853 0.0005206 0.0007816 0.0018506 -0.0023441 0.0001701 0.0006130 0.0001505 0.0002382 0.0000944 0.0001311 0.0000090 0.0000555 0.0001611 0.0005301 0.0002629 0.0005297
-0.0001389 0.0006133 0.0002248 0.0005539 0.0005115 0.0007116 -0.0030247 -0.0104010 0.0001831 0.0006624 0.0001635 0.0002512 0.0001142 0.0001516 0.0000123 0.0000814 0.0001584 0.0005837 0.0002573 0.0006056
-0.0001521 0.0006572 0.0002221 0.0005963 0.0004893 0.0007258 0.0056163 -0.0141588 0.0001865 0.0007485 0.0001691 0.0002955 0.0001355 0.0001936 0.0000032 0.0001494 0.0001528 0.0006630 0.0002529 0.0007019
-0.0001522 0.0007474 0.0002203 0.0006608 0.0004873 0.0007887 0.0035380 -0.0052658 0.0001759 0.0008366 0.0001673 0.0003568 0.0001318 0.0002614 -0.0000060 0.0002298 0.0001459 0.0007519 0.0002404 0.0008313
-0.0001540 0.0008780 0.0002148 0.0007365 0.0004739 0.0008768 0.0035376 -0.0038349 0.0001591 0.0009330 0.0001610 0.0004321 0.0001096 0.0003509 -0.0000130 0.0003105 0.0001374 0.0008353 0.0002385 0.0009178
-0.0001623 0.0009339 0.0002102 0.0007494 0.0004633 0.0008699 -0.0006543 0.0081256 0.0001561 0.0009082 0.0001605 0.0004001 0.0001036 0.0003037 -0.0000116 0.0002395 0.0001444 0.0007282 0.0002509 0.0007597
-0.0001678 0.0008054 0.0002177 0.0006341 0.0004742 0.0007101 -0.0045151 0.0108460 0.0001654 0.0006899 0.0001757 0.0002296 0.0001196 0.0000834 0.0000057 0.0000307 0.0001532 0.0004637 0.0002501 0.0004391
-0.0001376 0.0005929 0.0002274 0.0005206 0.0004870 0.0005404 -0.0007782 0.0069791 0.0001716 0.0005348 0.0001992 0.0001399 0.0001450 -0.0000116 0.0000198 -0.0000434 0.0001518 0.0003766 0.0002519 0.0003115
-0.0001120 0.0005443 0.0002352 0.0005163 0.0004937 0.0005080 0.0033875 -0.0002925 0.0001668 0.0005536 0.0002087 0.0001612 0.0001666 0.0000200 0.0000212 0.0000119 0.0001545 0.0004556 0.0002712 0.0003865
-0.0001104 0.0006279 0.0002386 0.0005698 0.0005036 0.0005715 -0.0027677 0.0033668 0.0001553 0.0006170 0.0002071 0.0002069 0.0001622 0.0000715 0.0000106 0.0000734 0.0001434 0.0005108 0.0002503 0.0004273
-0.0001214 0.0006898 0.0002246 0.0006081 0.0004954 0.0006264 -0.0003456 0.0129301 0.0001521 0.0006875 0.0002090 0.0002933 0.0001360 0.0001873 0.0000032 0.0001586 0.0001325 0.0005999 0.0002427 0.0005251
-0.0001313 0.0008253 0.0002179 0.0006861 0.0004855 0.0007207 0.0034543 0.0110556 0.0001335 0.0007776 0.0001979 0.0003576 0.0001162 0.0002881 0.0000006 0.0002813 0.0001414 0.0007625 0.0002850 0.0007695
-0.0001398 0.0010442 0.0002337 0.0008367 0.0004983 0.0008826 0.0037424 -0.0018469 0.0001034 0.0008750 0.0001743 0.0003960 0.0000948 0.0003735 -0.0000041 0.0003908 0.0001496 0.0009002 0.0002992 0.0009597
-0.0001781 0.0011515 0.0002403 0.0008919 0.0004975 0.0009279 0.0008005 -0.0068256 0.0000924 0.0008507 0.0001626 0.0003567 0.0000924 0.0003538 0.0000026 0.0003472 0.0001652 0.0008187 0.0002984 0.0008561
-0.0001933 0.0009841 0.0002388 0.0007603 0.0004881 0.0007144 -0.0078724 0.0012749 0.0001067 0.0006483 0.0001741 0.0001925 0.0001222 0.0001535 0.0000218 0.0001514 0.0001853 0.0005660 0.0003028 0.0005679
-0.0001874 0.0007053 0.0002383 0.0006065 0.0004779 0.0004582 -0.0131344 0.0142425 0.0001358 0.0005142 0.0001967 0.0001014 0.0001504 0.0000672 0.0000337 0.0000482 0.0001842 0.0004620 0.0003059 0.0004302
-0.0001813 0.0005637 0.0002262 0.0005457 0.0004546 0.0003476 -0.0090657 0.0093802 0.0001557 0.0005464 0.0002171 0.0001671 0.0001792 0.0001154 0.0000244 0.0000644 0.0001536 0.0004513 0.0002564 0.0003657
-0.0001865 0.0005593 0.0002092 0.0005452 0.0004440 0.0003579 -0.0079950 0.0071033 0.0001502 0.0005979 0.0002254 0.0002590 0.0001727 0.0001711 0.0000078 0.0001093 0.0001233 0.0004477 0.0001857 0.0002817
-0.0002068 0.0005876 0.0001917 0.0005526 0.0004406 0.0004328 -0.0135499 0.0191679 0.0001426 0.0006560 0.0002281 0.0003597 0.0001547 0.0002739 -0.0000038 0.0001898 0.0001165 0.0005279 0.0001900 0.0004144
-0.0002114 0.0007459 0.0001981 0.0006522 0.0004531 0.0005530 -0.0121144 0.0097108 0.0001096 0.0007292 0.0002091 0.0004176 0.0001217 0.0003846 -0.0000071 0.0003207 0.0001441 0.0007406 0.0002463 0.0007824
-0.0002214 0.0010211 0.0002216 0.0008340 0.0004626 0.0006899 -0.0081654 -0.0095826 0.0000623 0.0008145 0.0001786 0.0004498 0.0000909 0.0004642 -0.0000167 0.0004295 0.0001486 0.0008795 0.0002294 0.0008916
-0.0002219 0.0010809 0.0002003 0.0008397 0.0004293 0.0006969 -0.0141026 -0.0075035 0.0000697 0.0007874 0.0001946 0.0005010 0.0001003 0.0004827 -0.0000300 0.0003333 0.0001083 0.0006641 0.0001415 0.0004976
-0.0002049 0.0008646 0.0001696 0.0006540 0.0004120 0.0005306 -0.0114836 -0.0051012 0.0000914 0.0005764 0.0002206 0.0004290 0.0001191 0.0003683 -0.0000195 0.0001267 0.0001142 0.0003858 0.0001359 0.0001291
-0.0002170 0.0006674 0.0001810 0.0005268 0.0004314 0.0003523 -0.0012093 -0.0030232 0.0000859 0.0004214 0.0002200 0.0003168 0.0001227 0.0002720 -0.0000062 0.0000628 0.0001428 0.0003627 0.0001999 0.0001197
-0.0002107 0.0006513 0.0001964 0.0005365 0.0004502 0.0003095 -0.0032594 -0.0073669 0.0000754 0.0004179 0.0002129 0.0002990 0.0001351 0.0002994 -0.0000053 0.0001094 0.0001573 0.0004584 0.0002520 0.0002617
-0.0002141 0.0007219 0.0001991 0.0005893 0.0004441 0.0003443 0.0116423 -0.0142271 0.0000661 0.0004941 0.0002068 0.0003461 0.0001576 0.0003690 -0.0000052 0.0001716 0.0001661 0.0005593 0.0002623 0.0004362
-0.0002206 0.0008086 0.0001999 0.0006595 0.0004311 0.0003888 0.0141677 -0.0093718 0.0000531 0.0005965 0.0001989 0.0004121 0.0001333 0.0004785 -0.0000080 0.0002427 0.0001600 0.0006556 0.0002453 0.0005800
-0.0002188 0.0009031 0.0001970 0.0007335 0.0004155 0.0004514 -0.0011729 0.0018214 0.0000414 0.0006949 0.0001872 0.0004802 0.0001160 0.0005692 -0.0000160 0.0003335 0.0001496 0.0007475 0.0002360 0.0006953
-0.0002516 0.0010266 0.0001918 0.0008105 0.0003964 0.0005465 -0.0097627 0.0140631 0.0000300 0.0008086 0.0001745 0.0005593 0.0001015 0.0006571 -0.0000271 0.0004363 0.0001391 0.0008367 0.0002233 0.0008018
-0.0002601 0.0010740 0.0001891 0.0008242 0.0003885 0.0005663 -0.0023235 0.0033092 0.0000329 0.0007996 0.0001730 0.0005547 0.0000934 0.0006450 -0.0000261 0.0003712 0.0001348 0.0007204 0.0002063 0.0006281
-0.0002566 0.0009032 0.0001849 0.0006857 0.0003879 0.0004011 0.0047060 -0.0050908 0.0000578 0.0006087 0.0001918 0.0004453 0.0001360 0.0004767 -0.0000137 0.0001702 0.0001416 0.0004689 0.0002027 0.0002721
-0.0002491 0.0006816 0.0001825 0.0005377 0.0003963 0.0002428 -0.0009666 0.0028903 0.0000797 0.0004985 0.0002073 0.0003888 0.0001554 0.0003927 -0.0000093 0.0001041 0.0001433 0.0003950 0.0002097 0.0001754
-0.0002357 0.0006302 0.0001868 0.0005127 0.0004056 0.0002248 -0.0056038 0.0065195 0.0000826 0.0005284 0.0002062 0.0004086 0.0001500 0.0004313 -0.0000045 0.0001435 0.0001434 0.0004538 0.0002189 0.0002508
-0.0002415 0.0006800 0.0001856 0.0005540 0.0004049 0.0002679 -0.0024623 0.0057565 0.0000807 0.0005966 0.0002062 0.0004605 0.0001546 0.0004930 -0.0000010 0.0002089 0.0001415 0.0005477 0.0002252 0.0003719
-0.0002394 0.0007817 0.0001842 0.0006265 0.0004029 0.0003487 -0.0119204 0.0055344 0.0000736 0.0006798 0.0002019 0.0005306 0.0001533 0.0005690 -0.0000048 0.0002968 0.0001339 0.0006475 0.0002207 0.0005077
-0.0002401 0.0008800 0.0001807 0.0006985 0.0003946 0.0004243 -0.0188148 0.0236850 0.0000654 0.0007862 0.0001904 0.0005999 0.0001267 0.0006462 -0.0000167 0.0003821 0.0001130 0.0007169 0.0002049 0.0005741
-0.0002706 0.0009487 0.0001669 0.0007495 0.0003706 0.0004864 -0.0152130 0.0274453 0.0000717 0.0008761 0.0001857 0.0006394 0.0001117 0.0006448 -0.0000204 0.0003747 0.0000979 0.0006534 0.0001828 0.0004638
-0.0002873 0.0008545 0.0001590 0.0006757 0.0003576 0.0003929 -0.0011657 0.0093572 0.0000839 0.0007717 0.0001904 0.0005506 0.0001279 0.0005263 -0.0000069 0.0002388 0.0001205 0.0005020 0.0002080 0.0002562
-0.0002811 0.0006344 0.0001679 0.0005189 0.0003655 0.0001818 0.0090190 0.0054731 0.0000975 0.0006246 0.0001998 0.0004415 0.0001456 0.0004427 0.0000019 0.0001306 0.0001366 0.0004344 0.0002515 0.0001571
-0.0002769 0.0005279 0.0001691 0.0004581 0.0003683 0.0001120 0.0090147 -0.0000190 0.0001179 0.0006415 0.0002090 0.0004435 0.0001543 0.0004333 -0.0000039 0.0001162 0.0001224 0.0004433 0.0002522 0.0001544
-0.0002730 0.0005155 0.0001572 0.0004676 0.0003577 0.0001578 0.0014641 0.0001546 0.0001336 0.0007224 0.0002098 0.0004934 0.0001131 0.0004505 -0.0000144 0.0001543 0.0001098 0.0005009 0.0002502 0.0002202
-0.0002889 0.0005853 0.0001461 0.0005135 0.0003383 0.0002437 -0.0032239 0.0019296 0.0001192 0.0008140 0.0001920 0.0005354 0.0000681 0.0004752 -0.0000202 0.0002403 0.0001142 0.0006390 0.0002709 0.0004102
-0.0003279 0.0007209 0.0001326 0.0005908 0.0003349 0.0003589 0.0015739 -0.0110856 0.0000782 0.0009107 0.0001507 0.0005332 0.0000314 0.0004788 -0.0000288 0.0003485 0.0001250 0.0008068 0.0002808 0.0006472
-0.0003808 0.0008282 0.0001163 0.0006629 0.0003315 0.0004690 -0.0045580 0.0010931 0.0000552 0.0009926 0.0001119 0.0004928 -0.0000178 0.0004473 -0.0000311 0.0003483 0.0001280 0.0008039 0.0002755 0.0006399
-0.0004262 0.0006899 0.0000979 0.0005806 0.0002997 0.0003636 0.0043784 -0.0051012 0.0000645 0.0009377 0.0000973 0.0003627 -0.0000400 0.0002889 -0.0000246 0.0002222 0.0001263 0.0006235 0.0002768 0.0003940
-0.0004508 0.0003934 0.0000806 0.0003949 0.0002684 0.0001238 0.0169400 -0.0219709 0.0000846 0.0008489 0.0000977 0.0002346 -0.0000553 0.0001410 -0.0000223 0.0001465 0.0001186 0.0005313 0.0002637 0.0002892
-0.0004558 0.0002657 0.0000644 0.0003131 0.0002525 0.0000367 0.0098114 -0.0146428 0.0000999 0.0008633 0.0000887 0.0001949 -0.0000657 0.0000731 -0.0000161 0.0001524 0.0001088 0.0005665 0.0002522 0.0003521
-0.0004657 0.0002728 0.0000454 0.0003130 0.0002343 0.0000341 -0.0012124 -0.0087249 0.0000894 0.0008806 0.0000663 0.0001757 -0.0000719 0.0000522 -0.0000319 0.0001736 0.0001056 0.0006402 0.0002273 0.0003456
-0.0004758 0.0002650 0.0000137 0.0003191 0.0001958 0.0000134 -0.0055057 -0.0037026 0.0000688 0.0009273 0.0000554 0.0002267 -0.0000814 0.0001250 -0.0000552 0.0002366 0.0000919 0.0007138 0.0001850 0.0003559
-0.0004606 0.0002936 -0.0000144 0.0003286 0.0001573 0.0000215 -0.0211606 0.0146876 0.0000646 0.0010053 0.0000573 0.0003162 -0.0000763 0.0001566 -0.0000548 0.0002615 0.0000729 0.0006603 0.0001325 0.0002905
-0.0004652 0.0002257 -0.0000168 0.0002503 0.0001397 -0.0000602 -0.0156635 0.0141381 0.0000824 0.0009353 0.0000686 0.0002790 -0.0000559 0.0000177 -0.0000427 0.0001467 0.0000741 0.0004756 0.0001234 0.0000533
-0.0004623 0.0000525 0.0000026 0.0001031 0.0001786 -0.0002115 -0.0083777 0.0137753 0.0000910 0.0007554 0.0000783 0.0001725 -0.0000235 -0.0001139 -0.0000206 0.0000560 0.0000946 0.0004094 0.0001708 0.0000023
-0.0004153 0.0000510 0.0000251 0.0000740 0.0002303 -0.0001825 -0.0146237 0.0129916 0.0000930 0.0007178 0.0000885 0.0001705 0.0000014 -0.0000777 -0.0000053 0.0000694 0.0001047 0.0004603 0.0001993 0.0000906
-0.0003884 0.0001259 0.0000323 0.0001215 0.0002350 -0.0000917 -0.0257010 0.0073307 0.0001121 0.0008043 0.0001069 0.0002528 0.0000133 0.0000178 -0.0000093 0.0001105 0.0000876 0.0004917 0.0001838 0.0001449
-0.0003855 0.0001588 0.0000301 0.0001589 0.0002222 -0.0000547 -0.0036167 -0.0010261 0.0001321 0.0008950 0.0001274 0.0003742 0.0000382 0.0001250 -0.0000244 0.0001621 0.0000467 0.0004999 0.0001248 0.0001531
-0.0003591 0.0001961 0.0000224 0.0001789 0.0002144 0.0000009 0.0035418 0.0042504 0.0001483 0.0009587 0.0001512 0.0004694 0.0000668 0.0001705 -0.0000267 0.0001378 0.0000209 0.0004092 0.0000805 0.0000239
-0.0003445 0.0001251 0.0000258 0.0000928 0.0002272 -0.0000735 0.0002360 0.0014621 0.0001706 0.0008650 0.0001735 0.0004330 0.0001015 0.0000952 -0.0000043 -0.0000015 0.0000330 0.0002320 0.0000579 -0.0002166
-0.0003319 -0.0000546 0.0000420 -0.0000780 0.0002811 -0.0002020 -0.0005576 0.0068780 0.0002065 0.0006978 0.0002073 0.0004011 0.0001719 0.0000499 0.0000140 -0.0001026 0.0000206 0.0000769 0.0000259 -0.0004280
-0.0002979 -0.0000649 0.0000650 -0.0001137 0.0003634 -0.0001295 0.0017784 0.0042789 0.0002174 0.0006479 0.0002238 0.0004334 0.0002352 0.0000555 0.0000203 -0.0000870 0.0000092 0.0000774 0.0000379 -0.0004354
-0.0002912 0.0000278 0.0000797 -0.0000442 0.0003865 -0.0000429 -0.0058069 0.0030483 0.0002027 0.0007054 0.0002107 0.0004499 0.0002538 0.0001019 0.0000176 -0.0000027 0.0000301 0.0002168 0.0000870 -0.0002600
-0.0003214 0.0001094 0.0000803 0.0000212 0.0003527 -0.0000547 -0.0084966 0.0102331 0.0001811 0.0008255 0.0001872 0.0004725 0.0002063 0.0001986 0.0000148 0.0001209 0.0000575 0.0004045 0.0001318 0.0001003
-0.0003340 0.0002567 0.0000885 0.0001171 0.0003282 -0.0000079 0.0057944 -0.0038279 0.0001653 0.0008794 0.0001657 0.0004552 0.0001544 0.0002172 0.0000334 0.0001452 0.0000797 0.0004314 0.0001674 0.0001943
-0.0003250 0.0001649 0.0000961 0.0000583 0.0003305 -0.0000497 0.0095674 -0.0061899 0.0001997 0.0007696 0.0001993 0.0004063 0.0002291 0.0001360 0.0000507 -0.0000229 0.0000570 0.0001268 0.0001115 -0.0002543
-0.0003580 -0.0001736 0.0001088 -0.0001086 0.0003579 -0.0002217 0.0087973 -0.0047859 0.0002389 0.0006325 0.0002377 0.0003559 0.0003079 0.0000803 0.0000678 -0.0001430 0.0000500 -0.0000237 0.0000888 -0.0004296
-0.0003739 -0.0002389 0.0001270 -0.0001252 0.0003837 -0.0002738 0.0001006 0.0035681 0.0002324 0.0006214 0.0002266 0.0003160 0.0002998 0.0000957 0.0000760 -0.0000984 0.0000702 0.0000925 0.0001519 -0.0002668
-0.0003446 -0.0001171 0.0001290 -0.0000678 0.0003815 -0.0002336 -0.0003187 0.0039009 0.0002251 0.0006858 0.0002217 0.0003455 0.0003077 0.0001214 0.0000704 -0.0000507 0.0000406 0.0000970 0.0001194 -0.0002953
-0.0003314 -0.0000575 0.0001184 -0.0000454 0.0003642 -0.0001986 0.0126974 -0.0082998 0.0002196 0.0007620 0.0002181 0.0004008 0.0003166 0.0002443 0.0000974 0.0001126 0.0000431 0.0002071 0.0001130 -0.0001331
-0.0003211 0.0000954 0.0001145 0.0000219 0.0003737 -0.0000695 0.0113000 -0.0042394 0.0002029 0.0008403 0.0002010 0.0004372 0.0003081 0.0003895 0.0001312 0.0002990 0.0000797 0.0003853 0.0001741 0.0001307
-0.0003108 0.0002089 0.0001208 0.0000502 0.0003866 -0.0000045 0.0062062 -0.0050813 0.0002026 0.0008006 0.0002050 0.0004039 0.0003238 0.0003337 0.0001345 0.0001990 0.0000947 0.0002798 0.0001950 0.0000051
-0.0003006 0.0000597 0.0001298 -0.0000844 0.0003816 -0.0002026 0.0038199 -0.0158570 0.0002213 0.0006261 0.0002308 0.0002854 0.0003760 0.0001861 0.0001391 -0.0000268 0.0001089 0.0000843 0.0002068 -0.0001821
-0.0002941 -0.0000934 0.0001346 -0.0001778 0.0003797 -0.0003548 -0.0001572 -0.0097582 0.0002382 0.0005628 0.0002504 0.0002486 0.0004148 0.0001633 0.0001434 -0.0001084 0.0001078 0.0000564 0.0002189 -0.0001958
-0.0003010 -0.0000804 0.0001375 -0.0001472 0.0003804 -0.0003272 0.0014033 -0.0034623 0.0002341 0.0006333 0.0002478 0.0002740 0.0003993 0.0002255 0.0001474 -0.0000218 0.0001417 0.0002408 0.0002947 0.0001162
-0.0002949 0.0000383 0.0001498 -0.0000231 0.0003826 -0.0002090 -0.0022773 -0.0026164 0.0002159 0.0007255 0.0002263 0.0002790 0.0003541 0.0003374 0.0001621 0.0001249 0.0001930 0.0004939 0.0003710 0.0005582
-0.0002884 0.0001932 0.0001543 0.0001091 0.0003773 -0.0000774 -0.0181054 -0.0055759 0.0002086 0.0008288 0.0002241 0.0003440 0.0003627 0.0004215 0.0001590 0.0002216 0.0001751 0.0005695 0.0003211 0.0006342
-0.0002882 0.0002392 0.0001353 0.0001554 0.0003561 -0.0000022 -0.0112351 -0.0202683 0.0002145 0.0009338 0.0002439 0.0004762 0.0003845 0.0004697 0.0001324 0.0002761 0.0001161 0.0005409 0.0002340 0.0005294
-0.0003129 0.0002942 0.0001177 0.0001978 0.0003281 0.0000518 -0.0011315 -0.0278307 0.0002106 0.0010318 0.0002457 0.0005843 0.0003575 0.0005180 0.0001066 0.0003422 0.0000831 0.0005825 0.0001889 0.0005499
-0.0003519 0.0003804 0.0001145 0.0002283 0.0002877 0.0000569 -0.0150307 0.0057828 0.0001924 0.0009998 0.0002328 0.0005421 0.0003392 0.0004775 0.0001126 0.0002891 0.0001131 0.0005478 0.0002142 0.0005460
-0.0003633 0.0002990 0.0001244 0.0001634 0.0002658 -0.0000945 -0.0017032 -0.0006431 0.0001843 0.0008225 0.0002216 0.0003525 0.0003419 0.0003562 0.0001365 0.0001042 0.0001656 0.0003943 0.0002941 0.0004503
-0.0003580 0.0001544 0.0001399 0.0000866 0.0002818 -0.0002577 0.0179832 -0.0404275 0.0001858 0.0007139 0.0002090 0.0002029 0.0003339 0.0002363 0.0001456 0.0000237 0.0001860 0.0003610 0.0003341 0.0004813
-0.0003479 0.0001210 0.0001440 0.0000917 0.0002825 -0.0002577 -0.0003728 -0.0012340 0.0001791 0.0007249 0.0001953 0.0001729 0.0003068 0.0001881 0.0001461 0.0000534 0.0001834 0.0004203 0.0003335 0.0005692
-0.0003455 0.0001506 0.0001370 0.0001427 0.0002713 -0.0002091 0.0062917 -0.0025248 0.0001688 0.0007940 0.0001902 0.0002156 0.0003021 0.0002103 0.0001381 0.0001091 0.0001652 0.0004624 0.0002964 0.0006128
-0.0003582 0.0001810 0.0001264 0.0002029 0.0002474 -0.0001603 0.0054649 -0.0060945 0.0001542 0.0008853 0.0001840 0.0002900 0.0002929 0.0002492 0.0001188 0.0001739 0.0001391 0.0005012 0.0002494 0.0006238
-0.0003933 0.0002357 0.0001159 0.0002660 0.0002137 -0.0001166 -0.0171396 0.0109486 0.0001253 0.0009642 0.0001637 0.0003308 0.0002637 0.0003007 0.0000986 0.0002559 0.0001342 0.0006158 0.0002367 0.0007220
-0.0004342 0.0003207 0.0000976 0.0003356 0.0001897 -0.0000726 -0.0042974 -0.0016439 0.0001004 0.0010405 0.0001443 0.0003408 0.0002436 0.0003089 0.0000870 0.0002499 0.0001289 0.0006015 0.0002033 0.0006432
-0.0004569 0.0001996 0.0000754 0.0002576 0.0001541 -0.0001772 -0.0050414 0.0135749 0.0001148 0.0009832 0.0001509 0.0002780 0.0002501 0.0001739 0.0000745 0.0000708 0.0001028 0.0003392 0.0001413 0.0001509
-0.0004740 -0.0001178 0.0000543 0.0000282 0.0001083 -0.0004703 -0.0045075 0.0104163 0.0001375 0.0008166 0.0001644 0.0001624 0.0002619 0.0000297 0.0000643 -0.0000841 0.0000765 0.0001403 0.0000731 -0.0002857
-0.0004607 -0.0002766 0.0000256 -0.0001271 0.0000707 -0.0006784 0.0048513 -0.0228761 0.0001462 0.0007407 0.0001824 0.0001624 0.0003015 -0.0000198 0.0000418 -0.0001467 0.0000167 0.0000013 -0.0000329 -0.0005545
-0.0004248 -0.0002400 0.0000007 -0.0001192 0.0000487 -0.0006963 0.0010040 -0.0121603 0.0001428 0.0007536 0.0001943 0.0002293 0.0003544 0.0000376 0.0000376 -0.0000585 -0.0000061 0.0000416 -0.0000502 -0.0005382
-0.0004242 -0.0000168 -0.0000210 -0.0000281 0.0000213 -0.0006100 -0.0032455 -0.0027015 0.0001219 0.0007893 0.0002075 0.0003266 0.0003589 0.0002864 0.0000641 0.0001207 0.0000270 0.0002588 0.0000194 -0.0002520
-0.0003884 0.0003267 -0.0000245 0.0001142 0.0000482 -0.0003470 0.0064308 -0.0157908 0.0000913 0.0008340 0.0002324 0.0004580 0.0003445 0.0004433 0.0000630 0.0002152 0.0000290 0.0003916 0.0000376 -0.0001082
-0.0003322 0.0005943 -0.0000104 0.0002609 0.0000953 -0.0001045 0.0108013 -0.0163710 0.0000578 0.0007718 0.0002292 0.0004521 0.0003108 0.0003349 0.0000421 0.0001435 0.0000234 0.0002980 0.0000257 -0.0003435
-0.0003233 0.0006045 -0.0000055 0.0002249 0.0000987 -0.0001847 0.0044724 -0.0140449 0.0000494 0.0005478 0.0002271 0.0003187 0.0002805 0.0001515 0.0000365 -0.0000372 0.0000204 0.0000690 0.0000188 -0.0007447
-0.0003191 0.0004530 -0.0000079 0.0001163 0.0001124 -0.0002997 0.0017641 -0.0046091 0.0000531 0.0004281 0.0002255 0.0002206 0.0002677 0.0000534 0.0000519 -0.0000662 0.0000109 0.0000070 0.0000352 -0.0008579
-0.0003179 0.0004303 -0.0000361 0.0000525 0.0001074 -0.0002618 -0.0029486 -0.0039040 0.0000643 0.0004750 0.0002176 0.0001908 0.0002628 0.0000570 0.0000520 -0.0000145 -0.0000022 0.0000609 0.0000370 -0.0007928
-0.0003437 0.0005240 -0.0000710 0.0000244 0.0000701 -0.0002246 -0.0032957 -0.0052215 0.0000657 0.0005541 0.0002070 0.0001919 0.0002425 0.0000761 0.0000303 0.0000223 -0.0000063 0.0001700 0.0000283 -0.0006553
-0.0003569 0.0006725 -0.0000834 0.0000826 0.0000363 -0.0001808 -0.0016724 -0.0067564 0.0000487 0.0006602 0.0001897 0.0002069 0.0002124 0.0001300 0.0000259 0.0000993 0.0000141 0.0003272 0.0000595 -0.0002454
-0.0003489 0.0008997 -0.0000854 0.0001724 0.0000510 -0.0000257 -0.0228130 0.0228282 0.0000355 0.0007733 0.0001399 0.0001376 0.0001587 0.0001128 0.0000859 0.0002596 0.0001115 0.0005867 0.0002022 0.0003375
-0.0003525 0.0010643 -0.0000952 0.0001918 0.0000964 0.0001104 0.0014977 0.0064380 0.0000066 0.0006178 0.0000827 -0.0000599 0.0001304 0.0000802 0.0001492 0.0003235 0.0002178 0.0007203 0.0003113 0.0004794
-0.0003520 0.0009929 -0.0000983 0.0001107 0.0001403 0.0001385 0.0216043 -0.0323805 0.0000149 0.0004239 0.0000896 -0.0001508 0.0001930 0.0000815 0.0001412 0.0001994 0.0002322 0.0006484 0.0002915 0.0003298
-0.0003600 0.0008305 -0.0000905 0.0000451 0.0001563 0.0001226 -0.0013312 0.0084117 0.0000436 0.0004753 0.0001066 -0.0001223 0.0002031 0.0000223 0.0001120 0.0001272 0.0002121 0.0006331 0.0002540 0.0003267
-0.0003698 0.0007567 -0.0001035 0.0000334 0.0001353 0.0001006 -0.0025149 0.0088858 0.0000277 0.0004803 0.0001128 -0.0000930 0.0001789 0.0000717 0.0000948 0.0001773 0.0001937 0.0006918 0.0002108 0.0003448
-0.0003526 0.0008638 -0.0001194 0.0000746 0.0001388 0.0002163 0.0013769 0.0018035 -0.0000070 0.0004225 0.0001208 -0.0000223 0.0001475 0.0001180 0.0000819 0.0002688 0.0001628 0.0007515 0.0001575 0.0003720
-0.0002946 0.0012165 -0.0001140 0.0002077 0.0002654 0.0006480 -0.0044720 0.0152003 -0.0000358 0.0003294 0.0001169 0.0000219 0.0001019 0.0000301 0.0000716 0.0002483 0.0001361 0.0006685 0.0001209 0.0002433
-0.0002717 0.0013055 -0.0001085 0.0002189 0.0003493 0.0008252 0.0005719 0.0063658 -0.0000199 0.0002118 0.0001235 -0.0000441 0.0001057 -0.0000737 0.0000678 0.0001073 0.0001313 0.0004666 0.0001059 -0.0000512
-0.0002643 0.0010668 -0.0001078 0.0000955 0.0003482 0.0006547 0.0038266 0.0045579 0.0000149 0.0001240 0.0001349 -0.0001304 0.0001700 -0.0001472 0.0000765 0.0000499 0.0001397 0.0004030 0.0001133 -0.0001400
-0.0002062 0.0010930 -0.0000965 0.0000845 0.0004384 0.0007628 0.0062520 -0.0078564 0.0000324 0.0000938 0.0000998 -0.0002580 0.0002588 -0.0000543 0.0001575 0.0002595 0.0002003 0.0006047 0.0002050 0.0001871
-0.0001412 0.0013706 -0.0000996 0.0001117 0.0005428 0.0010263 -0.0116561 0.0089897 0.0000846 0.0001763 0.0000579 -0.0003456 0.0002625 0.0000750 0.0001785 0.0003674 0.0002442 0.0007832 0.0002339 0.0003520
-0.0001202 0.0014270 -0.0001032 0.0001554 0.0005553 0.0011349 -0.0136888 0.0182869 0.0001559 0.0004082 0.0000655 -0.0002253 0.0002117 0.0001350 0.0001092 0.0002687 0.0002321 0.0008043 0.0001851 0.0002701
-0.0001661 0.0012279 -0.0000812 0.0001573 0.0005278 0.0010414 -0.0079983 0.0017601 0.0001785 0.0004704 0.0000820 -0.0002089 0.0002126 0.0000449 0.0001021 0.0001309 0.0002465 0.0006809 0.0001865 0.0001205
-0.0002083 0.0009374 -0.0000625 -0.0000316 0.0005007 0.0007387 -0.0097921 0.0155449 0.0002039 0.0002996 0.0001218 -0.0003186 0.0002850 -0.0001888 0.0001030 -0.0000987 0.0002341 0.0004065 0.0001468 -0.0002552
-0.0002225 0.0004843 -0.0000622 -0.0002564 0.0003803 0.0002144 -0.0055779 0.0099956 0.0002409 0.0002863 0.0001665 -0.0003227 0.0003263 -0.0003026 0.0000959 -0.0001916 0.0002087 0.0003091 0.0001250 -0.0003877
-0.0002400 0.0002109 -0.0000632 -0.0003215 0.0002524 -0.0001895 -0.0208421 0.0136435 0.0002333 0.0004096 0.0001634 -0.0003051 0.0002887 -0.0003040 0.0000936 -0.0001546 0.0002027 0.0003748 0.0001172 -0.0003382
-0.0002637 0.0001477 -0.0000691 -0.0003202 0.0001852 -0.0003421 -0.0180380 0.0222740 0.0002239 0.0005177 0.0001556 -0.0002574 0.0002646 -0.0002308 0.0000879 -0.0000584 0.0002136 0.0005154 0.0001620 -0.0000399
-0.0002839 0.0001961 -0.0000721 -0.0002601 0.0001439 -0.0003221 -0.0065166 0.0043043 0.0002194 0.0006484 0.0001396 -0.0002210 0.0002346 -0.0001416 0.0000972 0.0000091 0.0002555 0.0006500 0.0002526 0.0003326
-0.0003009 0.0002273 -0.0000558 -0.0002373 0.0001441 -0.0003198 0.0010190 -0.0157417 0.0002147 0.0006006 0.0001288 -0.0003269 0.0002294 -0.0001886 0.0001259 -0.0000960 0.0002868 0.0005415 0.0002938 0.0002663
-0.0003035 0.0000121 -0.0000386 -0.0003985 0.0001641 -0.0004920 0.0031129 0.0028586 0.0002435 0.0003829 0.0001656 -0.0004402 0.0003035 -0.0003159 0.0001546 -0.0002309 0.0002941 0.0003917 0.0003185 0.0001575
-0.0002840 -0.0001373 -0.0000249 -0.0004922 0.0001892 -0.0005549 -0.0014798 0.0086498 0.0002683 0.0003349 0.0001982 -0.0004379 0.0003590 -0.0003591 0.0001649 -0.0002807 0.0002711 0.0003427 0.0002835 0.0001113
-0.0002679 -0.0001698 -0.0000242 -0.0004794 0.0001957 -0.0005072 -0.0057431 0.0050622 0.0002757 0.0004247 0.0002106 -0.0003540 0.0003765 -0.0003085 0.0001597 -0.0002248 0.0002517 0.0003930 0.0002589 0.0001590
-0.0002756 -0.0001277 -0.0000277 -0.0004381 0.0001926 -0.0004359 0.0099631 -0.0107777 0.0002755 0.0005312 0.0002180 -0.0002384 0.0003778 -0.0002227 0.0001460 -0.0001109 0.0002351 0.0004877 0.0002407 0.0002967
-0.0002821 -0.0000168 -0.0000308 -0.0003725 0.0001926 -0.0003322 0.0201561 -0.0344248 0.0002726 0.0006386 0.0002272 -0.0000925 0.0003853 -0.0001055 0.0001400 0.0000080 0.0001909 0.0005300 0.0001684 0.0003326
-0.0002874 0.0000784 -0.0000420 -0.0003075 0.0001894 -0.0002165 0.0063692 -0.0145347 0.0002690 0.0007451 0.0002306 0.0000429 0.0003920 0.0000653 0.0001538 0.0001304 0.0001863 0.0006115 0.0001634 0.0004076
-0.0003016 0.0001234 -0.0000367 -0.0002777 0.0001918 -0.0001579 0.0135113 -0.0101029 0.0002533 0.0007378 0.0002029 -0.0000282 0.0003634 0.0000286 0.0001711 0.0000925 0.0002219 0.0005637 0.0002143 0.0003324
-0.0003283 -0.0000546 -0.0000263 -0.0003988 0.0002005 -0.0003110 0.0217085 -0.0204753 0.0002649 0.0005903 0.0001969 -0.0002074 0.0003430 -0.0001861 0.0001728 -0.0000717 0.0002241 0.0003767 0.0002267 0.0001201
-0.0003450 -0.0002626 -0.0000278 -0.0005126 0.0001971 -0.0004491 0.0098349 -0.0157385 0.0002777 0.0005304 0.0002007 -0.0002571 0.0003113 -0.0002734 0.0001625 -0.0001146 0.0002110 0.0003601 0.0002178 0.0001172
-0.0003357 -0.0002729 -0.0000278 -0.0004752 0.0001901 -0.0004156 0.0000952 0.0008099 0.0002550 0.0005754 0.0001764 -0.0002322 0.0002428 -0.0002760 0.0001474 -0.0000395 0.0002129 0.0004949 0.0002381 0.0002777
-0.0002981 -0.0002046 -0.0000167 -0.0004313 0.0001831 -0.0003261 0.0028042 -0.0066122 0.0002215 0.0006416 0.0001574 -0.0001790 0.0001971 -0.0002230 0.0001354 0.0000547 0.0002095 0.0006247 0.0002411 0.0004711
-0.0002571 -0.0000785 0.0000051 -0.0003542 0.0001624 -0.0002198 0.0080212 -0.0294491 0.0001935 0.0007043 0.0001440 -0.0000879 0.0001721 -0.0001270 0.0001202 0.0001725 0.0001883 0.0007186 0.0002092 0.0006211
-0.0002615 0.0001325 0.0000111 -0.0001954 0.0001457 -0.0001315 0.0039809 -0.0010822 0.0001766 0.0007892 0.0001307 0.0000209 0.0001412 0.0000316 0.0001264 0.0003494 0.0001832 0.0008599 0.0002137 0.0008544
-0.0002087 0.0006127 0.0000216 0.0000558 0.0002512 0.0002995 0.0021769 0.0062860 0.0001130 0.0006592 0.0000699 -0.0000574 0.0001955 0.0004171 0.0002330 0.0007243 0.0002548 0.0011840 0.0002858 0.0012769
-0.0000536 0.0014324 0.0000396 0.0003058 0.0006379 0.0013557 0.0047144 -0.0050805 0.0001596 0.0004383 0.0000184 -0.0002415 0.0002882 0.0006763 0.0003208 0.0008460 0.0003185 0.0011831 0.0003116 0.0011962
0.0000023 0.0016325 0.0000604 0.0003127 0.0008487 0.0017123 0.0017007 0.0027569 0.0002903 0.0004490 0.0000716 -0.0001859 0.0003189 0.0004179 0.0002454 0.0004206 0.0002789 0.0007337 0.0002026 0.0005576
-0.0001137 0.0008688 0.0000697 0.0000882 0.0006112 0.0008384 -0.0040721 0.0095615 0.0002512 0.0004554 0.0000974 -0.0000977 0.0002666 0.0001013 0.0001170 0.0000418 0.0002026 0.0004391 0.0000662 0.0001561
-0.0002297 0.0002468 0.0000552 -0.0001104 0.0003666 0.0001138 -0.0107024 0.0043359 0.0001638 0.0004499 0.0000663 -0.0000762 0.0001874 0.0000116 0.0000512 -0.0000259 0.0001562 0.0003893 -0.0000003 0.0001156
-0.0002232 0.0002189 0.0000545 -0.0001114 0.0003117 0.0000195 0.0033871 -0.0083866 0.0001152 0.0004549 0.0000430 -0.0000300 0.0001538 0.0000639 0.0000420 0.0000611 0.0001745 0.0005431 0.0000472 0.0004406
-0.0001667 0.0005059 0.0000633 0.0000252 0.0003380 0.0002078 0.0070421 -0.0183777 0.0000704 0.0004959 0.0000143 0.0000111 0.0001329 0.0001642 0.0000192 0.0000857 0.0001503 0.0005714 -0.0000265 0.0004614
-0.0002210 0.0005000 0.0000272 0.0000312 0.0003242 0.0002739 -0.0023065 0.0001112 0.0000741 0.0006456 0.0000125 0.0001355 0.0001348 0.0002463 -0.0000122 0.0001232 0.0001260 0.0006161 -0.0000337 0.0006480
-0.0002525 0.0005385 -0.0000051 0.0000694 0.0002590 0.0002301 -0.0026741 0.0116467 0.0000690 0.0008019 0.0000028 0.0002109 0.0001265 0.0003071 -0.0000210 0.0001633 0.0001553 0.0006995 0.0000284 0.0008619
-0.0002005 0.0005349 -0.0000146 0.0000399 0.0001756 -0.0000068 -0.0033544 0.0048720 0.0000758 0.0007821 0.0000012 0.0001618 0.0001343 0.0002457 -0.0000200 0.0000196 0.0001506 0.0004959 -0.0000159 0.0004776
-0.0001987 0.0001435 -0.0000299 -0.0002031 0.0001123 -0.0004618 -0.0033100 -0.0091775 0.0001183 0.0006073 0.0000181 0.0000824 0.0001988 0.0000566 -0.0000130 -0.0001332 0.0001423 0.0003121 -0.0000081 0.0002839
-0.0002160 -0.0000143 -0.0000257 -0.0002986 0.0001122 -0.0006695 0.0034065 -0.0060219 0.0001257 0.0005164 0.0000130 0.0000330 0.0002034 -0.0000278 0.0000008 -0.0001482 0.0001538 0.0003113 0.0000108 0.0003295
-0.0002118 0.0000096 -0.0000253 -0.0002776 0.0001146 -0.0006638 0.0073977 -0.0061084 0.0001266 0.0005498 0.0000150 0.0000768 0.0001828 0.0000694 0.0000131 -0.0000653 0.0001566 0.0003896 0.0000210 0.0004876
-0.0001910 0.0000987 -0.0000330 -0.0002276 0.0001067 -0.0005965 0.0056511 -0.0099605 0.0001326 0.0006529 0.0000227 0.0001865 0.0001933 0.0001866 0.0000117 0.0000486 0.0001371 0.0004784 0.0000027 0.0006438
-0.0001859 0.0001981 -0.0000425 -0.0001629 0.0000956 -0.0005064 -0.0122939 0.0143951 0.0001337 0.0007770 0.0000263 0.0002996 0.0001659 0.0003015 0.0000066 0.0001655 0.0001243 0.0005851 -0.0000047 0.0008065
-0.0001845 0.0003377 -0.0000478 -0.0000767 0.0000877 -0.0003881 -0.0169876 0.0188203 0.0001288 0.0008832 0.0000259 0.0003977 0.0001418 0.0003983 0.0000050 0.0002290 0.0001291 0.0006309 -0.0000033 0.0009069
-0.0001889 0.0003912 -0.0000436 -0.0000648 0.0000975 -0.0003722 -0.0003584 0.0109092 0.0001333 0.0008352 0.0000288 0.0003792 0.0001609 0.0003551 0.0000231 0.0001506 0.0001468 0.0005310 0.0000194 0.0008169
-0.0001795 0.0002889 -0.0000244 -0.0001505 0.0001275 -0.0004816 -0.0024303 0.0087036 0.0001570 0.0006448 0.0000370 0.0002637 0.0001908 0.0002106 0.0000410 0.0000555 0.0001573 0.0004230 0.0000438 0.0007300
-0.0001542 0.0002138 -0.0000091 -0.0001906 0.0001611 -0.0005165 -0.0008440 -0.0074856 0.0001771 0.0005717 0.0000370 0.0002169 0.0001819 0.0001280 0.0000433 0.0000631 0.0001566 0.0004344 0.0000527 0.0007915
-0.0001551 0.0002579 -0.0000065 -0.0001495 0.0001745 -0.0004355 0.0078147 -0.0166352 0.0001830 0.0006152 0.0000355 0.0002417 0.0001700 0.0001445 0.0000453 0.0001161 0.0001494 0.0005004 0.0000536 0.0008993
-0.0001513 0.0003590 -0.0000049 -0.0000781 0.0001835 -0.0003241 0.0032061 -0.0164724 0.0001787 0.0006826 0.0000366 0.0003006 0.0001607 0.0002064 0.0000360 0.0001947 0.0001419 0.0005843 0.0000523 0.0010393
-0.0001523 0.0005016 -0.0000058 0.0000004 0.0001983 -0.0001777 -0.0138850 0.0147967 0.0001674 0.0007415 0.0000293 0.0003765 0.0001438 0.0002832 0.0000228 0.0002892 0.0001322 0.0006809 0.0000402 0.0011604
-0.0001090 0.0008047 -0.0000060 0.0000712 0.0003279 0.0002414 -0.0034897 0.0098638 0.0001575 0.0005227 0.0000394 0.0003930 0.0001671 0.0003268 0.0000335 0.0002598 0.0001214 0.0005932 0.0000070 0.0010195
-0.0000426 0.0009770 0.0000092 0.0000518 0.0004928 0.0005655 0.0140782 -0.0160452 0.0001675 0.0002401 0.0000519 0.0002892 0.0001864 0.0002570 0.0000528 0.0001451 0.0001418 0.0004451 0.0000208 0.0008492
-0.0000468 0.0007739 0.0000237 -0.0000342 0.0004777 0.0004048 0.0161889 -0.0263972 0.0002073 0.0003164 0.0000428 0.0001917 0.0001728 0.0001390 0.0000539 0.0001218 0.0001631 0.0004711 0.0000671 0.0008779
-0.0000888 0.0005270 0.0000193 -0.0000787 0.0003571 0.0000912 0.0062026 -0.0217003 0.0002335 0.0005086 0.0000311 0.0001759 0.0001441 0.0000852 0.0000483 0.0001658 0.0001536 0.0005413 0.0000891 0.0009388
-0.0001213 0.0004557 0.0000090 -0.0000655 0.0002890 -0.0000500 0.0025663 -0.0047575 0.0002369 0.0006226 0.0000188 0.0001955 0.0000841 0.0001126 0.0000415 0.0002492 0.0001404 0.0006217 0.0000916 0.0010550
-0.0001309 0.0004966 0.0000007 -0.0000180 0.0002711 0.0000070 -0.0020575 0.0105550 0.0002368 0.0007251 0.0000106 0.0002526 0.0000211 0.0001928 0.0000279 0.0003563 0.0001246 0.0007104 0.0000671 0.0012154
-0.0001642 0.0005873 -0.0000104 0.0000363 0.0002414 0.0000897 -0.0096784 0.0201657 0.0002300 0.0008075 0.0000062 0.0002868 0.0000056 0.0002269 0.0000295 0.0003764 0.0001254 0.0007103 0.0000559 0.0012266
-0.0001899 0.0005265 -0.0000168 -0.0000256 0.0002178 0.0000049 -0.0079748 0.0159014 0.0002367 0.0007204 0.0000134 0.0002020 0.0000184 0.0001549 0.0000476 0.0002488 0.0001426 0.0005680 0.0000835 0.0009907
-0.0001816 0.0002654 -0.0000096 -0.0001952 0.0002225 -0.0002219 -0.0064811 0.0095519 0.0002623 0.0005766 0.0000341 0.0001000 0.0000510 0.0000865 0.0000587 0.0001537 0.0001489 0.0004888 0.0001051 0.0008592
-0.0001603 0.0001325 -0.0000021 -0.0002637 0.0002332 -0.0002765 -0.0073436 0.0110932 0.0002815 0.0005687 0.0000462 0.0000879 0.0000870 0.0000637 0.0000546 0.0001790 0.0001459 0.0005383 0.0001166 0.0009076
-0.0001523 0.0001779 -0.0000006 -0.0002287 0.0002435 -0.0001837 0.0006096 -0.0073790 0.0002804 0.0006426 0.0000463 0.0001281 0.0000693 0.0001173 0.0000480 0.0002486 0.0001372 0.0006197 0.0001155 0.0009959
-0.0001559 0.0002565 -0.0000017 -0.0001684 0.0002548 -0.0000855 0.0145697 -0.0335832 0.0002739 0.0007382 0.0000448 0.0001963 0.0000597 0.0001986 0.0000369 0.0003444 0.0001246 0.0007100 0.0000999 0.0011267
-0.0001678 0.0003648 -0.0000067 -0.0000948 0.0002555 0.0000315 -0.0000599 -0.0001697 0.0002666 0.0008399 0.0000401 0.0002791 0.0000420 0.0003006 0.0000305 0.0004442 0.0001153 0.0007967 0.0000856 0.0012391
-0.0001861 0.0004360 -0.0000072 -0.0000800 0.0002455 0.0000844 0.0028176 -0.0088458 0.0002675 0.0008395 0.0000419 0.0002680 0.0000229 0.0003293 0.0000387 0.0004051 0.0001206 0.0007302 0.0000781 0.0011260
-0.0001860 0.0003013 0.0000031 -0.0001949 0.0002496 -0.0000385 0.0074169 -0.0141285 0.0002894 0.0006837 0.0000564 0.0001399 0.0000725 0.0001835 0.0000527 0.0002588 0.0001322 0.0005587 0.0001031 0.0008850
-0.0001589 0.0000965 0.0000157 -0.0003061 0.0002676 -0.0001518 0.0031411 -0.0038537 0.0003102 0.0006006 0.0000706 0.0000698 0.0001097 0.0000877 0.0000606 0.0002127 0.0001311 0.0005276 0.0001182 0.0008356
-0.0001357 0.0000512 0.0000201 -0.0003079 0.0002768 -0.0001122 0.0027631 -0.0046497 0.0003394 0.0006209 0.0001200 0.0001711 0.0001770 0.0002016 0.0000677 0.0002610 0.0000991 0.0005348 0.0000755 0.0007924
-0.0001067 0.0002142 0.0000282 -0.0002526 0.0003641 0.0001689 -0.0071223 0.0134338 0.0003565 0.0006257 0.0001373 0.0002652 0.0002311 0.0003855 0.0000971 0.0003938 0.0000954 0.0006265 0.0000825 0.0009203
-0.0000631 0.0004104 0.0000328 -0.0001778 0.0004512 0.0004803 -0.0122104 0.0142958 0.0003582 0.0006734 0.0001236 0.0003232 0.0002148 0.0005280 0.0001213 0.0005581 0.0001267 0.0008224 0.0001368 0.0011959
-0.0000891 0.0004785 0.0000113 -0.0001448 0.0004379 0.0005627 -0.0167641 0.0114309 0.0003937 0.0008406 0.0001666 0.0005316 0.0002526 0.0006404 0.0000840 0.0005735 0.0000720 0.0008056 0.0000316 0.0011085
-0.0001802 0.0004961 -0.0000272 -0.0001436 0.0003847 0.0005437 -0.0041900 0.0033742 0.0003968 0.0010477 0.0001670 0.0006720 0.0002533 0.0006994 0.0000425 0.0006063 0.0000192 0.0008054 -0.0000573 0.0010478
-0.0002393 0.0005678 -0.0000472 -0.0001395 0.0003339 0.0004825 0.0023539 -0.0050881 0.0003595 0.0010855 0.0001223 0.0005746 0.0001771 0.0006447 0.0000498 0.0005963 0.0000571 0.0008179 0.0000299 0.0010836
-0.0002638 0.0004921 -0.0000570 -0.0002258 0.0002833 0.0002946 -0.0111895 0.0081040 0.0003257 0.0008512 0.0001136 0.0003886 0.0001165 0.0005589 0.0000560 0.0004327 0.0000941 0.0006495 0.0000831 0.0007356
-0.0002816 0.0003246 -0.0000794 -0.0003698 0.0002170 0.0000669 -0.0238076 0.0223847 0.0002731 0.0005739 0.0001350 0.0002936 0.0001280 0.0004816 0.0000631 0.0003564 0.0001076 0.0006126 0.0001203 0.0005266
-0.0002567 0.0004389 -0.0000805 -0.0003522 0.0002460 0.0002190 -0.0190386 0.0112799 0.0002107 0.0004173 0.0001296 0.0002488 0.0000934 0.0004193 0.0000620 0.0003747 0.0001089 0.0006770 0.0001572 0.0005749
-0.0002323 0.0006262 -0.0000814 -0.0002438 0.0003063 0.0005115 -0.0136270 0.0053001 0.0001679 0.0003624 0.0001076 0.0002295 0.0000279 0.0004779 0.0000473 0.0004216 0.0001107 0.0007663 0.0001680 0.0006497
-0.0002729 0.0007542 -0.0000959 -0.0001427 0.0002853 0.0006283 -0.0018388 0.0034143 0.0001533 0.0004274 0.0001102 0.0003151 0.0000510 0.0005936 0.0000254 0.0004576 0.0001014 0.0008443 0.0001666 0.0007331
-0.0002876 0.0009060 -0.0000974 -0.0000226 0.0002751 0.0007580 0.0019465 0.0018888 0.0001501 0.0004830 0.0001405 0.0004866 0.0001023 0.0008001 0.0000004 0.0005107 0.0000857 0.0009090 0.0001407 0.0008041
-0.0002398 0.0011266 -0.0000794 0.0001266 0.0003067 0.0009492 0.0051847 -0.0102112 0.0001399 0.0005051 0.0001666 0.0006265 0.0001671 0.0010026 0.0000055 0.0005548 0.0001193 0.0009574 0.0001626 0.0009299
-0.0002112 0.0012359 -0.0000396 0.0001998 0.0003526 0.0010261 0.0143771 -0.0361271 0.0001354 0.0003970 0.0001680 0.0005607 0.0002143 0.0010014 0.0000389 0.0004734 0.0001735 0.0008650 0.0002213 0.0008494
-0.0001915 0.0010693 -0.0000102 0.0001008 0.0003870 0.0008760 0.0047281 -0.0069763 0.0001634 0.0002203 0.0001710 0.0004114 0.0002291 0.0008340 0.0000579 0.0003568 0.0001809 0.0007383 0.0002254 0.0006287
-0.0001810 0.0009248 -0.0000138 -0.0000050 0.0004185 0.0008149 -0.0002980 -0.0013952 0.0002117 0.0002346 0.0001720 0.0003769 0.0002239 0.0006902 0.0000448 0.0002936 0.0001377 0.0006278 0.0001449 0.0003457
-0.0001659 0.0008554 -0.0000443 -0.0000602 0.0004401 0.0008779 0.0084528 -0.0215679 0.0002491 0.0003575 0.0001666 0.0004281 0.0001908 0.0006611 0.0000155 0.0002780 0.0000882 0.0005642 0.0000333 0.0001443
-0.0001704 0.0008310 -0.0000764 -0.0000791 0.0004273 0.0008764 0.0063056 -0.0267667 0.0002707 0.0004896 0.0001568 0.0005045 0.0001524 0.0006813 -0.0000192 0.0003354 0.0000627 0.0006179 -0.0000481 0.0001665
-0.0002233 0.0008387 -0.0001005 -0.0000701 0.0003616 0.0007841 -0.0069766 -0.0148689 0.0002932 0.0006756 0.0001527 0.0006085 0.0001321 0.0007662 -0.0000473 0.0004022 0.0000367 0.0006705 -0.0001124 0.0001916
-0.0003134 0.0007561 -0.0001195 -0.0000923 0.0002803 0.0006147 -0.0057841 0.0052509 0.0003214 0.0007773 0.0001616 0.0006636 0.0001512 0.0007740 -0.0000586 0.0003217 0.0000120 0.0005228 -0.0001723 -0.0000082
-0.0003771 0.0005211 -0.0001255 -0.0002321 0.0002451 0.0003691 -0.0098431 0.0133821 0.0003495 0.0006808 0.0001764 0.0006156 0.0001931 0.0006430 -0.0000535 0.0001546 0.0000155 0.0003039 -0.0001717 -0.0002665
-0.0003727 0.0002950 -0.0001240 -0.0003700 0.0002289 0.0001266 -0.0108344 0.0205545 0.0003651 0.0005905 0.0001842 0.0005799 0.0002038 0.0005612 -0.0000448 0.0001213 0.0000306 0.0002876 -0.0001303 -0.0002527
-0.0003706 0.0002922 -0.0001226 -0.0003666 0.0002269 0.0000438 -0.0093969 0.0196502 0.0003580 0.0006244 0.0001575 0.0005475 0.0001562 0.0005102 -0.0000378 0.0001922 0.0000519 0.0004092 -0.0000580 -0.0000361
-0.0003597 0.0003411 -0.0001297 -0.0003352 0.0002208 0.0000296 -0.0162743 0.0087513 0.0003100 0.0006524 0.0000742 0.0004305 0.0000349 0.0002951 -0.0001285 -0.0000013 -0.0000333 0.0002120 -0.0001795 -0.0002806
-0.0003847 0.0002358 -0.0001669 -0.0002562 0.0000488 -0.0002986 -0.0089658 0.0035378 0.0002356 0.0006298 -0.0000090 0.0003352 -0.0000613 0.0000891 -0.0002305 -0.0001663 -0.0001202 0.0000366 -0.0002728 -0.0003258
-0.0004395 0.0002564 -0.0002241 -0.0001607 -0.0001071 -0.0005012 -0.0009293 0.0085725 0.0002060 0.0006324 -0.0000349 0.0002767 -0.0000758 0.0001443 -0.0001891 -0.0000891 -0.0000400 0.0001668 -0.0001096 0.0001549
-0.0004267 0.0002157 -0.0002528 -0.0002348 -0.0000730 -0.0004710 0.0011454 0.0081248 0.0002374 0.0005340 -0.0000194 0.0001681 -0.0000129 0.0001352 -0.0001227 -0.0001660 0.0000482 0.0001153 0.0000042 0.0002469
-0.0003876 -0.0000935 -0.0002512 -0.0003920 -0.0000215 -0.0006222 0.0041877 -0.0037880 0.0002860 0.0003882 0.0000016 0.0000875 0.0000567 -0.0000005 -0.0000953 -0.0002469 0.0000680 0.0000388 0.0000513 0.0002596
-0.0003720 -0.0002207 -0.0002471 -0.0004394 0.0000219 -0.0006691 0.0061501 -0.0100438 0.0003335 0.0003570 0.0000336 0.0001407 0.0001281 -0.0001002 -0.0001404 -0.0003739 -0.0000299 -0.0001495 -0.0001337 -0.0001295
-0.0003655 -0.0003904 -0.0002840 -0.0005578 0.0001672 -0.0004214 0.0009261 0.0064030 0.0004588 0.0005339 0.0000789 0.0003041 0.0001592 -0.0000725 -0.0001520 -0.0003310 -0.0000657 -0.0001274 -0.0001483 -0.0000167
-0.0003859 -0.0003236 -0.0003146 -0.0005372 0.0003316 0.0000249 -0.0093563 0.0109579 0.0005404 0.0007495 0.0000699 0.0003654 0.0000964 0.0000901 -0.0000790 -0.0000183 0.0000186 0.0002173 0.0000992 0.0008895
-0.0003833 0.0000908 -0.0002821 -0.0002480 0.0003917 0.0004212 -0.0038142 0.0045300 0.0005132 0.0008137 0.0000392 0.0003473 0.0000707 0.0002358 -0.0000187 0.0001559 0.0000636 0.0003235 0.0002084 0.0012347
-0.0003356 0.0002217 -0.0002461 -0.0001647 0.0004289 0.0005215 0.0027384 -0.0031092 0.0005208 0.0006831 0.0000450 0.0002611 0.0001157 0.0001673 0.0000242 0.0000767 0.0000959 0.0001697 0.0002770 0.0010722
-0.0002997 0.0000350 -0.0002241 -0.0003242 0.0004639 0.0003079 0.0010533 -0.0155032 0.0005506 0.0004245 0.0000565 0.0000703 0.0001496 -0.0000734 0.0000425 -0.0000835 0.0001131 0.0000140 0.0003136 0.0008870
-0.0002846 -0.0001431 -0.0002128 -0.0004342 0.0004913 0.0001872 -0.0032258 0.0117230 0.0005687 0.0003335 0.0000564 -0.0000235 0.0001261 -0.0001849 0.0000469 -0.0001256 0.0001186 0.0000273 0.0003277 0.0009318
-0.0002768 -0.0001562 -0.0002137 -0.0004119 0.0005087 0.0002456 -0.0042935 0.0197073 0.0005717 0.0003882 0.0000483 -0.0000079 0.0001061 -0.0001789 0.0000443 -0.0000783 0.0001153 0.0001066 0.0003173 0.0010767
-0.0002881 -0.0000974 -0.0002139 -0.0003538 0.0005256 0.0003388 0.0040298 0.0006648 0.0005717 0.0004863 0.0000387 0.0000458 0.0000914 -0.0001211 0.0000504 0.0000502 0.0001131 0.0002480 0.0003266 0.0012965
-0.0003038 0.0000054 -0.0002161 -0.0002775 0.0005327 0.0004626 0.0250036 -0.0513413 0.0005662 0.0005849 0.0000292 0.0001173 0.0000604 -0.0000149 0.0000563 0.0002073 0.0001118 0.0004108 0.0003346 0.0015331
-0.0002979 0.0001360 -0.0002242 -0.0001831 0.0005249 0.0006172 0.0133505 -0.0241650 0.0005507 0.0006724 0.0000215 0.0001990 0.0000322 0.0000699 0.0000526 0.0003385 0.0001015 0.0005379 0.0003169 0.0017549
-0.0003081 0.0003090 -0.0002283 -0.0000799 0.0005115 0.0007742 0.0040967 -0.0152039 0.0005292 0.0007737 0.0000156 0.0002903 -0.0000049 0.0001186 0.0000333 0.0004283 0.0000853 0.0006535 0.0002873 0.0019127
-0.0003277 0.0004694 -0.0002320 0.0000212 0.0004845 0.0009072 0.0011298 -0.0054595 0.0005249 0.0009232 0.0000321 0.0004565 -0.0000388 0.0002021 -0.0000186 0.0004650 0.0000596 0.0007515 0.0001882 0.0019375
-0.0003441 0.0005288 -0.0002359 0.0000394 0.0004493 0.0009155 0.0048906 -0.0031672 0.0005413 0.0009690 0.0000671 0.0005598 -0.0000327 0.0001765 -0.0000736 0.0002949 0.0000424 0.0006345 0.0000791 0.0016545
-0.0003610 0.0003542 -0.0002331 -0.0000981 0.0003993 0.0006668 0.0065063 -0.0168591 0.0004554 0.0006255 0.0001333 0.0005670 0.0000418 0.0000111 -0.0001391 -0.0000835 0.0000173 0.0003490 -0.0000219 0.0011281
-0.0003773 0.0000716 -0.0002401 -0.0002645 0.0004014 0.0006713 0.0013978 -0.0093429 0.0003636 0.0002671 0.0001975 0.0006262 0.0001081 -0.0000451 -0.0001801 -0.0002529 -0.0000120 0.0002347 -0.0000847 0.0009061
-0.0004027 -0.0000082 -0.0002568 -0.0003267 0.0004606 0.0009999 0.0019898 -0.0025286 0.0003231 0.0001480 0.0001846 0.0006269 0.0000748 -0.0000019 -0.0001396 -0.0000742 -0.0000109 0.0002862 -0.0000105 0.0011483
-0.0004065 0.0001746 -0.0002556 -0.0002314 0.0005348 0.0013445 0.0015792 0.0004191 0.0002197 -0.0000500 0.0001248 0.0005526 0.0000207 0.0000676 -0.0000889 0.0001453 -0.0000032 0.0003686 0.0000557 0.0014313
-0.0003174 0.0005945 -0.0002340 -0.0000330 0.0006354 0.0017642 -0.0050213 -0.0059641 0.0001342 -0.0002530 0.0000807 0.0005366 -0.0000311 0.0001370 -0.0000828 0.0002294 -0.0000180 0.0003932 0.0000183 0.0014645
-0.0002405 0.0008698 -0.0002321 0.0000707 0.0006694 0.0020219 -0.0054512 -0.0096368 0.0001041 -0.0003121 0.0000744 0.0006143 -0.0000512 0.0002070 -0.0000979 0.0002818 -0.0000471 0.0003901 -0.0000364 0.0014605
-0.0002376 0.0010095 -0.0002554 0.0000909 0.0006892 0.0022614 0.0020188 0.0003447 0.0000522 -0.0003345 0.0000565 0.0007051 -0.0000643 0.0002931 -0.0001172 0.0003701 -0.0000736 0.0004295 -0.0000757 0.0014559
-0.0002497 0.0011285 -0.0002844 0.0001194 0.0006648 0.0024362 -0.0063366 0.0121709 -0.0000136 -0.0002846 0.0000227 0.0007810 -0.0001024 0.0004022 -0.0001644 0.0003845 -0.0001260 0.0003966 -0.0001856 0.0013406
-0.0002934 0.0011086 -0.0003019 0.0001141 0.0005477 0.0022930 -0.0099148 0.0154169 -0.0000662 -0.0002845 -0.0000319 0.0006814 -0.0001824 0.0003439 -0.0001825 0.0002745 -0.0001533 0.0001789 -0.0002519 0.0011329
-0.0003514 0.0007930 -0.0003038 -0.0000292 0.0004429 0.0019158 0.0080809 -0.0078489 -0.0000629 -0.0003781 -0.0000331 0.0005464 -0.0001584 0.0001603 -0.0001610 0.0000861 -0.0001644 -0.0001650 -0.0002645 0.0006969
-0.0003684 0.0003169 -0.0003026 -0.0002510 0.0003759 0.0015230 -0.0015435 -0.0008571 -0.0000192 -0.0003843 0.0000116 0.0005575 -0.0000738 0.0001410 -0.0001522 -0.0000005 -0.0001866 -0.0003316 -0.0003027 0.0004361
-0.0003612 0.0001142 -0.0002995 -0.0003444 0.0003371 0.0013212 -0.0035564 -0.0003075 -0.0000087 -0.0002983 0.0000151 0.0005860 -0.0000967 0.0001848 -0.0001456 0.0000551 -0.0001900 -0.0002712 -0.0002983 0.0005190
-0.0003518 0.0000897 -0.0002977 -0.0003181 0.0003038 0.0012627 0.0187923 -0.0348501 -0.0000070 -0.0001726 0.0000120 0.0006395 -0.0001195 0.0002385 -0.0001425 0.0001335 -0.0001885 -0.0001644 -0.0002782 0.0006573
-0.0003392 0.0001826 -0.0002931 -0.0002500 0.0002947 0.0013327 0.0058689 -0.0054991 -0.0000284 -0.0000999 -0.0000005 0.0006930 -0.0001352 0.0003497 -0.0001392 0.0002495 -0.0001672 -0.0000050 -0.0002469 0.0008016
-0.0002904 0.0006015 -0.0002811 -0.0000781 0.0003617 0.0016971 0.0014296 0.0045569 -0.0000950 -0.0001737 -0.0000112 0.0007418 -0.0001665 0.0005393 -0.0001337 0.0003811 -0.0001338 0.0001964 -0.0002146 0.0009737
-0.0001907 0.0012670 -0.0002430 0.0002254 0.0005209 0.0023640 0.0024010 -0.0019099 -0.0001874 -0.0003535 -0.0000293 0.0007887 -0.0001800 0.0006769 -0.0001292 0.0005296 -0.0001146 0.0003733 -0.0001970 0.0011402
