-0.0000000 -0.0000000 -0.0000000 -0.0000000 -0.0000000 -0.0000000 -0.0000000 -0.0000000 -0.0000000 -0.0000000 -0.0000000 -0.0000000 -0.0000000 -0.0000000 -0.0000000 -0.0000000 -0.0000000 -0.0000000 -0.0000000 -0.0000000
-0.0000000 -0.0000000 -0.0000000 -0.0000000 -0.0000000 -0.0000000 -0.0000000 -0.0000000 -0.0000000 -0.0000000 -0.0000000 -0.0000000 -0.0000000 -0.0000000 -0.0000000 -0.0000000 -0.0000000 -0.0000000 -0.0000000 -0.0000000
0.0046596 -0.0121069 0.0000192 0.0000649 0.0000171 0.0000850 -0.0000037 -0.0000112 -0.0000094 -0.0000104 -0.0000013 0.0000047 0.0000107 -0.0000086 -0.0000051 -0.0000383 -0.0000139 -0.0000810 -0.0000118 -0.0000420
0.0061940 -0.0006623 0.0000306 -0.0000179 -0.0000353 -0.0000248 -0.0000124 -0.0000747 -0.0000141 -0.0000768 -0.0000108 -0.0000614 0.0000085 -0.0000853 -0.0000055 -0.0003189 -0.0000377 -0.0004516 -0.0000328 -0.0001695
0.0015405 0.0072256 0.0000062 -0.0001923 -0.0000390 -0.0001734 -0.0000076 -0.0001399 0.0000066 -0.0001359 -0.0000189 -0.0001225 -0.0000058 -0.0001335 -0.0000147 -0.0003052 -0.0000314 -0.0003783 -0.0000667 -0.0001047
-0.0139794 0.0115741 -0.0000143 -0.0001687 0.0000043 -0.0001724 0.0000033 -0.0000670 0.0000179 -0.0000994 -0.0000200 -0.0001271 -0.0000085 -0.0001333 -0.0000026 -0.0002256 -0.0000032 -0.0002617 -0.0000498 -0.0000838
-0.0111871 0.0080525 -0.0000102 -0.0001569 0.0000607 -0.0000825 0.0000162 0.0000178 0.0000017 -0.0000610 -0.0000221 -0.0001028 -0.0000196 -0.0000996 0.0000100 -0.0000877 -0.0000008 -0.0001405 0.0000039 -0.0000727
-0.0008523 -0.0025615 -0.0000176 -0.0001008 0.0000989 0.0000501 0.0000212 0.0000745 -0.0000194 -0.0000057 -0.0000134 -0.0000201 0.0000013 -0.0000123 0.0000476 0.0001767 0.0000064 0.0000220 0.0000246 -0.0000007
0.0151874 -0.0258974 0.0000115 0.0001057 0.0000802 0.0001719 0.0000106 0.0000524 -0.0000315 0.0000618 0.0000136 0.0001514 0.0000650 0.0001447 0.0001010 0.0004541 0.0000126 0.0000989 0.0000280 -0.0000210
0.0112342 -0.0268112 0.0000697 0.0002207 0.0000365 0.0001053 -0.0000143 -0.0001127 -0.0000349 0.0000048 0.0000726 0.0003681 0.0001355 0.0002763 0.0001517 0.0003441 0.0000007 -0.0002055 0.0000102 -0.0000774
-0.0028723 -0.0035647 0.0000838 0.0001167 0.0000389 -0.0000126 -0.0000243 -0.0002664 -0.0000228 -0.0001773 0.0001207 0.0004530 0.0001661 0.0002902 0.0001581 0.0001127 0.0000078 -0.0004219 -0.0000134 -0.0000860
-0.0002284 0.0043969 0.0000365 -0.0000666 0.0001128 0.0001251 -0.0000057 -0.0001675 -0.0000251 -0.0002386 0.0001379 0.0004645 0.0001498 0.0003434 0.0001348 0.0001771 0.0000366 -0.0002160 -0.0000244 -0.0000514
0.0022048 0.0044442 0.0000055 -0.0000723 0.0001129 0.0001459 0.0000077 -0.0000437 -0.0000134 -0.0001062 0.0001332 0.0004708 0.0001371 0.0004165 0.0001414 0.0003393 0.0000401 -0.0000642 -0.0000192 -0.0000108
0.0004946 0.0073851 0.0000066 0.0001571 0.0000525 -0.0000126 0.0000015 0.0000134 -0.0000095 0.0000531 0.0001137 0.0004609 0.0000964 0.0003240 0.0000936 0.0004464 0.0000496 0.0002297 0.0000419 0.0000929
0.0013997 -0.0055484 -0.0000160 0.0002336 0.0000084 0.0000104 -0.0000004 0.0001612 -0.0000366 0.0001502 0.0000830 0.0004179 0.0000681 0.0002818 0.0000300 0.0005124 0.0000576 0.0004980 0.0000727 0.0002103
0.0127285 -0.0397760 -0.0000281 0.0002501 0.0000065 0.0001859 0.0000099 0.0003280 -0.0000349 0.0002064 0.0000285 0.0002813 0.0000638 0.0002715 0.0000067 0.0003208 0.0000260 0.0002433 0.0000153 0.0001357
0.0012669 -0.0248189 -0.0000119 0.0001534 0.0000146 0.0001485 0.0000154 0.0002910 -0.0000222 0.0000863 -0.0000019 0.0001220 0.0000588 0.0001393 0.0000147 -0.0000535 0.0000089 -0.0001906 -0.0000034 -0.0000288
0.0011826 -0.0119032 -0.0000108 -0.0000139 -0.0000211 0.0000484 0.0000069 0.0002069 -0.0000215 -0.0000238 -0.0000144 0.0000309 0.0000413 0.0000638 0.0000243 -0.0000967 0.0000165 -0.0001840 -0.0000328 -0.0000426
0.0026309 0.0038110 -0.0000165 0.0000036 0.0000014 0.0000670 0.0000152 0.0002670 -0.0000193 0.0000014 -0.0000100 0.0000226 0.0000166 0.0000697 0.0000154 0.0000206 0.0000242 -0.0000157 -0.0000640 0.0000319
-0.0100509 0.0244895 -0.0000182 0.0000663 0.0000372 0.0001065 0.0000262 0.0003417 -0.0000304 0.0000773 -0.0000101 0.0000439 0.0000108 0.0000974 0.0000055 0.0001913 0.0000240 0.0001694 -0.0000288 0.0000911
-0.0072119 0.0153756 -0.0000257 0.0001655 0.0000337 0.0002004 0.0000345 0.0004541 -0.0000482 0.0002186 -0.0000253 0.0000958 0.0000159 0.0001525 -0.0000005 0.0004233 0.0000175 0.0003998 -0.0000034 0.0001478
0.0076111 -0.0192403 -0.0000264 0.0002851 0.0000423 0.0003281 0.0000456 0.0005755 -0.0000400 0.0003333 -0.0000341 0.0001651 0.0000315 0.0002111 -0.0000032 0.0006082 0.0000182 0.0006052 -0.0000503 0.0002430
0.0076370 -0.0360548 -0.0000032 0.0004089 0.0000388 0.0004908 0.0000417 0.0006445 -0.0000289 0.0003576 -0.0000332 0.0001876 0.0000471 0.0002161 0.0000065 0.0003530 0.0000127 0.0002844 -0.0000746 0.0001544
0.0006616 -0.0040593 0.0000108 0.0002813 0.0000508 0.0004064 0.0000354 0.0005486 -0.0000231 0.0002504 -0.0000321 0.0001381 0.0000303 0.0001695 0.0000159 0.0000211 0.0000017 -0.0001253 -0.0000796 0.0000184
-0.0028455 0.0133352 -0.0000057 0.0001076 0.0000769 0.0002620 0.0000353 0.0004500 -0.0000072 0.0001907 -0.0000316 0.0001109 0.0000127 0.0001465 0.0000176 0.0000621 0.0000122 -0.0000467 -0.0000698 0.0000413
-0.0028405 0.0199183 -0.0000132 0.0001612 0.0000554 0.0002828 0.0000320 0.0004701 -0.0000102 0.0002409 -0.0000310 0.0001143 -0.0000060 0.0001554 0.0000124 0.0001225 0.0000250 0.0000794 -0.0000278 0.0000482
0.0029210 0.0126093 -0.0000157 0.0002373 0.0000508 0.0002798 0.0000425 0.0005189 -0.0000249 0.0003220 -0.0000411 0.0001464 -0.0000232 0.0001868 -0.0000084 0.0002965 0.0000423 0.0003631 -0.0000004 0.0001178
-0.0061800 0.0185969 -0.0000258 0.0003678 0.0000491 0.0003812 0.0000508 0.0006269 -0.0000227 0.0004501 -0.0000521 0.0002154 -0.0000139 0.0002392 -0.0000180 0.0004997 0.0000695 0.0006768 0.0000019 0.0002147
-0.0094169 0.0188730 -0.0000176 0.0005320 0.0000465 0.0005059 0.0000446 0.0007548 -0.0000131 0.0005671 -0.0000588 0.0002636 0.0000027 0.0002554 -0.0000161 0.0003122 0.0000711 0.0004604 -0.0000287 0.0001629
0.0003756 -0.0022724 0.0000050 0.0004361 0.0000526 0.0003887 0.0000432 0.0006920 0.0000068 0.0004598 -0.0000502 0.0002232 0.0000017 0.0002122 -0.0000129 -0.0000529 0.0000540 0.0000236 -0.0000620 0.0000814
-0.0018823 -0.0084327 0.0000101 0.0002336 0.0000687 0.0001953 0.0000314 0.0005474 0.0000154 0.0003154 -0.0000368 0.0001692 -0.0000063 0.0001875 -0.0000089 -0.0000532 0.0000487 0.0000471 -0.0000272 0.0000846
0.0084358 -0.0259766 0.0000157 0.0002583 0.0000648 0.0001596 0.0000184 0.0005323 0.0000059 0.0003513 -0.0000348 0.0001545 -0.0000159 0.0001984 -0.0000057 0.0000587 0.0000497 0.0001704 0.0000183 0.0000857
-0.0048061 -0.0027167 0.0000177 0.0003432 0.0000491 0.0002464 0.0000380 0.0005863 0.0000043 0.0004090 -0.0000291 0.0001704 -0.0000082 0.0002026 -0.0000085 0.0001831 0.0000518 0.0002990 0.0000080 0.0001358
-0.0095636 0.0032695 0.0000039 0.0004305 0.0000721 0.0003889 0.0000556 0.0006688 0.0000019 0.0005048 -0.0000246 0.0002408 0.0000101 0.0002538 -0.0000098 0.0003953 0.0000531 0.0005262 -0.0000152 0.0002232
-0.0006994 0.0137678 0.0000092 0.0005356 0.0000931 0.0005178 0.0000459 0.0007114 -0.0000090 0.0006032 -0.0000324 0.0003063 0.0000170 0.0003375 -0.0000068 0.0005233 0.0000481 0.0006147 -0.0000321 0.0002395
0.0016617 0.0064174 0.0000348 0.0005250 0.0000666 0.0004992 0.0000343 0.0006166 -0.0000054 0.0005278 -0.0000272 0.0002493 0.0000315 0.0002712 0.0000058 0.0002091 0.0000309 0.0001947 -0.0000628 0.0001589
0.0075989 -0.0136428 0.0000435 0.0003952 0.0000289 0.0003483 0.0000122 0.0003969 0.0000101 0.0003520 -0.0000223 0.0001354 0.0000366 0.0001555 0.0000275 -0.0000722 0.0000170 -0.0001273 -0.0000502 0.0000940
-0.0028082 0.0105478 0.0000441 0.0003898 0.0000270 0.0002732 -0.0000052 0.0002744 -0.0000016 0.0003161 -0.0000243 0.0001039 0.0000174 0.0001546 0.0000269 0.0000075 0.0000203 -0.0000092 -0.0000068 0.0000776
-0.0057649 0.0115806 0.0000471 0.0004548 0.0000238 0.0002772 -0.0000057 0.0002487 -0.0000213 0.0003441 -0.0000223 0.0001046 0.0000199 0.0001524 0.0000198 0.0001014 0.0000311 0.0001382 0.0000016 0.0000996
0.0082019 -0.0045933 0.0000266 0.0004984 0.0000326 0.0003497 -0.0000018 0.0002609 -0.0000363 0.0003760 -0.0000266 0.0001410 0.0000269 0.0001719 0.0000123 0.0003003 0.0000424 0.0004126 0.0000217 0.0001386
0.0162896 -0.0208805 0.0000166 0.0005599 0.0000727 0.0004394 0.0000056 0.0003159 -0.0000484 0.0004259 -0.0000317 0.0002182 0.0000218 0.0002494 0.0000015 0.0005217 0.0000455 0.0006839 0.0000104 0.0001933
0.0103277 -0.0108088 0.0000148 0.0006481 0.0000704 0.0005310 0.0000014 0.0003826 -0.0000473 0.0004271 -0.0000234 0.0002513 0.0000325 0.0002622 0.0000085 0.0003038 0.0000454 0.0004105 -0.0000314 0.0001109
0.0058979 -0.0055340 0.0000120 0.0005091 0.0000499 0.0004567 -0.0000138 0.0003027 -0.0000442 0.0002915 -0.0000199 0.0001711 0.0000313 0.0001741 0.0000159 -0.0000376 0.0000364 -0.0000003 -0.0000453 -0.0000440
-0.0030714 -0.0106297 0.0000070 0.0003210 0.0000294 0.0003169 -0.0000156 0.0001763 -0.0000393 0.0001579 -0.0000197 0.0001116 0.0000069 0.0001407 0.0000123 -0.0000045 0.0000366 0.0000607 -0.0000455 -0.0000720
-0.0079179 0.0019481 -0.0000007 0.0003089 0.0000114 0.0003345 -0.0000101 0.0001647 -0.0000417 0.0001252 -0.0000116 0.0001204 0.0000077 0.0001479 0.0000121 0.0000912 0.0000431 0.0001859 0.0000019 -0.0000988
0.0034125 -0.0155767 -0.0000107 0.0003147 0.0000471 0.0003759 -0.0000097 0.0001863 -0.0000575 0.0001506 -0.0000146 0.0001491 0.0000134 0.0001831 0.0000041 0.0002829 0.0000440 0.0004046 0.0000218 -0.0000535
0.0111115 -0.0264603 -0.0000275 0.0003994 0.0000651 0.0004651 -0.0000028 0.0002506 -0.0000568 0.0002265 -0.0000187 0.0002104 0.0000132 0.0002546 -0.0000114 0.0005275 0.0000501 0.0006718 -0.0000310 0.0000790
0.0046722 -0.0094234 -0.0000413 0.0005055 0.0000636 0.0006047 0.0000066 0.0003547 -0.0000499 0.0003030 -0.0000184 0.0002880 0.0000302 0.0003021 -0.0000113 0.0005772 0.0000534 0.0007080 -0.0000622 0.0000986
-0.0039932 0.0102204 -0.0000400 0.0004660 0.0000707 0.0005708 -0.0000038 0.0003519 -0.0000513 0.0002347 -0.0000136 0.0002728 0.0000270 0.0002749 -0.0000010 0.0003056 0.0000487 0.0003631 -0.0000988 0.0000272
-0.0030772 0.0128355 -0.0000391 0.0003191 0.0000846 0.0004372 -0.0000082 0.0002633 -0.0000433 0.0001113 -0.0000023 0.0002144 0.0000124 0.0002350 0.0000038 0.0001739 0.0000416 0.0001937 -0.0001488 0.0000430
0.0045976 -0.0042959 -0.0000402 0.0002864 0.0000933 0.0004604 -0.0000007 0.0002583 -0.0000370 0.0001010 0.0000017 0.0002263 0.0000121 0.0002241 0.0000077 0.0002546 0.0000438 0.0002840 -0.0001171 0.0000218
0.0049974 -0.0076565 -0.0000372 0.0003155 0.0000990 0.0005183 0.0000121 0.0002865 -0.0000546 0.0001429 -0.0000064 0.0002471 0.0000030 0.0002439 0.0000077 0.0003518 0.0000394 0.0003677 -0.0000612 -0.0000026
0.0097167 -0.0199920 -0.0000433 0.0004123 0.0001148 0.0005893 0.0000330 0.0003360 -0.0000539 0.0002371 -0.0000143 0.0002948 0.0000204 0.0003021 0.0000095 0.0005693 0.0000387 0.0005811 -0.0000967 0.0001178
-0.0026704 0.0133778 -0.0000356 0.0005398 0.0001140 0.0007127 0.0000344 0.0003889 -0.0000375 0.0003444 -0.0000167 0.0003682 0.0000445 0.0003697 0.0000234 0.0006532 0.0000430 0.0005875 -0.0001186 0.0001696
-0.0118767 0.0194218 -0.0000016 0.0005207 0.0001299 0.0006328 0.0000123 0.0002595 -0.0000196 0.0003147 -0.0000231 0.0003448 0.0000475 0.0003614 0.0000359 0.0004423 0.0000253 0.0002722 -0.0001037 0.0001471
0.0013161 -0.0296268 0.0000236 0.0004620 0.0001146 0.0005146 -0.0000126 0.0000351 0.0000095 0.0002112 -0.0000180 0.0002916 0.0000524 0.0003219 0.0000517 0.0003446 0.0000326 0.0001684 -0.0000896 0.0002252
-0.0027704 0.0083347 0.0000195 0.0004828 0.0000549 0.0005526 -0.0000373 -0.0000629 0.0000120 0.0002130 -0.0000105 0.0002984 0.0000374 0.0003462 0.0000544 0.0004443 0.0000469 0.0002880 -0.0000571 0.0003229
-0.0097153 0.0222887 0.0000190 0.0005321 0.0000412 0.0005392 -0.0000425 -0.0000964 0.0000034 0.0002604 -0.0000135 0.0003078 0.0000151 0.0003794 0.0000391 0.0005441 0.0000378 0.0003864 -0.0000366 0.0003496
-0.0019900 0.0047146 0.0000201 0.0006133 0.0000310 0.0005346 -0.0000331 -0.0000723 -0.0000005 0.0003471 -0.0000172 0.0003452 0.0000176 0.0004125 0.0000313 0.0007301 0.0000356 0.0005913 -0.0000051 0.0003333
0.0062778 -0.0034716 0.0000263 0.0007142 -0.0000300 0.0005831 -0.0000346 -0.0000165 -0.0000153 0.0004210 -0.0000215 0.0003403 0.0000401 0.0003826 0.0000250 0.0004980 0.0000164 0.0003084 -0.0000065 0.0001997
0.0015709 0.0033681 0.0000342 0.0005960 -0.0000827 0.0004356 -0.0000373 -0.0001088 -0.0000012 0.0003098 -0.0000263 0.0002528 0.0000434 0.0003090 0.0000171 0.0001608 -0.0000049 -0.0000770 -0.0000380 0.0000813
0.0040197 -0.0084644 0.0000252 0.0004459 -0.0000856 0.0002727 -0.0000383 -0.0002022 0.0000196 0.0001987 -0.0000311 0.0002109 0.0000339 0.0002748 0.0000207 0.0001808 -0.0000023 -0.0000244 -0.0000457 0.0000718
0.0142944 -0.0286098 0.0000212 0.0004517 -0.0000606 0.0002184 -0.0000503 -0.0001904 0.0000087 0.0002140 -0.0000336 0.0002390 0.0000190 0.0002800 0.0000289 0.0002428 0.0000134 0.0000622 -0.0000658 0.0000676
0.0103928 -0.0167929 0.0000086 0.0004192 -0.0000503 0.0002189 -0.0000539 -0.0001976 -0.0000106 0.0002156 -0.0000222 0.0002716 0.0000075 0.0002882 0.0000269 0.0004175 0.0000221 0.0002379 -0.0000374 0.0002485
-0.0064880 0.0026487 -0.0000122 0.0004358 -0.0000321 0.0003161 -0.0000443 -0.0001322 -0.0000355 0.0002834 -0.0000137 0.0002913 0.0000164 0.0003173 0.0000473 0.0006294 0.0000324 0.0003418 0.0000384 0.0004990
-0.0044135 0.0154159 -0.0000026 0.0003662 -0.0000401 0.0002603 -0.0000341 -0.0001332 -0.0000577 0.0002647 -0.0000188 0.0002067 0.0000381 0.0002773 0.0000609 0.0004120 0.0000264 0.0000277 0.0000680 0.0004089
-0.0041241 0.0144294 0.0000022 0.0002034 -0.0000758 0.0000919 -0.0000230 -0.0002781 -0.0000484 0.0001206 -0.0000209 0.0001132 0.0000642 0.0001850 0.0000487 0.0001180 0.0000129 -0.0001973 -0.0000014 0.0001963
-0.0043166 0.0070553 -0.0000045 0.0001520 -0.0000910 0.0000541 -0.0000222 -0.0003477 -0.0000331 0.0000523 -0.0000241 0.0001190 0.0000628 0.0001598 0.0000308 0.0001125 0.0000236 -0.0000787 -0.0000719 0.0001073
-0.0001514 0.0120129 -0.0000086 0.0001465 -0.0000730 0.0000704 -0.0000219 -0.0003223 -0.0000345 0.0000423 -0.0000317 0.0001341 0.0000348 0.0001774 0.0000133 0.0001566 0.0000322 0.0000703 -0.0001117 0.0001252
0.0027259 0.0009965 -0.0000208 0.0001926 -0.0000577 0.0000403 -0.0000199 -0.0002715 -0.0000342 0.0000739 -0.0000370 0.0001431 0.0000118 0.0001938 0.0000021 0.0002904 0.0000442 0.0002996 -0.0001102 0.0001921
0.0083941 -0.0066116 -0.0000209 0.0002975 -0.0000877 0.0000796 -0.0000217 -0.0001979 -0.0000429 0.0001632 -0.0000400 0.0001688 -0.0000072 0.0002114 -0.0000085 0.0001930 0.0000441 0.0002119 -0.0000556 0.0001247
0.0103969 -0.0102661 -0.0000123 0.0002176 -0.0001238 0.0000064 -0.0000158 -0.0002825 -0.0000484 0.0000982 -0.0000391 0.0001083 -0.0000101 0.0001634 -0.0000160 -0.0000921 0.0000165 -0.0001173 -0.0000407 0.0000305
0.0046478 -0.0083978 -0.0000094 0.0000570 -0.0001373 -0.0001658 -0.0000109 -0.0004204 -0.0000429 -0.0000429 -0.0000388 0.0000281 0.0000057 0.0000707 -0.0000246 -0.0001711 0.0000116 -0.0001510 -0.0000249 0.0000139
-0.0037997 0.0102634 -0.0000123 0.0000309 -0.0001454 -0.0002187 -0.0000133 -0.0004339 -0.0000312 -0.0000573 -0.0000506 0.0000217 0.0000127 0.0000330 -0.0000335 -0.0001161 0.0000241 -0.0000160 -0.0000321 0.0000559
0.0022031 -0.0016930 -0.0000217 0.0000768 -0.0001537 -0.0002585 -0.0000128 -0.0004110 -0.0000173 -0.0000520 -0.0000562 0.0000409 -0.0000017 0.0000477 -0.0000465 -0.0000154 0.0000353 0.0001829 -0.0000836 0.0001819
0.0111620 -0.0275422 -0.0000411 0.0001035 -0.0001073 -0.0002400 -0.0000039 -0.0003026 -0.0000153 -0.0000409 -0.0000395 0.0001140 -0.0000161 0.0001250 -0.0000482 0.0001836 0.0000492 0.0004370 -0.0000821 0.0002916
0.0038217 -0.0265234 -0.0000487 0.0001316 -0.0000751 -0.0000587 -0.0000003 -0.0001816 -0.0000215 0.0000155 -0.0000243 0.0001780 -0.0000204 0.0001755 -0.0000252 0.0001393 0.0000460 0.0002473 -0.0000410 0.0001570
-0.0155532 0.0018952 -0.0000487 0.0000286 -0.0000830 -0.0000537 0.0000089 -0.0002528 -0.0000222 -0.0000438 -0.0000129 0.0001184 -0.0000099 0.0000942 -0.0000232 -0.0001312 0.0000193 -0.0001396 -0.0000301 -0.0000768
-0.0153170 0.0098961 -0.0000629 -0.0001527 -0.0000771 -0.0002229 0.0000232 -0.0003796 -0.0000278 -0.0001593 -0.0000029 0.0000587 0.0000108 0.0000210 -0.0000374 -0.0002256 0.0000077 -0.0001616 -0.0000607 -0.0001261
0.0008140 0.0045064 -0.0000733 -0.0002021 -0.0000772 -0.0002668 0.0000290 -0.0003994 -0.0000347 -0.0001777 -0.0000062 0.0000628 0.0000147 0.0000237 -0.0000450 -0.0001985 0.0000117 -0.0000364 -0.0000694 -0.0000491
-0.0003986 0.0118449 -0.0000784 -0.0001974 -0.0000705 -0.0002437 0.0000446 -0.0003849 -0.0000245 -0.0001953 -0.0000054 0.0000755 0.0000209 0.0000346 -0.0000388 -0.0000816 0.0000160 0.0001009 -0.0001720 -0.0001297
-0.0059384 0.0126324 -0.0000842 -0.0001425 -0.0000597 -0.0002177 0.0000430 -0.0003308 -0.0000138 -0.0001636 -0.0000082 0.0001223 0.0000178 0.0000582 -0.0000282 0.0000671 0.0000238 0.0003047 -0.0002982 -0.0002874
-0.0076836 0.0109178 -0.0000796 -0.0000687 -0.0000637 -0.0002229 0.0000323 -0.0002811 -0.0000116 -0.0001353 -0.0000114 0.0001107 -0.0000005 0.0000358 -0.0000390 -0.0001982 -0.0000043 0.0000746 -0.0002842 -0.0003531
-0.0084909 0.0122109 -0.0000723 -0.0001801 -0.0000988 -0.0003291 0.0000344 -0.0003713 -0.0000016 -0.0002239 -0.0000050 0.0000110 -0.0000019 -0.0000583 -0.0000480 -0.0005794 -0.0000303 -0.0003073 -0.0002226 -0.0003833
0.0049527 -0.0103026 -0.0000815 -0.0003581 -0.0001224 -0.0004403 0.0000394 -0.0004895 -0.0000025 -0.0003120 -0.0000103 -0.0000812 -0.0000063 -0.0001464 -0.0000573 -0.0006219 -0.0000304 -0.0002809 -0.0001512 -0.0003577
0.0204299 -0.0477394 -0.0000982 -0.0003898 -0.0001349 -0.0004912 0.0000655 -0.0004930 -0.0000032 -0.0003118 -0.0000209 -0.0001025 -0.0000145 -0.0001945 -0.0000706 -0.0005519 -0.0000263 -0.0001594 -0.0001415 -0.0002614
0.0027776 -0.0052115 -0.0001024 -0.0004055 -0.0001354 -0.0004741 0.0000888 -0.0004267 0.0000114 -0.0002702 -0.0000264 -0.0000809 -0.0000121 -0.0002017 -0.0000664 -0.0004134 -0.0000123 0.0000095 -0.0001340 -0.0001061
-0.0104466 0.0095950 -0.0000981 -0.0003416 -0.0001039 -0.0004167 0.0000784 -0.0003673 0.0000245 -0.0002101 -0.0000356 -0.0000399 -0.0000094 -0.0001655 -0.0000595 -0.0002367 -0.0000068 0.0002033 -0.0001226 -0.0000033
-0.0094440 0.0029018 -0.0000872 -0.0002802 -0.0000921 -0.0004601 0.0000617 -0.0004090 0.0000424 -0.0002525 -0.0000337 -0.0000675 -0.0000222 -0.0001751 -0.0000571 -0.0004837 -0.0000243 -0.0001017 -0.0001421 -0.0000489
-0.0078819 0.0062899 -0.0000817 -0.0004678 -0.0001013 -0.0006049 0.0000469 -0.0005703 0.0000547 -0.0003813 -0.0000196 -0.0001694 -0.0000243 -0.0002521 -0.0000472 -0.0008155 -0.0000356 -0.0004875 -0.0000862 -0.0001915
-0.0112060 0.0121934 -0.0000918 -0.0006485 -0.0001164 -0.0007388 0.0000384 -0.0007083 0.0000556 -0.0004412 -0.0000121 -0.0002120 -0.0000215 -0.0002913 -0.0000444 -0.0007716 -0.0000352 -0.0004022 -0.0000398 -0.0002398
-0.0087243 0.0093504 -0.0000935 -0.0006543 -0.0001118 -0.0007865 0.0000488 -0.0007347 0.0000653 -0.0004428 -0.0000030 -0.0002023 -0.0000116 -0.0002930 -0.0000597 -0.0006223 -0.0000320 -0.0002245 -0.0000577 -0.0001953
-0.0114084 0.0116217 -0.0000964 -0.0006141 -0.0000847 -0.0007784 0.0000692 -0.0006869 0.0000730 -0.0004094 -0.0000004 -0.0001776 0.0000118 -0.0002836 -0.0000680 -0.0004150 -0.0000182 0.0000198 -0.0000728 -0.0000929
0.0019941 0.0060227 -0.0001027 -0.0004958 -0.0000768 -0.0006967 0.0000797 -0.0005760 0.0000739 -0.0003342 -0.0000138 -0.0001309 0.0000132 -0.0002310 -0.0000685 -0.0002093 -0.0000083 0.0002517 -0.0001046 0.0000362
0.0114704 -0.0067808 -0.0000961 -0.0003575 -0.0001078 -0.0005731 0.0000820 -0.0004697 0.0000800 -0.0002553 -0.0000145 -0.0000900 0.0000181 -0.0001834 -0.0000590 -0.0003176 -0.0000143 0.0000567 -0.0001541 0.0000369
0.0063355 -0.0073299 -0.0000808 -0.0004564 -0.0001106 -0.0006293 0.0000789 -0.0005385 0.0000978 -0.0003518 -0.0000120 -0.0001430 0.0000240 -0.0002344 -0.0000360 -0.0006834 -0.0000288 -0.0003669 -0.0001242 -0.0000796
-0.0108440 0.0049453 -0.0000738 -0.0006293 -0.0001042 -0.0007867 0.0000827 -0.0006939 0.0001148 -0.0004959 -0.0000179 -0.0002298 0.0000044 -0.0003049 -0.0000308 -0.0007296 -0.0000388 -0.0003920 -0.0000926 -0.0000751
-0.0132259 0.0038963 -0.0000789 -0.0005901 -0.0001142 -0.0008260 0.0000879 -0.0007343 0.0001273 -0.0004896 -0.0000111 -0.0002398 0.0000126 -0.0003166 -0.0000314 -0.0005676 -0.0000347 -0.0002368 -0.0000707 -0.0000146
0.0024209 0.0013937 -0.0000818 -0.0004935 -0.0001016 -0.0007598 0.0000874 -0.0007054 0.0001424 -0.0004483 -0.0000013 -0.0001957 0.0000366 -0.0002928 -0.0000311 -0.0003818 -0.0000243 -0.0000411 0.0000020 0.0000448
0.0002712 0.0060091 -0.0000752 -0.0003539 -0.0000988 -0.0006652 0.0000878 -0.0006481 0.0001577 -0.0003532 -0.0000140 -0.0001165 0.0000393 -0.0002098 -0.0000468 -0.0001412 -0.0000185 0.0001949 -0.0000081 0.0001792
-0.0080723 0.0013778 -0.0000600 -0.0002043 -0.0001376 -0.0005970 0.0000830 -0.0005877 0.0001704 -0.0002433 -0.0000261 -0.0000420 0.0000478 -0.0001198 -0.0000351 0.0000206 -0.0000145 0.0003468 -0.0000370 0.0002805
-0.0002432 -0.0087447 -0.0000449 -0.0001661 -0.0001547 -0.0006141 0.0000743 -0.0006038 0.0001839 -0.0002822 -0.0000199 -0.0000597 0.0000570 -0.0001402 0.0000018 -0.0002837 -0.0000304 -0.0000477 -0.0000251 0.0002088
-0.0016673 -0.0033976 -0.0000356 -0.0002986 -0.0001612 -0.0007174 0.0000710 -0.0007228 0.0002091 -0.0004057 -0.0000111 -0.0001354 0.0000269 -0.0001904 0.0000113 -0.0005764 -0.0000496 -0.0004362 -0.0000302 0.0001448
0.0025103 -0.0006897 -0.0000302 -0.0003761 -0.0001881 -0.0007741 0.0000747 -0.0007893 0.0002343 -0.0004229 0.0000019 -0.0001629 0.0000155 -0.0002094 0.0000084 -0.0005281 -0.0000458 -0.0003729 0.0000127 0.0001226
0.0025893 0.0002603 -0.0000361 -0.0003270 -0.0001863 -0.0007747 0.0000808 -0.0007717 0.0002436 -0.0003856 0.0000097 -0.0001453 0.0000282 -0.0002091 0.0000007 -0.0004281 -0.0000437 -0.0002574 0.0000328 0.0001009
-0.0002129 -0.0018691 -0.0000417 -0.0002685 -0.0001622 -0.0007140 0.0000957 -0.0006886 0.0002434 -0.0003283 0.0000117 -0.0001023 0.0000327 -0.0001804 -0.0000263 -0.0001941 -0.0000420 -0.0000049 -0.0000053 0.0001779
-0.0017362 0.0007835 -0.0000436 -0.0001624 -0.0001265 -0.0006161 0.0001096 -0.0005579 0.0002418 -0.0002496 0.0000057 -0.0000486 0.0000544 -0.0001549 -0.0000293 -0.0001608 -0.0000353 0.0000109 -0.0000281 0.0001398
0.0088384 -0.0061357 -0.0000278 -0.0002082 -0.0001119 -0.0006631 0.0001106 -0.0005800 0.0002430 -0.0003251 0.0000031 -0.0000847 0.0000626 -0.0001808 -0.0000091 -0.0004510 -0.0000488 -0.0003679 -0.0000794 0.0000493
0.0143580 -0.0166275 -0.0000108 -0.0003445 -0.0001020 -0.0007494 0.0001119 -0.0006958 0.0002545 -0.0004647 0.0000137 -0.0001716 0.0000641 -0.0002526 0.0000003 -0.0005871 -0.0000576 -0.0005411 -0.0001312 0.0000635
-0.0000713 0.0025278 -0.0000190 -0.0003364 -0.0001040 -0.0006626 0.0001224 -0.0006964 0.0002705 -0.0004805 0.0000213 -0.0001942 0.0000618 -0.0002740 0.0000054 -0.0004830 -0.0000499 -0.0004109 -0.0001129 0.0000429
-0.0022429 -0.0014155 -0.0000198 -0.0002703 -0.0001105 -0.0005338 0.0001323 -0.0006646 0.0002749 -0.0004408 0.0000201 -0.0001723 0.0000485 -0.0002447 -0.0000074 -0.0003125 -0.0000408 -0.0002106 -0.0000843 0.0000658
-0.0084514 0.0045753 -0.0000283 -0.0001694 -0.0000877 -0.0004289 0.0001401 -0.0006020 0.0002647 -0.0003687 0.0000179 -0.0001189 0.0000559 -0.0001977 -0.0000256 -0.0000547 -0.0000314 0.0001069 -0.0001100 0.0001788
-0.0058631 0.0136751 -0.0000244 -0.0000384 -0.0000759 -0.0003006 0.0001433 -0.0004835 0.0002546 -0.0002840 0.0000186 -0.0000678 0.0000710 -0.0001550 -0.0000307 -0.0001280 -0.0000384 -0.0000030 -0.0001103 0.0001366
0.0037417 -0.0029786 0.0000029 -0.0001199 -0.0000702 -0.0003250 0.0001500 -0.0005222 0.0002548 -0.0003991 0.0000173 -0.0001219 0.0000744 -0.0001999 -0.0000247 -0.0005075 -0.0000545 -0.0004576 -0.0001167 0.0000037
0.0090739 -0.0274341 0.0000013 -0.0003116 -0.0000596 -0.0004550 0.0001606 -0.0006597 0.0002593 -0.0006115 0.0000234 -0.0002328 0.0000739 -0.0002969 -0.0000144 -0.0006106 -0.0000492 -0.0005283 -0.0001447 -0.0000283
0.0156904 -0.0325539 -0.0000150 -0.0003281 -0.0000412 -0.0004670 0.0001695 -0.0006606 0.0002593 -0.0006656 0.0000322 -0.0002526 0.0000622 -0.0003016 -0.0000166 -0.0004463 -0.0000357 -0.0003396 -0.0001432 -0.0000351
0.0165890 -0.0328800 -0.0000244 -0.0002676 -0.0000255 -0.0003803 0.0001815 -0.0005716 0.0002546 -0.0006300 0.0000354 -0.0002183 0.0000423 -0.0002464 -0.0000247 -0.0002306 -0.0000300 -0.0001067 -0.0001458 -0.0000393
0.0110428 -0.0267842 -0.0000393 -0.0001542 0.0000127 -0.0002562 0.0001901 -0.0004495 0.0002410 -0.0005299 0.0000382 -0.0001556 0.0000404 -0.0002106 -0.0000255 0.0000228 -0.0000150 0.0002030 -0.0000941 -0.0000289
0.0044396 -0.0130041 -0.0000449 0.0000043 0.0000291 -0.0000832 0.0001901 -0.0003179 0.0002207 -0.0004104 0.0000333 -0.0000672 0.0000467 -0.0001634 -0.0000280 0.0001163 -0.0000086 0.0002955 -0.0000638 -0.0000367
-0.0091272 0.0091497 -0.0000207 -0.0000040 0.0000045 -0.0000282 0.0001880 -0.0003393 0.0002242 -0.0004586 0.0000292 -0.0001028 0.0000587 -0.0001993 -0.0000300 -0.0002470 -0.0000430 -0.0001837 -0.0001030 -0.0001346
-0.0089721 0.0092131 0.0000012 -0.0001568 0.0000088 -0.0001687 0.0001868 -0.0005069 0.0002358 -0.0006187 0.0000310 -0.0002180 0.0000815 -0.0003078 -0.0000186 -0.0005477 -0.0000649 -0.0005491 -0.0001196 -0.0002239
0.0095151 -0.0135531 0.0000002 -0.0001798 0.0000010 -0.0001937 0.0001776 -0.0005858 0.0002388 -0.0006466 0.0000269 -0.0002404 0.0000750 -0.0003211 -0.0000103 -0.0004536 -0.0000553 -0.0004284 -0.0001444 -0.0001919
0.0066217 -0.0059844 -0.0000038 -0.0001068 0.0000033 -0.0001305 0.0001691 -0.0005664 0.0002413 -0.0005943 0.0000344 -0.0002140 0.0000656 -0.0002928 -0.0000137 -0.0002777 -0.0000530 -0.0002164 -0.0001693 -0.0001112
-0.0084843 0.0015377 -0.0000120 -0.0000081 0.0000089 -0.0000210 0.0001684 -0.0004906 0.0002322 -0.0004993 0.0000439 -0.0001551 0.0000627 -0.0002269 -0.0000224 0.0000010 -0.0000449 0.0001186 -0.0001451 -0.0000412
-0.0195864 0.0160131 -0.0000188 0.0001483 0.0000158 0.0001211 0.0001778 -0.0003547 0.0002084 -0.0003564 0.0000396 -0.0000603 0.0000509 -0.0001199 -0.0000352 0.0002598 -0.0000329 0.0004279 -0.0001308 0.0000431
-0.0248373 0.0192233 -0.0000292 0.0002915 0.0000309 0.0002355 0.0001866 -0.0002247 0.0001991 -0.0002479 0.0000380 0.0000079 0.0000747 -0.0000818 -0.0000418 0.0001168 -0.0000465 0.0002090 -0.0001593 -0.0000029
-0.0093642 -0.0010821 -0.0000187 0.0001954 0.0000411 0.0001748 0.0001846 -0.0002515 0.0002016 -0.0003298 0.0000408 -0.0000393 0.0000981 -0.0001424 -0.0000348 -0.0002950 -0.0000679 -0.0002865 -0.0001515 -0.0001686
-0.0021662 0.0004880 0.0000009 0.0000063 0.0000544 -0.0000232 0.0001838 -0.0003625 0.0002090 -0.0004566 0.0000332 -0.0000992 0.0000919 -0.0001753 -0.0000344 -0.0003077 -0.0000672 -0.0002675 -0.0001626 -0.0001775
-0.0055261 0.0095505 0.0000037 0.0000503 0.0000313 -0.0000170 0.0001862 -0.0003540 0.0002248 -0.0004404 0.0000321 -0.0000790 0.0000865 -0.0001415 -0.0000306 -0.0001171 -0.0000534 -0.0000431 -0.0001986 -0.0001039
-0.0044978 0.0054808 -0.0000038 0.0001578 0.0000085 0.0000898 0.0001806 -0.0002597 0.0002158 -0.0003553 0.0000396 -0.0000232 0.0000670 -0.0000630 -0.0000303 0.0000840 -0.0000383 0.0002063 -0.0001733 -0.0000429
0.0052599 -0.0154231 -0.0000231 0.0002595 0.0000160 0.0002074 0.0001879 -0.0001238 0.0001904 -0.0002209 0.0000394 0.0000660 0.0000490 0.0000461 -0.0000439 0.0003642 -0.0000383 0.0005359 -0.0001563 0.0000554
0.0113809 -0.0232259 -0.0000263 0.0003949 0.0000152 0.0003966 0.0002005 0.0000276 0.0001760 -0.0000862 0.0000408 0.0001676 0.0000619 0.0001446 -0.0000455 0.0006055 -0.0000354 0.0008092 -0.0001303 0.0001362
0.0016955 -0.0003348 0.0000048 0.0004968 0.0000181 0.0005008 0.0001937 0.0000990 0.0001666 -0.0000628 0.0000443 0.0001923 0.0000889 0.0001478 -0.0000387 0.0003245 -0.0000478 0.0004392 -0.0001078 0.0000375
-0.0005203 -0.0050321 0.0000122 0.0003872 0.0000376 0.0003497 0.0001870 0.0000033 0.0001743 -0.0001734 0.0000405 0.0001357 0.0000908 0.0000855 -0.0000393 -0.0000565 -0.0000690 -0.0000259 -0.0001437 -0.0000531
-0.0102539 0.0096205 -0.0000088 0.0002565 0.0000472 0.0002410 0.0001815 -0.0000556 0.0001831 -0.0002056 0.0000358 0.0001350 0.0000843 0.0000948 -0.0000378 0.0000242 -0.0000634 0.0000799 -0.0001617 -0.0000161
-0.0071430 0.0175023 -0.0000099 0.0002984 0.0000472 0.0003078 0.0001703 0.0000142 0.0001720 -0.0001370 0.0000369 0.0001856 0.0000748 0.0001579 -0.0000323 0.0001844 -0.0000492 0.0002553 -0.0001530 0.0000279
0.0080649 -0.0062966 -0.0000107 0.0003707 0.0000673 0.0003668 0.0001720 0.0001019 0.0001604 -0.0000341 0.0000361 0.0002284 0.0000618 0.0002186 -0.0000431 0.0004175 -0.0000454 0.0005208 -0.0001547 0.0001400
0.0018761 -0.0117775 -0.0000167 0.0005005 0.0000809 0.0004689 0.0001773 0.0002332 0.0001431 0.0001265 0.0000276 0.0002940 0.0000604 0.0002918 -0.0000518 0.0006612 -0.0000465 0.0008073 -0.0001545 0.0002774
-0.0023668 -0.0027193 -0.0000188 0.0006704 0.0000645 0.0006286 0.0001779 0.0003502 0.0001246 0.0002483 0.0000205 0.0003450 0.0000718 0.0003221 -0.0000521 0.0004387 -0.0000558 0.0005086 -0.0001336 0.0001922
0.0010115 -0.0003407 0.0000155 0.0005575 0.0000345 0.0005834 0.0001779 0.0002614 0.0001293 0.0001592 0.0000234 0.0002927 0.0000998 0.0002477 -0.0000451 0.0000290 -0.0000716 0.0000017 -0.0001548 0.0000654
-0.0119585 0.0130841 0.0000318 0.0003632 0.0000198 0.0004169 0.0001701 0.0001295 0.0001392 0.0000586 0.0000146 0.0002509 0.0001015 0.0002169 -0.0000425 0.0000604 -0.0000672 0.0000567 -0.0001783 0.0001130
-0.0077981 0.0120079 0.0000147 0.0003971 0.0000316 0.0003719 0.0001609 0.0001320 0.0001337 0.0001012 -0.0000002 0.0002818 0.0000813 0.0002520 -0.0000468 0.0002186 -0.0000590 0.0002548 -0.0001845 0.0001722
0.0032671 -0.0017427 0.0000167 0.0004507 0.0000081 0.0004114 0.0001550 0.0001778 0.0001261 0.0001644 0.0000002 0.0003203 0.0000735 0.0002948 -0.0000408 0.0004030 -0.0000538 0.0004958 -0.0001728 0.0002307
0.0070876 -0.0053790 0.0000072 0.0005357 0.0000352 0.0004769 0.0001495 0.0002908 0.0001085 0.0002839 0.0000030 0.0003857 0.0000576 0.0003875 -0.0000409 0.0006533 -0.0000478 0.0008032 -0.0001354 0.0002976
0.0053139 -0.0017089 0.0000036 0.0006546 0.0000669 0.0005965 0.0001558 0.0004203 0.0000846 0.0004233 -0.0000028 0.0004734 0.0000463 0.0004863 -0.0000507 0.0007287 -0.0000445 0.0008496 -0.0001150 0.0002855
0.0018727 -0.0033017 0.0000379 0.0006078 0.0000417 0.0005942 0.0001584 0.0003969 0.0000747 0.0003742 0.0000034 0.0004464 0.0000729 0.0004429 -0.0000494 0.0003773 -0.0000595 0.0003953 -0.0001067 0.0001496
0.0013934 -0.0044670 0.0000557 0.0004387 0.0000310 0.0004101 0.0001494 0.0002606 0.0000745 0.0002294 0.0000044 0.0003595 0.0000973 0.0003419 -0.0000425 0.0001430 -0.0000690 0.0001324 -0.0001089 0.0000961
0.0006912 -0.0062001 0.0000382 0.0004152 0.0000317 0.0003469 0.0001441 0.0002268 0.0000851 0.0002075 -0.0000056 0.0003566 0.0000806 0.0003417 -0.0000465 0.0002533 -0.0000595 0.0002612 -0.0001252 0.0001550
-0.0113506 0.0091484 0.0000337 0.0004574 0.0000262 0.0003830 0.0001357 0.0002680 0.0000841 0.0002428 -0.0000044 0.0003816 0.0000642 0.0003856 -0.0000481 0.0003942 -0.0000544 0.0004263 -0.0001065 0.0002186
-0.0161309 0.0085707 0.0000224 0.0004961 0.0000162 0.0004916 0.0001248 0.0003329 0.0000546 0.0002774 0.0000031 0.0004447 0.0000544 0.0004646 -0.0000330 0.0007084 -0.0000360 0.0007293 -0.0000755 0.0003792
0.0144318 -0.0645016 0.0000117 0.0005835 0.0000532 0.0007263 0.0001257 0.0004196 0.0000192 0.0003119 0.0000158 0.0005198 0.0000487 0.0005544 -0.0000297 0.0010368 -0.0000222 0.0010215 -0.0000774 0.0005485
0.0055571 -0.0300766 0.0000141 0.0007062 0.0000838 0.0009051 0.0001298 0.0005294 -0.0000071 0.0003659 0.0000192 0.0005533 0.0000618 0.0005745 -0.0000357 0.0008123 -0.0000305 0.0007315 -0.0000661 0.0004487
0.0092677 -0.0126115 0.0000223 0.0005823 0.0000732 0.0007709 0.0001263 0.0004717 -0.0000172 0.0002669 0.0000149 0.0004980 0.0000716 0.0005183 -0.0000382 0.0004023 -0.0000473 0.0002671 -0.0000676 0.0002757
0.0045345 -0.0062765 0.0000194 0.0004047 0.0000709 0.0006191 0.0001293 0.0003563 -0.0000087 0.0001502 0.0000088 0.0004340 0.0000796 0.0004553 -0.0000382 0.0003933 -0.0000541 0.0003027 -0.0001272 0.0002887
-0.0068325 0.0051646 0.0000151 0.0004499 0.0000507 0.0006069 0.0001277 0.0003805 -0.0000047 0.0001644 -0.0000010 0.0004291 0.0000740 0.0004419 -0.0000369 0.0004669 -0.0000423 0.0004181 -0.0001415 0.0003063
-0.0111913 0.0169024 0.0000232 0.0005029 0.0000413 0.0005890 0.0001258 0.0004325 -0.0000171 0.0001952 -0.0000064 0.0004451 0.0000474 0.0004864 -0.0000401 0.0005955 -0.0000313 0.0005942 -0.0001179 0.0003327
-0.0139986 0.0083675 0.0000254 0.0005760 0.0000639 0.0006481 0.0001283 0.0005248 -0.0000271 0.0002745 -0.0000085 0.0004903 0.0000404 0.0005431 -0.0000395 0.0007912 -0.0000276 0.0008290 -0.0001192 0.0004072
0.0024432 -0.0159390 0.0000210 0.0006957 0.0000621 0.0007585 0.0001268 0.0006268 -0.0000439 0.0003813 -0.0000098 0.0005486 0.0000389 0.0005988 -0.0000413 0.0008818 -0.0000281 0.0008959 -0.0000823 0.0003947
-0.0025739 -0.0007824 0.0000341 0.0006722 0.0000529 0.0007334 0.0001244 0.0005885 -0.0000530 0.0003319 -0.0000066 0.0005071 0.0000379 0.0005635 -0.0000419 0.0005915 -0.0000473 0.0005036 -0.0000572 0.0002640
-0.0220442 0.0151207 0.0000440 0.0005190 0.0000419 0.0005820 0.0001228 0.0004545 -0.0000498 0.0002037 -0.0000097 0.0004192 0.0000480 0.0004807 -0.0000403 0.0003739 -0.0000554 0.0002433 -0.0000781 0.0002040
-0.0214837 0.0151364 0.0000376 0.0004900 0.0000312 0.0005651 0.0001200 0.0004149 -0.0000524 0.0001674 -0.0000217 0.0004041 0.0000497 0.0004585 -0.0000368 0.0004391 -0.0000490 0.0003501 -0.0000950 0.0002066
-0.0026145 -0.0071108 0.0000461 0.0005165 0.0000335 0.0006646 0.0001127 0.0004013 -0.0000612 0.0001226 -0.0000243 0.0004055 0.0000296 0.0004816 -0.0000383 0.0005075 -0.0000413 0.0004575 -0.0001151 0.0002390
0.0027711 -0.0162008 0.0000389 0.0005628 0.0000489 0.0007239 0.0001056 0.0004279 -0.0000689 0.0001649 -0.0000236 0.0004289 0.0000097 0.0005321 -0.0000464 0.0006932 -0.0000317 0.0006976 -0.0001004 0.0002933
-0.0052159 0.0070662 0.0000256 0.0006744 0.0000505 0.0007728 0.0001052 0.0005364 -0.0000690 0.0003258 -0.0000282 0.0004798 -0.0000026 0.0005961 -0.0000521 0.0008712 -0.0000266 0.0009246 -0.0000684 0.0003388
-0.0064437 0.0067066 0.0000417 0.0007536 0.0000357 0.0008028 0.0001072 0.0005881 -0.0000674 0.0003761 -0.0000195 0.0004552 0.0000092 0.0005653 -0.0000589 0.0005786 -0.0000460 0.0005657 -0.0000553 0.0002185
0.0071975 -0.0282005 0.0000517 0.0006107 0.0000229 0.0006710 0.0001071 0.0004628 -0.0000636 0.0002518 -0.0000142 0.0003527 0.0000343 0.0004484 -0.0000582 0.0002173 -0.0000631 0.0001432 -0.0000535 0.0000557
0.0080063 -0.0003704 0.0000446 0.0004636 0.0000153 0.0005356 0.0001005 0.0003383 -0.0000633 0.0001753 -0.0000264 0.0002981 0.0000322 0.0004005 -0.0000581 0.0002433 -0.0000540 0.0001943 -0.0000872 0.0000758
0.0069576 0.0050334 0.0000472 0.0004704 0.0000217 0.0004982 0.0000946 0.0003020 -0.0000593 0.0001724 -0.0000300 0.0002867 0.0000244 0.0003973 -0.0000590 0.0003125 -0.0000451 0.0002776 -0.0001382 0.0001367
0.0068413 -0.0071585 0.0000420 0.0005119 0.0000227 0.0004965 0.0000893 0.0002948 -0.0000560 0.0001901 -0.0000318 0.0003011 0.0000145 0.0004176 -0.0000537 0.0004598 -0.0000318 0.0004740 -0.0001364 0.0001820
-0.0032159 -0.0021631 0.0000322 0.0006120 0.0000107 0.0005628 0.0000851 0.0003426 -0.0000665 0.0002699 -0.0000352 0.0003453 -0.0000059 0.0004769 -0.0000583 0.0006413 -0.0000222 0.0006968 -0.0001060 0.0002356
-0.0117610 -0.0047224 0.0000291 0.0007098 0.0000108 0.0006353 0.0000861 0.0003946 -0.0000737 0.0003422 -0.0000311 0.0003708 0.0000033 0.0004889 -0.0000628 0.0004597 -0.0000266 0.0004509 -0.0000786 0.0001598
0.0025268 -0.0060998 0.0000365 0.0005963 0.0000286 0.0005183 0.0000820 0.0002816 -0.0000668 0.0002410 -0.0000254 0.0003001 0.0000226 0.0004044 -0.0000553 0.0001075 -0.0000376 0.0000472 -0.0000591 0.0000033
0.0009630 0.0057715 0.0000495 0.0004257 0.0000183 0.0003725 0.0000808 0.0001018 -0.0000523 0.0001148 -0.0000339 0.0002275 0.0000180 0.0003406 -0.0000565 0.0000817 -0.0000460 0.0000582 -0.0000905 -0.0000071
-0.0010328 -0.0063180 0.0000509 0.0004283 -0.0000022 0.0003516 0.0000816 0.0000359 -0.0000420 0.0001091 -0.0000432 0.0002162 0.0000148 0.0003255 -0.0000533 0.0001537 -0.0000411 0.0001576 -0.0001343 0.0000444
0.0050992 -0.0410461 0.0000519 0.0004468 0.0000005 0.0003661 0.0000786 0.0000166 -0.0000374 0.0001241 -0.0000431 0.0002242 -0.0000025 0.0003427 -0.0000510 0.0002706 -0.0000281 0.0003135 -0.0001475 0.0001249
-0.0011975 -0.0037521 0.0000524 0.0005023 0.0000176 0.0004287 0.0000753 0.0000503 -0.0000379 0.0001818 -0.0000388 0.0002652 -0.0000332 0.0004084 -0.0000552 0.0004535 -0.0000203 0.0005141 -0.0001509 0.0002177
0.0027720 -0.0043996 0.0000495 0.0006039 0.0000112 0.0004999 0.0000742 0.0001032 -0.0000418 0.0002584 -0.0000283 0.0003018 -0.0000272 0.0004473 -0.0000531 0.0003979 -0.0000235 0.0004122 -0.0000773 0.0001275
0.0087325 -0.0183344 0.0000541 0.0005169 0.0000009 0.0004132 0.0000726 0.0000257 -0.0000436 0.0001861 -0.0000239 0.0002431 -0.0000114 0.0003908 -0.0000590 0.0001166 -0.0000431 0.0000759 -0.0000261 -0.0000253
0.0039239 -0.0101557 0.0000492 0.0003692 0.0000350 0.0002444 0.0000733 -0.0001050 -0.0000364 0.0000515 -0.0000269 0.0001695 -0.0000057 0.0003209 -0.0000667 0.0000158 -0.0000523 -0.0000103 -0.0000739 -0.0000305
-0.0043358 -0.0070678 0.0000487 0.0003579 0.0000174 0.0001920 0.0000699 -0.0001888 -0.0000295 0.0000141 -0.0000304 0.0001546 0.0000039 0.0002875 -0.0000576 0.0000578 -0.0000457 0.0000555 -0.0001057 0.0000032
0.0001946 0.0035835 0.0000580 0.0003683 -0.0000218 0.0001364 0.0000590 -0.0002581 -0.0000280 0.0000004 -0.0000329 0.0001532 -0.0000072 0.0002869 -0.0000501 0.0001376 -0.0000457 0.0001438 -0.0001352 0.0000804
-0.0009124 0.0120277 0.0000485 0.0004133 -0.0000108 0.0001498 0.0000609 -0.0002397 -0.0000265 0.0000373 -0.0000329 0.0001898 -0.0000262 0.0003265 -0.0000512 0.0003074 -0.0000514 0.0002763 -0.0001611 0.0002077
0.0051979 -0.0119513 0.0000435 0.0004776 -0.0000100 0.0002475 0.0000692 -0.0001803 -0.0000277 0.0000992 -0.0000279 0.0002219 -0.0000270 0.0003406 -0.0000414 0.0001813 -0.0000594 0.0000371 -0.0001146 0.0001855
0.0105023 -0.0224357 0.0000584 0.0003636 -0.0000326 0.0001440 0.0000637 -0.0002932 -0.0000265 0.0000141 -0.0000282 0.0001239 -0.0000223 0.0002562 -0.0000250 -0.0001593 -0.0000906 -0.0004234 -0.0000586 0.0000235
-0.0059317 0.0087207 0.0000811 0.0002383 -0.0000764 -0.0001579 0.0000525 -0.0005095 -0.0000218 -0.0001497 -0.0000307 0.0000203 -0.0000008 0.0001625 -0.0000161 -0.0002467 -0.0001042 -0.0005196 -0.0000992 0.0000137
-0.0042166 0.0087383 0.0000849 0.0002316 -0.0001214 -0.0002727 0.0000540 -0.0006022 -0.0000204 -0.0002164 -0.0000336 0.0000310 0.0000110 0.0001436 -0.0000163 -0.0001854 -0.0000820 -0.0003934 -0.0001420 0.0000806
0.0046073 0.0001944 0.0000766 0.0002150 -0.0000993 -0.0002514 0.0000624 -0.0006168 -0.0000130 -0.0002121 -0.0000393 0.0000552 -0.0000085 0.0001435 -0.0000193 -0.0000645 -0.0000691 -0.0002287 -0.0001667 0.0001246
0.0079102 -0.0100819 0.0000686 0.0002898 -0.0000843 -0.0001874 0.0000708 -0.0005769 0.0000024 -0.0001489 -0.0000335 0.0001005 -0.0000183 0.0001807 -0.0000104 0.0001113 -0.0000378 0.0000058 -0.0001836 0.0001662
0.0270018 -0.0492753 0.0000615 0.0003665 -0.0000791 -0.0000676 0.0000703 -0.0005177 0.0000052 -0.0000745 -0.0000224 0.0001493 -0.0000224 0.0002274 0.0000068 -0.0000276 -0.0000302 -0.0001535 -0.0001433 0.0000992
0.0163588 -0.0217038 0.0000651 0.0002376 -0.0000604 -0.0001461 0.0000687 -0.0006347 0.0000066 -0.0001632 -0.0000133 0.0000972 -0.0000167 0.0001713 0.0000202 -0.0004343 -0.0000615 -0.0006547 -0.0001007 -0.0000335
0.0020750 -0.0031026 0.0000617 0.0000155 -0.0000718 -0.0003313 0.0000724 -0.0008625 0.0000189 -0.0003383 -0.0000070 0.0000127 0.0000076 0.0000708 0.0000255 -0.0005522 -0.0000774 -0.0008396 -0.0000805 -0.0001059
-0.0114740 0.0120895 0.0000564 -0.0000575 -0.0000690 -0.0004116 0.0000734 -0.0009771 0.0000341 -0.0003922 -0.0000082 0.0000033 0.0000280 0.0000196 0.0000241 -0.0004694 -0.0000794 -0.0007654 -0.0000846 -0.0000938
-0.0082457 0.0180509 0.0000534 -0.0000432 -0.0000653 -0.0004040 0.0000774 -0.0010027 0.0000572 -0.0003832 -0.0000126 0.0000154 0.0000181 0.0000049 0.0000261 -0.0003478 -0.0000717 -0.0006102 -0.0001317 -0.0000114
0.0028679 -0.0020705 0.0000514 0.0000221 -0.0000780 -0.0003383 0.0000798 -0.0009597 0.0000688 -0.0003318 -0.0000075 0.0000606 0.0000033 0.0000442 0.0000307 -0.0001629 -0.0000570 -0.0003837 -0.0001245 0.0000627
0.0027143 -0.0150932 0.0000481 0.0001216 -0.0000907 -0.0002786 0.0000802 -0.0008843 0.0000669 -0.0002556 0.0000002 0.0001241 -0.0000062 0.0001012 0.0000305 -0.0000439 -0.0000450 -0.0002362 -0.0001099 0.0001027
-0.0068812 0.0089521 0.0000571 0.0000819 -0.0000651 -0.0003218 0.0000922 -0.0008951 0.0000703 -0.0003092 0.0000205 0.0001032 0.0000085 0.0000753 0.0000394 -0.0003276 -0.0000684 -0.0006124 -0.0001166 0.0000119
-0.0101224 0.0098363 0.0000592 -0.0001242 -0.0000281 -0.0004307 0.0001119 -0.0010112 0.0000835 -0.0004624 0.0000365 0.0000271 0.0000400 -0.0000114 0.0000553 -0.0006133 -0.0000984 -0.0010065 -0.0000972 -0.0001131
0.0084017 -0.0164701 0.0000442 -0.0002293 -0.0000135 -0.0004752 0.0001256 -0.0010941 0.0001030 -0.0005242 0.0000336 0.0000037 0.0000539 -0.0000508 0.0000583 -0.0005592 -0.0001031 -0.0009676 -0.0001107 -0.0001126
0.0169806 -0.0298082 0.0000372 -0.0002125 0.0000057 -0.0004472 0.0001391 -0.0010932 0.0001244 -0.0005259 0.0000334 0.0000115 0.0000653 -0.0000709 0.0000512 -0.0004595 -0.0000911 -0.0008246 -0.0001783 -0.0000241
0.0117411 -0.0360264 0.0000280 -0.0001370 0.0000030 -0.0003789 0.0001493 -0.0010112 0.0001357 -0.0004726 0.0000248 0.0000293 0.0000494 -0.0000532 0.0000374 -0.0002448 -0.0000707 -0.0005224 -0.0002006 0.0000556
-0.0139245 0.0158646 0.0000322 -0.0000329 -0.0000117 -0.0003267 0.0001560 -0.0008633 0.0001284 -0.0003915 0.0000175 0.0000784 0.0000208 0.0000115 0.0000171 -0.0000075 -0.0000637 -0.0001974 -0.0002014 0.0001329
-0.0090688 0.0129992 0.0000238 0.0000652 -0.0000098 -0.0002806 0.0001714 -0.0006740 0.0001169 -0.0003191 0.0000219 0.0001371 0.0000211 0.0000605 0.0000056 -0.0000568 -0.0000644 -0.0002366 -0.0001916 0.0000959
-0.0043733 0.0033984 0.0000219 -0.0000125 -0.0000224 -0.0003253 0.0001876 -0.0006162 0.0001158 -0.0003824 0.0000290 0.0000873 0.0000353 0.0000134 0.0000087 -0.0003926 -0.0000792 -0.0006191 -0.0001451 -0.0000686
-0.0033997 0.0142650 0.0000320 -0.0002076 -0.0000395 -0.0004602 0.0002077 -0.0006950 0.0001230 -0.0005122 0.0000269 0.0000122 0.0000327 -0.0000433 0.0000020 -0.0004501 -0.0000882 -0.0006668 -0.0001481 -0.0000948
0.0065251 -0.0058311 0.0000268 -0.0002264 -0.0000204 -0.0004894 0.0002174 -0.0006884 0.0001346 -0.0005184 0.0000264 0.0000090 0.0000357 -0.0000399 0.0000037 -0.0002876 -0.0000697 -0.0004617 -0.0001860 -0.0000223
0.0191655 -0.0482011 0.0000093 -0.0001571 0.0000089 -0.0004471 0.0002163 -0.0006145 0.0001434 -0.0004770 0.0000274 0.0000349 0.0000352 -0.0000152 0.0000091 -0.0000848 -0.0000538 -0.0002225 -0.0001929 0.0001356
0.0018724 -0.0094178 -0.0000031 -0.0000841 0.0000176 -0.0003539 0.0002185 -0.0005073 0.0001524 -0.0004112 0.0000245 0.0000953 0.0000057 0.0000703 0.0000118 0.0002370 -0.0000378 0.0000963 -0.0001738 0.0003724
-0.0054745 0.0146655 -0.0000006 0.0000203 0.0000364 -0.0002270 0.0002195 -0.0003585 0.0001509 -0.0003126 0.0000319 0.0001634 -0.0000047 0.0001587 0.0000146 0.0004939 -0.0000130 0.0003655 -0.0001298 0.0004948
-0.0036608 0.0147021 -0.0000150 0.0001331 0.0000564 -0.0000706 0.0002276 -0.0001985 0.0001312 -0.0001959 0.0000391 0.0002464 0.0000033 0.0002216 0.0000107 0.0003671 -0.0000030 0.0002249 -0.0000979 0.0003968
-0.0112584 0.0148108 0.0000004 0.0000520 0.0000695 -0.0001409 0.0002313 -0.0002393 0.0001366 -0.0002588 0.0000371 0.0001942 0.0000148 0.0001480 0.0000112 -0.0000957 -0.0000315 -0.0002997 -0.0000828 0.0002662
-0.0186973 0.0166183 0.0000251 -0.0001222 0.0000752 -0.0003913 0.0002299 -0.0003740 0.0001489 -0.0003928 0.0000346 0.0000827 0.0000345 0.0000277 0.0000152 -0.0002643 -0.0000525 -0.0004568 -0.0000884 0.0002402
0.0008957 0.0055326 0.0000224 -0.0001442 0.0000672 -0.0004008 0.0002321 -0.0003346 0.0001559 -0.0003608 0.0000247 0.0000592 0.0000319 0.0000083 0.0000217 -0.0001738 -0.0000439 -0.0003243 -0.0001401 0.0002518
0.0040241 0.0051703 0.0000170 -0.0000611 0.0000492 -0.0003050 0.0002303 -0.0002807 0.0001657 -0.0002790 0.0000189 0.0000598 0.0000105 0.0000297 0.0000236 -0.0000588 -0.0000349 -0.0001605 -0.0002030 0.0002838
-0.0031288 0.0074866 0.0000158 0.0000619 0.0000507 -0.0002160 0.0002235 -0.0002305 0.0001669 -0.0001660 0.0000202 0.0001085 0.0000028 0.0000932 0.0000117 0.0001439 -0.0000201 0.0001619 -0.0001970 0.0003025
-0.0102303 0.0061852 0.0000238 0.0002054 0.0000730 -0.0001109 0.0002220 -0.0001273 0.0001576 -0.0000201 0.0000149 0.0001808 -0.0000029 0.0001787 -0.0000102 0.0003720 -0.0000098 0.0005014 -0.0001655 0.0003820
-0.0010003 -0.0062013 0.0000371 0.0003574 0.0000632 -0.0000478 0.0002256 -0.0000677 0.0001484 0.0000373 0.0000158 0.0002000 0.0000189 0.0001744 -0.0000147 0.0001383 -0.0000245 0.0002142 -0.0001842 0.0003512
0.0021897 -0.0128117 0.0000526 0.0002602 0.0000424 -0.0001715 0.0002205 -0.0001528 0.0001492 -0.0000599 0.0000183 0.0001202 0.0000453 0.0000777 -0.0000001 -0.0002950 -0.0000470 -0.0003041 -0.0001428 0.0001942
0.0094945 -0.0207382 0.0000504 0.0000679 0.0000286 -0.0003393 0.0002119 -0.0002647 0.0001552 -0.0001560 0.0000031 0.0000420 0.0000310 0.0000093 0.0000012 -0.0002893 -0.0000513 -0.0002724 -0.0001205 0.0001970
0.0059235 -0.0117177 0.0000482 0.0000573 -0.0000013 -0.0003824 0.0002021 -0.0002944 0.0001655 -0.0001740 -0.0000095 -0.0000015 0.0000085 -0.0000246 -0.0000021 -0.0001629 -0.0000369 -0.0000819 -0.0001247 0.0002301
0.0026994 -0.0166043 0.0000395 0.0000997 -0.0000141 -0.0004123 0.0001895 -0.0002690 0.0001557 -0.0001476 -0.0000131 0.0000010 -0.0000180 0.0000096 -0.0000108 0.0000552 -0.0000207 0.0002067 -0.0001130 0.0002495
0.0105217 -0.0216949 0.0000271 0.0002190 0.0000095 -0.0003567 0.0001972 -0.0001639 0.0001423 -0.0000357 -0.0000149 0.0000669 -0.0000427 0.0000948 -0.0000247 0.0003147 -0.0000138 0.0005104 -0.0001366 0.0003390
0.0045575 -0.0023092 0.0000331 0.0003770 0.0000334 -0.0001493 0.0002097 -0.0000308 0.0001414 0.0001142 -0.0000095 0.0001490 -0.0000327 0.0001635 -0.0000329 0.0005005 -0.0000086 0.0007370 -0.0001063 0.0004084
-0.0033478 0.0092335 0.0000580 0.0004706 0.0000629 -0.0000324 0.0002109 0.0000481 0.0001300 0.0001523 -0.0000059 0.0001588 -0.0000092 0.0001714 -0.0000294 0.0002221 -0.0000242 0.0003897 -0.0001027 0.0002612
-0.0098237 0.0166691 0.0000725 0.0003081 0.0000516 -0.0001482 0.0002153 -0.0000054 0.0001397 0.0000151 -0.0000022 0.0000884 -0.0000046 0.0001128 -0.0000231 -0.0001258 -0.0000387 -0.0000366 -0.0001736 0.0001296
-0.0091325 0.0112500 0.0000530 0.0001472 0.0000371 -0.0002440 0.0002155 -0.0000468 0.0001515 -0.0000600 -0.0000007 0.0000619 -0.0000105 0.0000945 -0.0000207 -0.0000276 -0.0000226 0.0000877 -0.0001772 0.0001499
-0.0029826 0.0025215 0.0000371 0.0002053 0.0000713 -0.0002398 0.0002086 0.0000095 0.0001410 -0.0000165 -0.0000016 0.0000822 -0.0000237 0.0001245 -0.0000193 0.0001099 -0.0000085 0.0002705 -0.0001548 0.0001772
-0.0004842 0.0005994 0.0000327 0.0002914 0.0000739 -0.0001641 0.0002131 0.0000685 0.0001314 0.0000466 0.0000001 0.0000951 -0.0000350 0.0001452 -0.0000350 0.0002534 -0.0000104 0.0004907 -0.0001574 0.0002964
-0.0039013 0.0052955 0.0000403 0.0004193 0.0000732 -0.0000831 0.0002128 0.0001310 0.0001104 0.0001330 -0.0000002 0.0001290 -0.0000313 0.0001793 -0.0000515 0.0004170 -0.0000117 0.0006872 -0.0001321 0.0004080
0.0012004 0.0119002 0.0000405 0.0005277 0.0000652 0.0000134 0.0002093 0.0002028 0.0000836 0.0002086 -0.0000013 0.0001795 -0.0000184 0.0002146 -0.0000523 0.0002722 -0.0000254 0.0004322 -0.0000944 0.0003987
0.0056381 0.0020232 0.0000416 0.0004180 0.0000389 -0.0000731 0.0002092 0.0001479 0.0000840 0.0001129 -0.0000058 0.0001266 0.0000015 0.0001458 -0.0000450 -0.0000133 -0.0000379 0.0000694 -0.0001145 0.0003947
-0.0052331 0.0089592 0.0000466 0.0002803 0.0000380 -0.0002460 0.0001969 0.0000359 0.0000971 -0.0000222 -0.0000117 0.0000599 0.0000001 0.0000890 -0.0000429 -0.0000050 -0.0000341 0.0001096 -0.0000937 0.0005041
-0.0080668 0.0085464 0.0000357 0.0003186 0.0000512 -0.0002281 0.0001888 0.0000345 0.0000854 -0.0000333 -0.0000117 0.0000664 -0.0000281 0.0001140 -0.0000464 0.0001194 -0.0000249 0.0002665 -0.0000722 0.0005534
0.0021328 -0.0112313 0.0000303 0.0003583 0.0000561 -0.0001756 0.0001924 0.0000900 0.0000650 -0.0000042 -0.0000053 0.0000984 -0.0000320 0.0001486 -0.0000534 0.0003230 -0.0000022 0.0005638 -0.0001068 0.0004863
0.0067486 -0.0086141 0.0000333 0.0004462 0.0000656 -0.0001103 0.0001958 0.0001772 0.0000542 0.0001038 -0.0000016 0.0001670 -0.0000294 0.0002079 -0.0000650 0.0005680 0.0000129 0.0008725 -0.0000958 0.0004410
0.0096626 -0.0186104 0.0000216 0.0005977 0.0000718 0.0000153 0.0002019 0.0002715 0.0000425 0.0002046 -0.0000096 0.0002282 -0.0000262 0.0002475 -0.0000693 0.0004590 0.0000052 0.0007017 -0.0001224 0.0003037
0.0021256 -0.0131020 0.0000290 0.0004882 0.0000518 -0.0000116 0.0002038 0.0002125 0.0000398 0.0000967 -0.0000116 0.0001595 -0.0000152 0.0001731 -0.0000563 0.0001147 -0.0000027 0.0002820 -0.0001624 0.0001704
0.0038080 -0.0167884 0.0000404 0.0003014 0.0000402 -0.0001456 0.0001903 0.0000702 0.0000509 -0.0000459 -0.0000154 0.0000615 -0.0000204 0.0000811 -0.0000457 0.0000676 -0.0000010 0.0002431 -0.0001757 0.0001572
0.0088459 -0.0237810 0.0000296 0.0003405 0.0000348 -0.0001332 0.0001827 0.0000367 0.0000608 -0.0000492 -0.0000210 0.0000447 -0.0000502 0.0000785 -0.0000514 0.0001759 0.0000036 0.0003851 -0.0002064 0.0001725
0.0056202 -0.0166658 0.0000272 0.0004181 0.0000346 -0.0001329 0.0001676 0.0000159 0.0000550 -0.0000024 -0.0000202 0.0000477 -0.0000626 0.0000920 -0.0000613 0.0003029 0.0000039 0.0005698 -0.0001619 0.0001799
0.0024533 -0.0119175 0.0000241 0.0005446 0.0000275 -0.0000775 0.0001595 0.0000850 0.0000306 0.0001281 -0.0000223 0.0001155 -0.0000601 0.0001604 -0.0000773 0.0005298 0.0000027 0.0008518 -0.0001160 0.0002227
0.0004802 -0.0112175 0.0000229 0.0007007 0.0000358 0.0000918 0.0001795 0.0002531 0.0000274 0.0002626 -0.0000245 0.0002113 -0.0000500 0.0002414 -0.0000967 0.0006112 0.0000024 0.0009014 -0.0001320 0.0002458
-0.0198151 0.0095356 0.0000431 0.0006569 0.0000485 0.0001223 0.0001864 0.0002452 0.0000378 0.0002017 -0.0000191 0.0001914 -0.0000238 0.0001966 -0.0000881 0.0003434 -0.0000024 0.0005581 -0.0001426 0.0001825
0.0015282 -0.0060393 0.0000649 0.0005258 0.0000434 0.0000617 0.0001730 0.0001436 0.0000410 0.0000749 -0.0000187 0.0001330 -0.0000274 0.0001422 -0.0000775 0.0002305 -0.0000049 0.0004418 -0.0001587 0.0002044
0.0002534 0.0079415 0.0000575 0.0005617 0.0000661 0.0000687 0.0001675 0.0001497 0.0000455 0.0000921 -0.0000128 0.0001445 -0.0000434 0.0001794 -0.0000830 0.0003728 -0.0000010 0.0005950 -0.0001838 0.0002614
-0.0206666 0.0291717 0.0000553 0.0006266 0.0000815 0.0001198 0.0001671 0.0001958 0.0000436 0.0001592 -0.0000119 0.0001723 -0.0000508 0.0002086 -0.0000819 0.0004960 0.0000079 0.0007405 -0.0001402 0.0002786
-0.0146247 0.0163487 0.0000497 0.0006957 0.0000749 0.0001917 0.0001596 0.0002434 0.0000231 0.0002686 -0.0000291 0.0002231 -0.0000618 0.0002482 -0.0000912 0.0006979 0.0000136 0.0009940 -0.0000963 0.0003358
-0.0035417 0.0127766 0.0000433 0.0008237 0.0000681 0.0003240 0.0001638 0.0003421 0.0000203 0.0003893 -0.0000327 0.0002993 -0.0000424 0.0003109 -0.0000998 0.0008906 0.0000143 0.0012041 -0.0001483 0.0004161
-0.0036498 0.0182814 0.0000665 0.0008529 0.0000641 0.0004026 0.0001673 0.0003914 0.0000292 0.0003821 -0.0000301 0.0003037 -0.0000224 0.0003120 -0.0000923 0.0006562 0.0000056 0.0008845 -0.0001761 0.0003617
-0.0085359 0.0186363 0.0000825 0.0007471 0.0000821 0.0002766 0.0001562 0.0003050 0.0000339 0.0002958 -0.0000374 0.0002642 -0.0000376 0.0002815 -0.0000854 0.0004278 -0.0000038 0.0005995 -0.0001778 0.0003102
-0.0044627 0.0007473 0.0000672 0.0007368 0.0000704 0.0002443 0.0001479 0.0002502 0.0000485 0.0002911 -0.0000401 0.0002763 -0.0000465 0.0002851 -0.0000779 0.0005047 0.0000071 0.0006990 -0.0001598 0.0003381
0.0090594 -0.0078387 0.0000694 0.0007841 0.0000622 0.0003022 0.0001413 0.0002472 0.0000523 0.0003460 -0.0000346 0.0003011 -0.0000538 0.0003202 -0.0000771 0.0005811 0.0000143 0.0007694 -0.0000993 0.0003384
-0.0015884 0.0120992 0.0000792 0.0008230 0.0000948 0.0003274 0.0001417 0.0002746 0.0000438 0.0004279 -0.0000293 0.0003675 -0.0000580 0.0004058 -0.0000855 0.0007957 0.0000064 0.0010027 -0.0000830 0.0003912
-0.0062417 0.0101210 0.0000740 0.0009117 0.0001159 0.0004776 0.0001494 0.0003752 0.0000390 0.0005170 -0.0000267 0.0004679 -0.0000378 0.0005049 -0.0000876 0.0009441 0.0000115 0.0011332 -0.0000990 0.0004226
0.0010249 -0.0016681 0.0000866 0.0008728 0.0001118 0.0005592 0.0001533 0.0003763 0.0000359 0.0004697 -0.0000199 0.0004693 -0.0000062 0.0004897 -0.0000834 0.0007232 0.0000062 0.0008266 -0.0001027 0.0003287
-0.0077574 0.0181306 0.0000952 0.0007612 0.0000906 0.0004873 0.0001509 0.0002924 0.0000421 0.0003717 -0.0000150 0.0004316 -0.0000030 0.0004568 -0.0000788 0.0005722 -0.0000022 0.0006465 -0.0001290 0.0003272
-0.0108983 0.0283685 0.0000819 0.0007826 0.0001058 0.0004919 0.0001515 0.0003044 0.0000508 0.0003826 -0.0000138 0.0004504 -0.0000179 0.0004962 -0.0000741 0.0006698 0.0000057 0.0007697 -0.0000889 0.0003576
-0.0090074 0.0139213 0.0000717 0.0008397 0.0001306 0.0005726 0.0001536 0.0003611 0.0000483 0.0004285 -0.0000069 0.0004822 -0.0000242 0.0005365 -0.0000764 0.0007676 0.0000130 0.0008790 -0.0000360 0.0003709
0.0023725 -0.0096773 0.0000616 0.0008932 0.0001409 0.0006502 0.0001543 0.0004320 0.0000434 0.0005025 -0.0000068 0.0005442 -0.0000203 0.0005971 -0.0000910 0.0009773 0.0000158 0.0011243 -0.0000523 0.0004772
0.0033824 -0.0109960 0.0000477 0.0009954 0.0001243 0.0007711 0.0001577 0.0005482 0.0000333 0.0006107 -0.0000094 0.0006096 -0.0000089 0.0006484 -0.0000939 0.0009415 0.0000158 0.0010521 -0.0000639 0.0004633
0.0137557 -0.0129855 0.0000640 0.0009062 0.0001026 0.0007245 0.0001569 0.0005382 0.0000289 0.0005484 -0.0000117 0.0005585 -0.0000018 0.0005871 -0.0000858 0.0005998 0.0000018 0.0006127 -0.0000596 0.0003659
0.0080841 0.0021001 0.0000860 0.0007135 0.0001107 0.0005589 0.0001536 0.0004274 0.0000404 0.0004061 -0.0000115 0.0004640 -0.0000021 0.0004924 -0.0000748 0.0004537 -0.0000077 0.0004668 -0.0000912 0.0003864
-0.0091094 0.0147597 0.0000717 0.0007050 0.0000932 0.0005227 0.0001438 0.0003890 0.0000522 0.0003901 -0.0000179 0.0004237 -0.0000151 0.0004464 -0.0000719 0.0004868 -0.0000001 0.0005575 -0.0000644 0.0003984
-0.0158193 0.0208306 0.0000693 0.0007686 0.0000579 0.0004622 0.0001191 0.0003014 0.0000220 0.0003534 -0.0000272 0.0004169 -0.0000367 0.0004512 -0.0000784 0.0005798 -0.0000022 0.0006673 -0.0000363 0.0003331
-0.0130473 0.0188593 0.0000818 0.0008704 0.0000445 0.0004926 0.0001188 0.0002786 -0.0000122 0.0003173 -0.0000259 0.0004676 -0.0000295 0.0004877 -0.0000973 0.0007344 -0.0000160 0.0008944 -0.0001086 0.0003321
-0.0061869 0.0122778 0.0000853 0.0009790 0.0000567 0.0006188 0.0001504 0.0004629 0.0000005 0.0004125 -0.0000262 0.0005101 -0.0000124 0.0004863 -0.0001138 0.0005977 -0.0000259 0.0007946 -0.0001341 0.0003009
0.0026391 0.0017270 0.0001003 0.0008446 0.0000553 0.0005209 0.0001700 0.0004896 0.0000285 0.0004006 -0.0000346 0.0004305 -0.0000122 0.0004197 -0.0000979 0.0002597 -0.0000437 0.0003468 -0.0002105 0.0000792
0.0049462 -0.0060046 0.0001005 0.0006280 0.0000200 0.0003963 0.0001765 0.0003675 0.0000503 0.0002643 -0.0000288 0.0003165 -0.0000122 0.0003393 -0.0000712 0.0001278 -0.0000344 0.0001822 -0.0001689 0.0002079
0.0064616 -0.0047035 0.0000900 0.0005889 0.0000204 0.0003918 0.0001703 0.0003356 0.0000537 0.0002213 -0.0000136 0.0002946 -0.0000299 0.0003326 -0.0000696 0.0001768 0.0000005 0.0003215 -0.0000690 0.0004153
-0.0034100 0.0095629 0.0000770 0.0006039 0.0000703 0.0003472 0.0001699 0.0003084 0.0000428 0.0002209 -0.0000087 0.0002967 -0.0000556 0.0003502 -0.0000861 0.0002914 0.0000085 0.0005281 -0.0000907 0.0003497
-0.0130166 0.0217706 0.0000669 0.0006457 0.0000645 0.0003564 0.0001705 0.0003123 0.0000377 0.0002922 -0.0000157 0.0002985 -0.0000571 0.0003409 -0.0000938 0.0004505 0.0000083 0.0007571 -0.0000754 0.0003753
0.0011870 -0.0004364 0.0000745 0.0007368 0.0000424 0.0004275 0.0001654 0.0003708 0.0000349 0.0004039 -0.0000302 0.0003228 -0.0000502 0.0003406 -0.0001004 0.0004704 0.0000059 0.0007822 -0.0000850 0.0003715
0.0023697 -0.0145334 0.0000929 0.0006806 0.0000642 0.0003364 0.0001667 0.0003298 0.0000531 0.0003443 -0.0000307 0.0002670 -0.0000501 0.0003008 -0.0000983 0.0001402 -0.0000115 0.0003975 -0.0001329 0.0003028
-0.0099035 0.0076698 0.0001045 0.0005054 0.0000694 0.0001231 0.0001601 0.0001825 0.0000762 0.0002005 -0.0000249 0.0001628 -0.0000460 0.0002206 -0.0000883 -0.0000717 -0.0000159 0.0001559 -0.0001372 0.0002454
-0.0018974 0.0022088 0.0001100 0.0004385 0.0000487 0.0000633 0.0001511 0.0000976 0.0000763 0.0001489 -0.0000231 0.0001251 -0.0000497 0.0001924 -0.0000790 0.0000073 -0.0000103 0.0002335 -0.0001141 0.0001971
-0.0004762 0.0049506 0.0001144 0.0004471 0.0000526 0.0000834 0.0001581 0.0000608 0.0000776 0.0001500 -0.0000094 0.0001164 -0.0000542 0.0002015 -0.0000794 0.0001252 -0.0000194 0.0003708 -0.0001315 0.0001960
-0.0068511 0.0151775 0.0001133 0.0005168 0.0000731 0.0001008 0.0001666 0.0000590 0.0000758 0.0002099 -0.0000055 0.0001629 -0.0000431 0.0002481 -0.0000881 0.0003612 -0.0000126 0.0006310 -0.0001538 0.0003063
-0.0027925 0.0199774 0.0001159 0.0006439 0.0000570 0.0002107 0.0001647 0.0001025 0.0000731 0.0002893 -0.0000099 0.0002360 -0.0000395 0.0003198 -0.0000851 0.0005581 -0.0000006 0.0008537 -0.0001629 0.0004239
-0.0000871 0.0154732 0.0001262 0.0006939 0.0000790 0.0002620 0.0001638 0.0001053 0.0000789 0.0002816 -0.0000045 0.0002246 -0.0000283 0.0002983 -0.0000764 0.0003048 -0.0000081 0.0005634 -0.0001978 0.0004218
0.0028438 -0.0084616 0.0001348 0.0005549 0.0001026 0.0001781 0.0001620 0.0000109 0.0000881 0.0001554 -0.0000019 0.0001604 -0.0000231 0.0002330 -0.0000651 0.0000557 -0.0000071 0.0002563 -0.0001905 0.0003494
-0.0043896 -0.0028676 0.0001249 0.0004646 0.0000871 0.0001222 0.0001639 -0.0000567 0.0000923 0.0000891 0.0000006 0.0001520 -0.0000398 0.0002460 -0.0000622 0.0001784 0.0000039 0.0003880 -0.0001610 0.0003763
0.0032625 -0.0087130 0.0001199 0.0005044 0.0000891 0.0001117 0.0001676 -0.0000542 0.0000962 0.0001054 0.0000032 0.0001752 -0.0000359 0.0002652 -0.0000679 0.0002942 0.0000064 0.0005282 -0.0001462 0.0004317
0.0086484 -0.0135716 0.0001208 0.0005448 0.0000991 0.0001579 0.0001720 -0.0000251 0.0000970 0.0001383 0.0000034 0.0002170 -0.0000374 0.0003040 -0.0000732 0.0004848 0.0000162 0.0007549 -0.0001171 0.0005074
0.0011140 0.0047858 0.0001137 0.0006225 0.0001073 0.0002686 0.0001812 0.0000523 0.0000941 0.0002083 -0.0000064 0.0002888 -0.0000444 0.0003560 -0.0000795 0.0006813 0.0000229 0.0009695 -0.0001489 0.0006476
-0.0058300 0.0053331 0.0001046 0.0007040 0.0000980 0.0003661 0.0001828 0.0001581 0.0000948 0.0002841 -0.0000139 0.0003478 -0.0000550 0.0003929 -0.0000759 0.0006163 0.0000253 0.0008651 -0.0001814 0.0006826
-0.0062721 -0.0007670 0.0000986 0.0006080 0.0000808 0.0003055 0.0001702 0.0001451 0.0000947 0.0001940 -0.0000123 0.0003100 -0.0000694 0.0003557 -0.0000733 0.0003618 0.0000212 0.0005449 -0.0001724 0.0006169
-0.0050784 0.0077098 0.0000835 0.0004577 0.0000811 0.0001697 0.0001679 0.0000638 0.0000963 0.0000481 -0.0000110 0.0002644 -0.0000941 0.0003315 -0.0000768 0.0003189 0.0000125 0.0004875 -0.0001693 0.0005962
-0.0038489 0.0076715 0.0000837 0.0004501 0.0000836 0.0000982 0.0001752 0.0000738 0.0000935 0.0000494 -0.0000079 0.0002609 -0.0000980 0.0003294 -0.0000801 0.0003853 0.0000152 0.0005784 -0.0001023 0.0005295
-0.0011200 0.0040039 0.0000930 0.0004944 0.0000721 0.0000651 0.0001783 0.0001217 0.0000803 0.0001004 -0.0000190 0.0002626 -0.0000867 0.0003223 -0.0000985 0.0004875 0.0000125 0.0007234 -0.0000789 0.0005560
-0.0039839 0.0142447 0.0000929 0.0005860 0.0000597 0.0000914 0.0001794 0.0001782 0.0000807 0.0001814 -0.0000413 0.0003111 -0.0000932 0.0003798 -0.0001156 0.0006791 0.0000040 0.0009529 -0.0001361 0.0007020
-0.0076251 0.0119113 0.0000932 0.0007068 0.0000530 0.0001681 0.0001748 0.0002448 0.0000874 0.0002789 -0.0000492 0.0003565 -0.0000890 0.0004189 -0.0001051 0.0005802 0.0000081 0.0008102 -0.0001467 0.0007098
-0.0046854 0.0109659 0.0001072 0.0006291 0.0000409 0.0000806 0.0001580 0.0001595 0.0000874 0.0002121 -0.0000447 0.0003152 -0.0000887 0.0003946 -0.0000859 0.0002856 0.0000025 0.0004258 -0.0001407 0.0006725
0.0012648 0.0059583 0.0001221 0.0004745 0.0000326 -0.0001207 0.0001462 -0.0000170 0.0000914 0.0000922 -0.0000341 0.0002526 -0.0000930 0.0003689 -0.0000865 0.0002631 -0.0000077 0.0003830 -0.0001373 0.0007321
0.0015171 0.0010593 0.0001153 0.0004879 0.0000166 -0.0001495 0.0001430 -0.0000749 0.0000927 0.0000988 -0.0000288 0.0002431 -0.0000877 0.0003863 -0.0000910 0.0003761 -0.0000068 0.0005191 -0.0001232 0.0007787
0.0017293 0.0093068 0.0001179 0.0005245 -0.0000155 -0.0001237 0.0001396 -0.0000929 0.0000892 0.0001271 -0.0000371 0.0002582 -0.0000759 0.0003970 -0.0000988 0.0005047 -0.0000042 0.0007045 -0.0000942 0.0008063
0.0031551 0.0029867 0.0001132 0.0005994 -0.0000056 -0.0000762 0.0001389 -0.0000688 0.0000913 0.0001828 -0.0000477 0.0003078 -0.0000629 0.0004158 -0.0001038 0.0006794 0.0000086 0.0009396 -0.0001322 0.0009110
0.0034456 -0.0002843 0.0001029 0.0007014 0.0000050 -0.0000139 0.0001315 -0.0000054 0.0000938 0.0002610 -0.0000577 0.0003640 -0.0000642 0.0004522 -0.0000895 0.0005884 0.0000162 0.0008200 -0.0001564 0.0009045
0.0016092 0.0037892 0.0001113 0.0005871 -0.0000250 -0.0000805 0.0001191 -0.0001008 0.0000974 0.0001660 -0.0000563 0.0003093 -0.0000731 0.0004060 -0.0000703 0.0001994 0.0000009 0.0003599 -0.0001260 0.0007627
0.0022848 -0.0054078 0.0001065 0.0003770 -0.0000472 -0.0002329 0.0001102 -0.0003042 0.0001126 -0.0000163 -0.0000486 0.0002028 -0.0000668 0.0002981 -0.0000650 0.0000274 -0.0000106 0.0001761 -0.0000871 0.0006752
0.0118691 -0.0131083 0.0000942 0.0003155 -0.0000633 -0.0003044 0.0001079 -0.0004048 0.0001226 -0.0000725 -0.0000451 0.0001590 -0.0000639 0.0002330 -0.0000623 0.0000831 -0.0000128 0.0002404 -0.0000358 0.0006434
0.0184622 -0.0257677 0.0000888 0.0003148 -0.0000862 -0.0002882 0.0001103 -0.0004330 0.0001260 -0.0000712 -0.0000486 0.0001517 -0.0000677 0.0002169 -0.0000663 0.0002110 -0.0000168 0.0003789 -0.0000392 0.0007148
0.0005312 -0.0037175 0.0000815 0.0003803 -0.0001043 -0.0001966 0.0001101 -0.0003965 0.0001324 -0.0000112 -0.0000565 0.0001946 -0.0000637 0.0002324 -0.0000668 0.0004225 -0.0000044 0.0006384 -0.0000749 0.0008440
-0.0135891 0.0136421 0.0000807 0.0005016 -0.0001109 -0.0000769 0.0001069 -0.0003140 0.0001345 0.0000664 -0.0000569 0.0002554 -0.0000672 0.0002829 -0.0000658 0.0006003 0.0000102 0.0008511 -0.0001217 0.0008995
-0.0088872 0.0158411 0.0000829 0.0005247 -0.0000931 -0.0000623 0.0001117 -0.0002917 0.0001372 0.0000022 -0.0000389 0.0002298 -0.0000750 0.0002854 -0.0000630 0.0003088 -0.0000029 0.0005006 -0.0001594 0.0007810
-0.0058707 0.0140224 0.0000674 0.0003428 -0.0000457 -0.0002094 0.0001168 -0.0003960 0.0001461 -0.0001756 -0.0000214 0.0001214 -0.0000689 0.0001982 -0.0000592 -0.0000414 -0.0000231 0.0001065 -0.0001072 0.0005973
0.0052667 -0.0184382 0.0000558 0.0002060 -0.0000356 -0.0002860 0.0001247 -0.0004773 0.0001606 -0.0002566 -0.0000220 0.0000550 -0.0000608 0.0001246 -0.0000731 0.0000143 -0.0000206 0.0002049 -0.0000619 0.0005411
0.0017956 -0.0246882 0.0000543 0.0002154 -0.0000372 -0.0002744 0.0001389 -0.0004730 0.0001725 -0.0002582 -0.0000223 0.0000342 -0.0000565 0.0000982 -0.0000912 0.0001424 -0.0000186 0.0003594 -0.0000913 0.0006125
-0.0013677 -0.0057636 0.0000420 0.0002718 -0.0000251 -0.0002554 0.0001505 -0.0004089 0.0001716 -0.0002200 -0.0000210 0.0000424 -0.0000486 0.0001064 -0.0000985 0.0003755 -0.0000118 0.0006243 -0.0001210 0.0007201
0.0152520 -0.0203414 0.0000340 0.0003865 -0.0000375 -0.0001210 0.0001591 -0.0002683 0.0001724 -0.0001327 -0.0000224 0.0000983 -0.0000485 0.0001658 -0.0000960 0.0006022 0.0000043 0.0008839 -0.0001648 0.0008308
0.0012732 0.0071002 0.0000352 0.0004932 -0.0000336 0.0000358 0.0001682 -0.0001368 0.0001762 -0.0001016 -0.0000096 0.0001085 -0.0000510 0.0001672 -0.0000907 0.0003620 -0.0000036 0.0005950 -0.0001853 0.0007875
-0.0136538 0.0251150 0.0000292 0.0003297 -0.0000337 -0.0000267 0.0001762 -0.0001824 0.0001758 -0.0002415 0.0000073 0.0000218 -0.0000439 0.0000763 -0.0000780 -0.0000222 -0.0000181 0.0001394 -0.0001421 0.0005938
-0.0046557 0.0032597 0.0000041 0.0000895 -0.0000365 -0.0001784 0.0001837 -0.0003051 0.0001739 -0.0003712 0.0000063 -0.0000381 -0.0000511 0.0000096 -0.0000823 0.0000121 -0.0000163 0.0001789 -0.0001201 0.0005025
-0.0042812 -0.0020870 -0.0000076 0.0000775 -0.0000102 -0.0001533 0.0001963 -0.0003298 0.0001787 -0.0003657 0.0000020 -0.0000399 -0.0000365 -0.0000397 -0.0000939 0.0001571 -0.0000095 0.0003727 -0.0001577 0.0005157
-0.0092533 0.0108969 -0.0000128 0.0001397 0.0000139 -0.0000918 0.0001965 -0.0003138 0.0001792 -0.0003180 -0.0000010 -0.0000030 -0.0000238 -0.0000019 -0.0000960 0.0003656 0.0000010 0.0006390 -0.0001963 0.0005511
-0.0102963 0.0140313 -0.0000304 0.0002532 0.0000131 0.0000023 0.0001894 -0.0002608 0.0001748 -0.0002346 -0.0000080 0.0000793 -0.0000366 0.0000922 -0.0000997 0.0005877 0.0000122 0.0009187 -0.0002330 0.0006211
-0.0103764 0.0072203 -0.0000365 0.0003792 0.0000118 0.0001687 0.0001869 -0.0001634 0.0001694 -0.0001473 -0.0000017 0.0001452 -0.0000423 0.0001459 -0.0000968 0.0004486 0.0000156 0.0007546 -0.0002529 0.0005756
0.0037976 -0.0034717 -0.0000224 0.0002600 0.0000237 0.0001183 0.0001831 -0.0002184 0.0001646 -0.0002455 0.0000116 0.0000823 -0.0000400 0.0000968 -0.0000898 0.0000470 -0.0000007 0.0002802 -0.0002044 0.0003920
-0.0038444 0.0153339 -0.0000214 0.0000413 0.0000266 -0.0000710 0.0001890 -0.0003949 0.0001688 -0.0004243 0.0000133 -0.0000185 -0.0000407 0.0000143 -0.0000957 -0.0000358 -0.0000137 0.0002039 -0.0001670 0.0003430
-0.0200312 0.0229391 -0.0000174 0.0000317 0.0000086 -0.0000904 0.0001979 -0.0004377 0.0001732 -0.0004377 0.0000114 -0.0000268 -0.0000318 -0.0000027 -0.0001034 0.0000994 -0.0000081 0.0003668 -0.0001602 0.0003621
0.0005983 -0.0144107 -0.0000221 0.0001045 -0.0000072 -0.0000432 0.0001962 -0.0004021 0.0001685 -0.0003704 0.0000014 0.0000027 -0.0000248 0.0000105 -0.0001076 0.0002510 -0.0000062 0.0005577 -0.0001692 0.0004211
0.0004105 -0.0145518 -0.0000347 0.0002094 0.0000050 0.0000215 0.0001964 -0.0003061 0.0001716 -0.0002744 -0.0000051 0.0000650 -0.0000441 0.0000841 -0.0001118 0.0004789 0.0000026 0.0008394 -0.0002206 0.0005652
-0.0026327 -0.0097559 -0.0000329 0.0003346 0.0000374 0.0001319 0.0001965 -0.0001629 0.0001712 -0.0001546 -0.0000033 0.0001383 -0.0000591 0.0001854 -0.0001109 0.0006983 0.0000123 0.0011067 -0.0002059 0.0006602
0.0006737 -0.0144111 -0.0000245 0.0004702 0.0000347 0.0002511 0.0001792 -0.0000845 0.0001585 -0.0000999 0.0000044 0.0001573 -0.0000601 0.0001989 -0.0001053 0.0004283 -0.0000054 0.0007720 -0.0001539 0.0005419
-0.0010719 -0.0157491 -0.0000083 0.0003517 0.0000040 0.0001600 0.0001688 -0.0002021 0.0001545 -0.0002099 0.0000231 0.0001041 -0.0000422 0.0001414 -0.0001072 0.0000515 -0.0000300 0.0003008 -0.0001440 0.0004055
0.0030391 -0.0222070 -0.0000252 0.0001658 -0.0000079 0.0000476 0.0001771 -0.0003115 0.0001557 -0.0002880 0.0000258 0.0000888 -0.0000179 0.0001196 -0.0001155 0.0001337 -0.0000297 0.0004026 -0.0001609 0.0004557
0.0010617 0.0094899 -0.0000368 0.0002065 -0.0000082 0.0000810 0.0001784 -0.0002888 0.0001597 -0.0002433 0.0000134 0.0001200 -0.0000169 0.0001430 -0.0001204 0.0002953 -0.0000263 0.0006016 -0.0001822 0.0005264
-0.0007275 0.0150061 -0.0000407 0.0002991 -0.0000051 0.0001260 0.0001716 -0.0002361 0.0001641 -0.0001600 0.0000079 0.0001618 -0.0000209 0.0001865 -0.0001214 0.0005086 -0.0000189 0.0008558 -0.0002246 0.0006322
-0.0076066 -0.0007997 -0.0000595 0.0004155 0.0000127 0.0002263 0.0001644 -0.0001234 0.0001579 -0.0000356 0.0000058 0.0002432 -0.0000316 0.0002726 -0.0001148 0.0007404 -0.0000003 0.0011347 -0.0002279 0.0007368
-0.0131171 -0.0004820 -0.0000668 0.0005345 0.0000022 0.0003594 0.0001600 -0.0000023 0.0001361 0.0000899 0.0000045 0.0003344 -0.0000537 0.0003899 -0.0001167 0.0009580 0.0000085 0.0013821 -0.0002087 0.0008204
-0.0043375 -0.0017091 -0.0000473 0.0006422 -0.0000175 0.0004624 0.0001577 0.0000478 0.0001275 0.0001123 0.0000118 0.0003571 -0.0000351 0.0004091 -0.0001139 0.0006878 -0.0000141 0.0010109 -0.0001933 0.0007369
0.0115101 -0.0209108 -0.0000243 0.0005100 -0.0000306 0.0003892 0.0001538 -0.0000602 0.0001333 0.0000041 0.0000179 0.0003050 -0.0000084 0.0003491 -0.0001089 0.0003118 -0.0000381 0.0005496 -0.0001504 0.0006034
0.0139684 -0.0203091 -0.0000328 0.0003563 -0.0000428 0.0002745 0.0001515 -0.0001414 0.0001363 -0.0000404 0.0000058 0.0002940 -0.0000135 0.0003309 -0.0001160 0.0004075 -0.0000387 0.0006479 -0.0001654 0.0007064
0.0049689 -0.0156668 -0.0000484 0.0003839 -0.0000243 0.0002386 0.0001483 -0.0000949 0.0001381 0.0000051 -0.0000022 0.0003254 -0.0000263 0.0003663 -0.0001065 0.0005630 -0.0000226 0.0007964 -0.0001842 0.0008180
-0.0076903 -0.0191930 -0.0000551 0.0004315 0.0000028 0.0002760 0.0001422 -0.0000191 0.0001338 0.0000759 0.0000023 0.0003855 -0.0000379 0.0004483 -0.0001043 0.0007789 -0.0000052 0.0010587 -0.0001735 0.0008592
-0.0130551 0.0005084 -0.0000589 0.0005303 0.0000068 0.0004135 0.0001439 0.0000914 0.0001275 0.0001917 0.0000040 0.0004727 -0.0000579 0.0005612 -0.0001122 0.0010148 0.0000030 0.0013363 -0.0001928 0.0009324
-0.0024430 0.0035585 -0.0000602 0.0006416 0.0000079 0.0005413 0.0001469 0.0002126 0.0001189 0.0003138 0.0000058 0.0005470 -0.0000543 0.0006403 -0.0001144 0.0010397 -0.0000007 0.0013486 -0.0001734 0.0009242
-0.0022120 0.0067293 -0.0000423 0.0006058 0.0000278 0.0004741 0.0001412 0.0001971 0.0001119 0.0002605 0.0000085 0.0005255 -0.0000289 0.0006046 -0.0001167 0.0006936 -0.0000261 0.0009281 -0.0001446 0.0008152
-0.0080512 0.0143623 -0.0000322 0.0004565 0.0000054 0.0003271 0.0001381 0.0000837 0.0001182 0.0001277 0.0000038 0.0004605 -0.0000187 0.0005429 -0.0001190 0.0005137 -0.0000455 0.0007303 -0.0001624 0.0007831
-0.0101438 0.0162278 -0.0000411 0.0004300 -0.0000307 0.0003332 0.0001393 0.0000766 0.0001273 0.0001315 -0.0000020 0.0004571 -0.0000152 0.0005412 -0.0001160 0.0006144 -0.0000396 0.0008692 -0.0001894 0.0008326
-0.0003394 0.0061257 -0.0000530 0.0004819 -0.0000368 0.0003745 0.0001351 0.0001393 0.0001275 0.0001860 -0.0000074 0.0004827 -0.0000267 0.0005728 -0.0001151 0.0007200 -0.0000290 0.0010152 -0.0002210 0.0009144
0.0037378 -0.0023866 -0.0000645 0.0005473 -0.0000401 0.0004579 0.0001350 0.0002231 0.0001172 0.0002740 -0.0000089 0.0005269 -0.0000401 0.0006362 -0.0001260 0.0009398 -0.0000250 0.0012971 -0.0002363 0.0010133
0.0086654 -0.0234770 -0.0000642 0.0006602 -0.0000285 0.0005660 0.0001332 0.0003372 0.0001019 0.0003881 -0.0000080 0.0005886 -0.0000469 0.0007174 -0.0001305 0.0011484 -0.0000175 0.0015545 -0.0002222 0.0010919
0.0111905 -0.0230260 -0.0000680 0.0007956 -0.0000179 0.0006579 0.0001321 0.0004510 0.0000910 0.0004790 -0.0000117 0.0006304 -0.0000384 0.0007384 -0.0001337 0.0009301 -0.0000199 0.0012669 -0.0001987 0.0010042
-0.0018974 0.0032523 -0.0000428 0.0006803 -0.0000478 0.0005589 0.0001334 0.0003814 0.0000932 0.0003772 -0.0000121 0.0005633 -0.0000085 0.0006519 -0.0001321 0.0005337 -0.0000393 0.0007916 -0.0002196 0.0008790
0.0023249 -0.0090529 -0.0000174 0.0004883 -0.0000753 0.0003850 0.0001282 0.0002549 0.0000954 0.0002515 -0.0000164 0.0004889 -0.0000075 0.0006026 -0.0001260 0.0005057 -0.0000471 0.0008115 -0.0002567 0.0009093
0.0013750 -0.0054565 -0.0000215 0.0004949 -0.0000693 0.0003804 0.0001240 0.0002502 0.0000960 0.0002599 -0.0000241 0.0004858 -0.0000300 0.0006180 -0.0001263 0.0005903 -0.0000348 0.0009386 -0.0002579 0.0009479
-0.0032405 0.0030629 -0.0000245 0.0005312 -0.0000555 0.0003864 0.0001245 0.0002762 0.0000977 0.0002858 -0.0000260 0.0004929 -0.0000342 0.0006315 -0.0001249 0.0007142 -0.0000206 0.0011057 -0.0002374 0.0009743
0.0144172 -0.0235679 -0.0000321 0.0006043 -0.0000496 0.0004598 0.0001257 0.0003503 0.0000852 0.0003677 -0.0000266 0.0005291 -0.0000434 0.0006857 -0.0001271 0.0009139 -0.0000152 0.0013565 -0.0002071 0.0010130
0.0045346 -0.0032840 -0.0000363 0.0007162 -0.0000270 0.0005559 0.0001284 0.0004432 0.0000721 0.0004597 -0.0000304 0.0005853 -0.0000607 0.0007666 -0.0001363 0.0010944 -0.0000168 0.0015687 -0.0002175 0.0010905
-0.0072993 0.0037861 -0.0000226 0.0007816 -0.0000268 0.0005961 0.0001288 0.0004750 0.0000690 0.0004432 -0.0000261 0.0005705 -0.0000393 0.0007443 -0.0001323 0.0008040 -0.0000292 0.0012083 -0.0002309 0.0010023
0.0057556 -0.0302536 -0.0000082 0.0006301 -0.0000295 0.0004314 0.0001233 0.0003670 0.0000705 0.0003030 -0.0000224 0.0004819 -0.0000215 0.0006504 -0.0001288 0.0004617 -0.0000417 0.0008123 -0.0002335 0.0008708
-0.0045924 -0.0048873 -0.0000114 0.0005031 -0.0000131 0.0002971 0.0001257 0.0002872 0.0000768 0.0002222 -0.0000218 0.0004375 -0.0000344 0.0006334 -0.0001309 0.0005070 -0.0000388 0.0008941 -0.0002740 0.0009021
-0.0149726 0.0163169 -0.0000172 0.0005302 -0.0000294 0.0003778 0.0001276 0.0003030 0.0000793 0.0002306 -0.0000220 0.0004353 -0.0000371 0.0006431 -0.0001269 0.0005809 -0.0000331 0.0009977 -0.0002354 0.0009013
-0.0045775 -0.0043520 -0.0000221 0.0005739 -0.0000388 0.0004391 0.0001209 0.0003181 0.0000742 0.0002758 -0.0000272 0.0004413 -0.0000430 0.0006563 -0.0001329 0.0007484 -0.0000262 0.0012171 -0.0001895 0.0009372
-0.0029903 -0.0092902 -0.0000267 0.0006794 -0.0000295 0.0004908 0.0001170 0.0003695 0.0000690 0.0003578 -0.0000282 0.0004752 -0.0000480 0.0007037 -0.0001455 0.0009321 -0.0000214 0.0014409 -0.0002142 0.0010419
-0.0072043 -0.0078538 -0.0000295 0.0007841 -0.0000191 0.0005770 0.0001170 0.0004602 0.0000604 0.0004479 -0.0000318 0.0005366 -0.0000415 0.0007619 -0.0001444 0.0009718 -0.0000188 0.0014673 -0.0002279 0.0010588
0.0065710 -0.0076038 -0.0000102 0.0007280 -0.0000228 0.0005676 0.0001136 0.0004327 0.0000542 0.0003888 -0.0000323 0.0005041 -0.0000328 0.0007227 -0.0001369 0.0006853 -0.0000323 0.0011161 -0.0002463 0.0009765
0.0023317 0.0064527 0.0000043 0.0005980 -0.0000486 0.0004488 0.0001060 0.0003082 0.0000556 0.0002604 -0.0000267 0.0004201 -0.0000329 0.0006457 -0.0001292 0.0004876 -0.0000425 0.0009180 -0.0002866 0.0009707
-0.0077726 0.0130689 -0.0000070 0.0005979 -0.0000643 0.0004218 0.0001035 0.0002548 0.0000586 0.0002371 -0.0000270 0.0003969 -0.0000426 0.0006316 -0.0001217 0.0005313 -0.0000313 0.0009985 -0.0002640 0.0009653
-0.0131291 0.0187461 -0.0000134 0.0006351 -0.0000399 0.0004207 0.0001017 0.0002479 0.0000560 0.0002526 -0.0000282 0.0003970 -0.0000492 0.0006497 -0.0001290 0.0006170 -0.0000267 0.0010886 -0.0002225 0.0009654
-0.0186844 0.0176942 -0.0000154 0.0006936 -0.0000042 0.0004411 0.0000992 0.0002829 0.0000508 0.0003132 -0.0000314 0.0004325 -0.0000394 0.0006812 -0.0001380 0.0007942 -0.0000266 0.0012953 -0.0002329 0.0010610
-0.0069250 0.0124465 -0.0000200 0.0007917 -0.0000176 0.0005608 0.0001011 0.0003463 0.0000440 0.0003926 -0.0000377 0.0004893 -0.0000324 0.0007260 -0.0001398 0.0009530 -0.0000185 0.0014845 -0.0002421 0.0011485
0.0052987 -0.0001628 -0.0000165 0.0008830 -0.0000130 0.0006257 0.0000997 0.0003930 0.0000383 0.0004176 -0.0000423 0.0005073 -0.0000306 0.0007167 -0.0001383 0.0007257 -0.0000288 0.0012005 -0.0002532 0.0010908
0.0073005 -0.0147501 -0.0000085 0.0007840 -0.0000210 0.0005226 0.0000948 0.0003051 0.0000428 0.0003130 -0.0000372 0.0004504 -0.0000266 0.0006533 -0.0001277 0.0004584 -0.0000389 0.0008878 -0.0002675 0.0010089
0.0054365 -0.0108231 -0.0000132 0.0006820 -0.0000576 0.0004530 0.0000915 0.0002069 0.0000449 0.0002422 -0.0000355 0.0004175 -0.0000400 0.0006540 -0.0001227 0.0005197 -0.0000320 0.0009771 -0.0002599 0.0010138
0.0075472 -0.0084181 -0.0000125 0.0007177 -0.0000582 0.0004651 0.0000921 0.0002092 0.0000413 0.0002648 -0.0000404 0.0004333 -0.0000656 0.0006928 -0.0001301 0.0005981 -0.0000318 0.0010793 -0.0002543 0.0010452
0.0091145 -0.0093597 -0.0000166 0.0007601 -0.0000502 0.0004824 0.0000930 0.0002345 0.0000396 0.0002993 -0.0000377 0.0004607 -0.0000607 0.0007175 -0.0001366 0.0007579 -0.0000284 0.0012728 -0.0002136 0.0010782
0.0020645 0.0048770 -0.0000263 0.0008538 -0.0000406 0.0005739 0.0000900 0.0002939 0.0000301 0.0003844 -0.0000401 0.0005194 -0.0000453 0.0007620 -0.0001439 0.0009434 -0.0000233 0.0014781 -0.0002062 0.0011495
-0.0006460 0.0083848 -0.0000247 0.0009405 -0.0000507 0.0006817 0.0000884 0.0003696 0.0000252 0.0004744 -0.0000450 0.0005746 -0.0000448 0.0008064 -0.0001479 0.0008285 -0.0000311 0.0013154 -0.0002536 0.0011601
0.0025119 -0.0015096 -0.0000142 0.0008289 -0.0000446 0.0005643 0.0000840 0.0003028 0.0000271 0.0003791 -0.0000402 0.0005173 -0.0000408 0.0007465 -0.0001381 0.0004605 -0.0000454 0.0008904 -0.0002619 0.0010420
0.0033692 -0.0024043 -0.0000099 0.0006431 -0.0000745 0.0004560 0.0000788 0.0001510 0.0000262 0.0002223 -0.0000351 0.0004356 -0.0000436 0.0006775 -0.0001297 0.0003488 -0.0000445 0.0007814 -0.0002726 0.0010043
0.0056145 -0.0081970 -0.0000120 0.0006037 -0.0001073 0.0004660 0.0000795 0.0000923 0.0000292 0.0001988 -0.0000254 0.0004125 -0.0000490 0.0006653 -0.0001351 0.0004230 -0.0000416 0.0008710 -0.0002841 0.0010372
-0.0027228 -0.0018983 -0.0000129 0.0006279 -0.0001001 0.0004313 0.0000804 0.0000822 0.0000295 0.0002209 -0.0000246 0.0004155 -0.0000547 0.0006697 -0.0001377 0.0005217 -0.0000404 0.0009994 -0.0002480 0.0010641
0.0027674 0.0016483 -0.0000222 0.0007035 -0.0000787 0.0004550 0.0000838 0.0001226 0.0000250 0.0002829 -0.0000374 0.0004668 -0.0000556 0.0006955 -0.0001415 0.0006852 -0.0000380 0.0012005 -0.0002215 0.0011153
-0.0005401 0.0083348 -0.0000291 0.0007971 -0.0000640 0.0005179 0.0000857 0.0001846 0.0000246 0.0003555 -0.0000417 0.0005208 -0.0000363 0.0007178 -0.0001478 0.0008256 -0.0000323 0.0013506 -0.0002754 0.0012207
-0.0072763 0.0066381 -0.0000246 0.0008026 -0.0000824 0.0005458 0.0000814 0.0001757 0.0000230 0.0003248 -0.0000341 0.0004949 -0.0000200 0.0006825 -0.0001398 0.0005340 -0.0000423 0.0009955 -0.0003074 0.0011580
0.0113466 -0.0267426 -0.0000121 0.0006329 -0.0000985 0.0004262 0.0000768 0.0000487 0.0000272 0.0001907 -0.0000288 0.0004040 -0.0000336 0.0006058 -0.0001328 0.0002067 -0.0000552 0.0006265 -0.0003013 0.0010309
0.0139641 -0.0348369 -0.0000160 0.0005145 -0.0000894 0.0002712 0.0000763 -0.0000510 0.0000381 0.0001302 -0.0000291 0.0003602 -0.0000433 0.0005529 -0.0001301 0.0002295 -0.0000464 0.0006792 -0.0002835 0.0010044
0.0033515 0.0038687 -0.0000266 0.0005336 -0.0000898 0.0002278 0.0000796 -0.0000663 0.0000448 0.0001521 -0.0000272 0.0003549 -0.0000473 0.0005332 -0.0001300 0.0003054 -0.0000439 0.0007811 -0.0002347 0.0009862
-0.0010150 0.0150161 -0.0000322 0.0005956 -0.0001086 0.0002679 0.0000856 -0.0000391 0.0000453 0.0001978 -0.0000273 0.0003784 -0.0000563 0.0005612 -0.0001439 0.0004951 -0.0000466 0.0010039 -0.0002229 0.0010642
-0.0022098 0.0042501 -0.0000278 0.0006809 -0.0001119 0.0003508 0.0000866 0.0000188 0.0000471 0.0002685 -0.0000291 0.0004269 -0.0000494 0.0006013 -0.0001488 0.0006649 -0.0000405 0.0011993 -0.0002462 0.0011748
0.0006560 -0.0105439 -0.0000237 0.0007721 -0.0001017 0.0003954 0.0000813 0.0000727 0.0000506 0.0003344 -0.0000282 0.0004488 -0.0000321 0.0005926 -0.0001376 0.0004614 -0.0000377 0.0009657 -0.0002699 0.0011463
-0.0061952 -0.0012397 -0.0000231 0.0006603 -0.0000925 0.0002705 0.0000779 -0.0000003 0.0000561 0.0002451 -0.0000218 0.0003769 -0.0000367 0.0005214 -0.0001333 0.0001126 -0.0000493 0.0005796 -0.0002861 0.0010539
-0.0042989 0.0012268 -0.0000199 0.0004840 -0.0000874 0.0001119 0.0000795 -0.0001134 0.0000707 0.0001287 -0.0000148 0.0003051 -0.0000487 0.0004640 -0.0001304 0.0000604 -0.0000563 0.0005502 -0.0002463 0.0010046
0.0007026 -0.0027723 -0.0000146 0.0004689 -0.0000827 0.0000417 0.0000831 -0.0001416 0.0000870 0.0001258 -0.0000082 0.0002954 -0.0000488 0.0004414 -0.0001275 0.0001178 -0.0000574 0.0006313 -0.0002252 0.0009887
-0.0006454 -0.0114059 -0.0000230 0.0005040 -0.0001067 0.0000472 0.0000885 -0.0001478 0.0001052 0.0001453 0.0000011 0.0002889 -0.0000443 0.0004288 -0.0001380 0.0002327 -0.0000605 0.0007571 -0.0002135 0.0010151
-0.0065662 0.0024743 -0.0000372 0.0005977 -0.0001318 0.0001190 0.0000923 -0.0001088 0.0001158 0.0002095 0.0000017 0.0003183 -0.0000307 0.0004430 -0.0001391 0.0003759 -0.0000568 0.0009181 -0.0001965 0.0010688
0.0061627 -0.0007696 -0.0000311 0.0006795 -0.0001438 0.0001999 0.0000943 -0.0000549 0.0001268 0.0002795 -0.0000073 0.0003622 -0.0000215 0.0004532 -0.0001302 0.0002436 -0.0000594 0.0007557 -0.0002237 0.0010575
0.0089466 -0.0085493 -0.0000232 0.0005771 -0.0001488 0.0001020 0.0000929 -0.0001346 0.0001468 0.0001891 0.0000022 0.0002985 -0.0000111 0.0003794 -0.0001122 -0.0001168 -0.0000734 0.0003512 -0.0002971 0.0010072
-0.0053368 0.0095389 -0.0000266 0.0003890 -0.0001573 -0.0000793 0.0000869 -0.0002775 0.0001759 0.0000565 0.0000174 0.0002086 -0.0000021 0.0002857 -0.0000904 -0.0002537 -0.0000846 0.0002178 -0.0003077 0.0009569
-0.0072122 0.0127796 -0.0000260 0.0003601 -0.0001711 -0.0001468 0.0000860 -0.0003375 0.0002047 0.0000416 0.0000215 0.0001853 -0.0000125 0.0002465 -0.0000892 -0.0002041 -0.0000824 0.0002725 -0.0002576 0.0009152
-0.0041730 0.0104052 -0.0000316 0.0003958 -0.0001764 -0.0001537 0.0000924 -0.0003528 0.0002240 0.0000445 0.0000318 0.0001788 -0.0000094 0.0002312 -0.0000956 -0.0001055 -0.0000779 0.0003974 -0.0002246 0.0009193
0.0021971 0.0039544 -0.0000474 0.0004486 -0.0001701 -0.0001281 0.0000943 -0.0003348 0.0002403 0.0000770 0.0000382 0.0001981 0.0000050 0.0002406 -0.0000945 0.0000410 -0.0000812 0.0005657 -0.0002013 0.0009343
0.0096763 -0.0093539 -0.0000491 0.0005230 -0.0001835 -0.0000809 0.0000905 -0.0003181 0.0002555 0.0001351 0.0000345 0.0002292 0.0000030 0.0002451 -0.0000879 -0.0000288 -0.0000803 0.0004805 -0.0002347 0.0009595
0.0021916 -0.0086074 -0.0000379 0.0004265 -0.0001928 -0.0001367 0.0000839 -0.0004192 0.0002714 0.0000378 0.0000453 0.0001660 0.0000196 0.0001723 -0.0000535 -0.0004228 -0.0000969 -0.0000102 -0.0002829 0.0008481
-0.0018970 -0.0072549 -0.0000480 0.0001789 -0.0001893 -0.0002736 0.0000843 -0.0005876 0.0002949 -0.0001451 0.0000615 0.0000429 0.0000371 0.0000803 -0.0000314 -0.0006429 -0.0001235 -0.0003159 -0.0002990 0.0007174
0.0098586 -0.0290845 -0.0000597 0.0000889 -0.0002128 -0.0003079 0.0000961 -0.0006455 0.0003159 -0.0002213 0.0000744 -0.0000256 0.0000239 0.0000162 -0.0000450 -0.0005753 -0.0001254 -0.0002035 -0.0002951 0.0007027
0.0021408 -0.0179866 -0.0000691 0.0001116 -0.0002122 -0.0002678 0.0001105 -0.0006350 0.0003245 -0.0002683 0.0000945 -0.0000428 0.0000254 -0.0000052 -0.0000527 -0.0004067 -0.0001269 0.0000125 -0.0002449 0.0006724
-0.0048170 0.0035886 -0.0000869 0.0001302 -0.0001730 -0.0001650 0.0001262 -0.0005703 0.0003248 -0.0002549 0.0001051 -0.0000039 0.0000296 0.0000298 -0.0000689 -0.0001655 -0.0001186 0.0003334 -0.0002190 0.0007062
-0.0086709 0.0124581 -0.0000897 0.0002342 -0.0001476 -0.0000393 0.0001483 -0.0004275 0.0003309 -0.0001502 0.0000938 0.0000275 0.0000217 0.0000549 -0.0000811 0.0000771 -0.0001149 0.0006017 -0.0002061 0.0009437
-0.0121563 0.0089278 -0.0000658 0.0003191 -0.0001471 0.0000016 0.0001685 -0.0003221 0.0003377 -0.0001420 0.0001100 -0.0001652 0.0000817 0.0000334 0.0001042 0.0001456 -0.0001294 0.0000172 -0.0001144 0.0012603
-0.0020661 -0.0037792 -0.0000577 0.0001322 -0.0001396 -0.0001538 0.0001675 -0.0003984 0.0003386 -0.0002888 0.0001314 -0.0004291 0.0001439 -0.0000177 0.0002267 -0.0000531 -0.0001268 -0.0005601 -0.0001226 0.0013047
-0.0010370 0.0036303 -0.0001159 -0.0001452 -0.0001299 -0.0003041 0.0001570 -0.0005237 0.0003410 -0.0004028 0.0001259 -0.0004338 0.0001063 -0.0000789 0.0001038 -0.0001666 -0.0001174 -0.0002460 -0.0002294 0.0011061
-0.0060050 0.0118806 -0.0001347 -0.0001538 -0.0001182 -0.0003450 0.0001674 -0.0004596 0.0003462 -0.0003655 0.0001213 -0.0003249 0.0000424 -0.0001374 0.0000076 -0.0000690 -0.0001114 0.0001417 -0.0002606 0.0009059
-0.0099052 0.0156900 -0.0001189 -0.0000170 -0.0000989 -0.0002901 0.0002008 -0.0002485 0.0003345 -0.0002335 0.0001177 -0.0002025 0.0000165 -0.0001009 -0.0000512 0.0001495 -0.0001031 0.0005493 -0.0002872 0.0008098
-0.0108434 0.0151179 -0.0001266 0.0001076 -0.0000730 -0.0001628 0.0002188 -0.0000854 0.0003170 -0.0001088 0.0001168 -0.0000723 0.0000235 -0.0000159 -0.0000835 0.0003583 -0.0000825 0.0008932 -0.0003508 0.0008455
-0.0066205 0.0005032 -0.0001240 0.0002406 -0.0000733 0.0000209 0.0002174 -0.0000083 0.0003092 -0.0000504 0.0001157 0.0000074 0.0000319 0.0000277 -0.0000874 0.0000794 -0.0000848 0.0006287 -0.0003630 0.0007967
0.0084289 -0.0290078 -0.0001037 0.0001464 -0.0000703 0.0000115 0.0002135 -0.0000960 0.0003063 -0.0001778 0.0001141 -0.0000305 0.0000333 -0.0000195 -0.0000822 -0.0004258 -0.0001082 0.0000847 -0.0003551 0.0007036
0.0190577 -0.0505692 -0.0000958 -0.0000456 -0.0000682 -0.0001495 0.0002098 -0.0002346 0.0003171 -0.0003076 0.0001157 -0.0000969 0.0000266 -0.0000729 -0.0000700 -0.0004439 -0.0001042 0.0000798 -0.0003590 0.0007001
-0.0020098 -0.0004337 -0.0000910 -0.0000397 -0.0000673 -0.0001900 0.0002020 -0.0002261 0.0003179 -0.0002757 0.0001222 -0.0000819 0.0000162 -0.0000520 -0.0000674 -0.0002238 -0.0000921 0.0003101 -0.0003346 0.0007266
-0.0099057 0.0101428 -0.0000945 0.0000524 -0.0000378 -0.0001830 0.0002022 -0.0001614 0.0003037 -0.0001978 0.0001222 -0.0000413 -0.0000066 -0.0000003 -0.0000810 0.0000002 -0.0000859 0.0005709 -0.0003013 0.0007895
-0.0079283 0.0056511 -0.0001063 0.0001629 -0.0000394 -0.0000766 0.0002105 -0.0000722 0.0002813 -0.0000985 0.0001186 0.0000215 -0.0000057 0.0000559 -0.0000926 0.0002668 -0.0000799 0.0008775 -0.0002698 0.0008396
-0.0115878 0.0147096 -0.0001007 0.0002791 -0.0000593 0.0000794 0.0002096 0.0000471 0.0002535 0.0000088 0.0001126 0.0001105 0.0000171 0.0001200 -0.0001056 0.0004855 -0.0000748 0.0011172 -0.0002603 0.0008981
0.0014299 -0.0089092 -0.0000801 0.0003324 -0.0000664 0.0001303 0.0002042 0.0000897 0.0002544 -0.0000206 0.0001129 0.0001147 0.0000272 0.0001285 -0.0001032 0.0001573 -0.0000848 0.0007190 -0.0002811 0.0008716
-0.0011297 -0.0062584 -0.0000656 0.0001929 -0.0000643 -0.0000210 0.0001980 0.0000068 0.0002639 -0.0001754 0.0001209 0.0000363 0.0000377 0.0000714 -0.0000886 -0.0002615 -0.0000965 0.0002279 -0.0002808 0.0007620
-0.0086936 0.0085382 -0.0000823 0.0000824 -0.0000682 -0.0001249 0.0001909 -0.0000257 0.0002543 -0.0002231 0.0001162 0.0000158 0.0000255 0.0000624 -0.0000845 -0.0001899 -0.0000919 0.0003116 -0.0002769 0.0007272
0.0020239 -0.0107451 -0.0000907 0.0001127 -0.0000695 -0.0001048 0.0001909 0.0000146 0.0002402 -0.0001742 0.0001127 0.0000336 0.0000073 0.0000858 -0.0000930 0.0000003 -0.0000850 0.0005246 -0.0002847 0.0007696
-0.0059575 0.0016298 -0.0000858 0.0001865 -0.0000533 -0.0000733 0.0001931 0.0000919 0.0002226 -0.0000814 0.0001033 0.0000663 0.0000037 0.0001212 -0.0001092 0.0002447 -0.0000712 0.0008164 -0.0002500 0.0008436
0.0003352 -0.0025996 -0.0000914 0.0003171 -0.0000218 -0.0000205 0.0001977 0.0002145 0.0001984 0.0000504 0.0000829 0.0001270 -0.0000062 0.0001850 -0.0001221 0.0004693 -0.0000655 0.0010878 -0.0002299 0.0009082
0.0059744 -0.0126810 -0.0000949 0.0004630 -0.0000388 0.0001208 0.0002065 0.0003085 0.0001936 0.0001425 0.0000739 0.0001969 0.0000103 0.0002361 -0.0001242 0.0006162 -0.0000648 0.0012674 -0.0002935 0.0009797
-0.0100995 0.0120809 -0.0000683 0.0004993 -0.0000750 0.0001742 0.0001965 0.0002997 0.0002049 0.0001041 0.0000732 0.0001889 0.0000327 0.0002198 -0.0001081 0.0002540 -0.0000765 0.0008261 -0.0003253 0.0008771
-0.0042866 0.0064182 -0.0000401 0.0003367 -0.0000715 0.0000018 0.0001819 0.0001661 0.0002128 -0.0000268 0.0000698 0.0000975 0.0000234 0.0001492 -0.0000957 -0.0001506 -0.0000933 0.0003477 -0.0003176 0.0007385
0.0033609 0.0027138 -0.0000457 0.0002399 -0.0000646 -0.0001059 0.0001795 0.0000764 0.0002223 -0.0000841 0.0000678 0.0000494 0.0000112 0.0001180 -0.0000932 -0.0000994 -0.0000842 0.0004266 -0.0002985 0.0007148
0.0013744 0.0073086 -0.0000497 0.0002686 -0.0000574 -0.0001393 0.0001776 0.0000798 0.0002123 -0.0000592 0.0000645 0.0000563 -0.0000053 0.0001333 -0.0000994 0.0000605 -0.0000720 0.0006149 -0.0002581 0.0006994
-0.0079966 0.0133650 -0.0000603 0.0003380 -0.0000620 -0.0001088 0.0001848 0.0001164 0.0001925 0.0000033 0.0000551 0.0000885 -0.0000209 0.0001731 -0.0001195 0.0003199 -0.0000746 0.0009303 -0.0002816 0.0007956
-0.0121458 0.0024032 -0.0000794 0.0004686 -0.0000561 0.0000037 0.0001911 0.0002157 0.0001793 0.0000956 0.0000469 0.0001499 -0.0000160 0.0002312 -0.0001251 0.0005622 -0.0000694 0.0012214 -0.0002993 0.0009090
-0.0002378 -0.0183600 -0.0000691 0.0005918 -0.0000295 0.0000990 0.0001855 0.0003361 0.0001714 0.0001955 0.0000367 0.0002251 -0.0000088 0.0002854 -0.0001276 0.0007652 -0.0000499 0.0014530 -0.0002930 0.0009897
0.0055292 -0.0143507 -0.0000339 0.0006928 -0.0000363 0.0001675 0.0001786 0.0003895 0.0001831 0.0002038 0.0000337 0.0002146 -0.0000153 0.0002804 -0.0001294 0.0004731 -0.0000650 0.0010858 -0.0003218 0.0009653
0.0079611 -0.0135836 -0.0000026 0.0006077 -0.0000600 0.0000709 0.0001672 0.0003012 0.0001948 0.0000949 0.0000368 0.0001193 -0.0000177 0.0002039 -0.0001206 0.0000681 -0.0000845 0.0006175 -0.0002906 0.0008603
-0.0021487 0.0006773 -0.0000042 0.0005128 -0.0000802 -0.0000371 0.0001565 0.0002037 0.0001940 0.0000582 0.0000303 0.0000741 -0.0000246 0.0001676 -0.0001173 0.0000940 -0.0000753 0.0006813 -0.0002432 0.0008313
-0.0007776 -0.0008212 -0.0000079 0.0005450 -0.0000749 -0.0000885 0.0001418 0.0001322 0.0001932 0.0000805 0.0000289 0.0000800 -0.0000243 0.0001617 -0.0001196 0.0001938 -0.0000701 0.0008151 -0.0002396 0.0008767
0.0098866 -0.0221397 -0.0000114 0.0005849 -0.0000866 -0.0000351 0.0001297 0.0000977 0.0001873 0.0001182 0.0000281 0.0001116 -0.0000115 0.0001605 -0.0001240 0.0003791 -0.0000623 0.0010224 -0.0002216 0.0009516
0.0085782 -0.0076952 -0.0000255 0.0006940 -0.0000825 0.0000923 0.0001244 0.0001485 0.0001783 0.0002131 0.0000184 0.0001759 -0.0000075 0.0001972 -0.0001230 0.0005654 -0.0000561 0.0012169 -0.0002370 0.0010405
0.0052730 0.0077127 -0.0000158 0.0008032 -0.0000606 0.0001836 0.0001210 0.0002138 0.0001702 0.0003131 0.0000149 0.0002464 0.0000005 0.0002445 -0.0001214 0.0007098 -0.0000521 0.0013859 -0.0003046 0.0011314
0.0028002 0.0045042 0.0000084 0.0008386 -0.0000632 0.0002042 0.0001148 0.0002166 0.0001695 0.0002945 0.0000212 0.0002242 0.0000018 0.0002229 -0.0001069 0.0003962 -0.0000612 0.0010185 -0.0003033 0.0010070
-0.0060184 0.0126195 0.0000121 0.0007164 -0.0000500 0.0000462 0.0001072 0.0001049 0.0001702 0.0001630 0.0000295 0.0001486 -0.0000135 0.0001693 -0.0001012 0.0000999 -0.0000758 0.0006736 -0.0002762 0.0008542
-0.0150919 0.0182681 0.0000029 0.0006324 -0.0000561 -0.0000145 0.0001040 0.0000432 0.0001709 0.0001154 0.0000293 0.0001256 -0.0000158 0.0001510 -0.0001094 0.0001968 -0.0000776 0.0007938 -0.0002504 0.0008182
-0.0003783 0.0084552 0.0000042 0.0006719 -0.0000829 0.0000487 0.0001029 0.0000502 0.0001697 0.0001428 0.0000236 0.0001142 -0.0000124 0.0001333 -0.0001132 0.0002719 -0.0000721 0.0009024 -0.0002008 0.0007806
0.0099424 -0.0017492 -0.0000011 0.0007328 -0.0000675 0.0000491 0.0001036 0.0000728 0.0001578 0.0001970 0.0000085 0.0001344 -0.0000138 0.0001450 -0.0001276 0.0004689 -0.0000671 0.0011413 -0.0002330 0.0008770
0.0069995 -0.0214163 -0.0000112 0.0008371 -0.0000659 0.0001240 0.0000991 0.0001502 0.0001462 0.0002836 -0.0000056 0.0001884 -0.0000193 0.0001982 -0.0001305 0.0006741 -0.0000562 0.0013634 -0.0002906 0.0010075
-0.0330396 0.0289029 0.0000047 0.0009224 -0.0000918 0.0002194 0.0000911 0.0001960 0.0001410 0.0002986 -0.0000058 0.0001728 -0.0000203 0.0001717 -0.0001172 0.0003704 -0.0000657 0.0010060 -0.0002987 0.0009122
-0.0130565 0.0211911 0.0000264 0.0008079 -0.0000984 0.0001131 0.0000870 0.0000852 0.0001442 0.0001781 -0.0000024 0.0000682 -0.0000296 0.0000758 -0.0001096 -0.0000140 -0.0000909 0.0005659 -0.0002955 0.0007929
0.0038713 -0.0126217 0.0000215 0.0006967 -0.0000939 -0.0000288 0.0000869 -0.0000171 0.0001477 0.0001048 -0.0000012 0.0000093 -0.0000356 0.0000215 -0.0001123 0.0000403 -0.0000890 0.0006234 -0.0002232 0.0007412
0.0060802 -0.0165273 0.0000225 0.0007345 -0.0000913 -0.0000219 0.0000927 0.0000042 0.0001451 0.0001386 -0.0000059 0.0000048 -0.0000410 0.0000132 -0.0001163 0.0001783 -0.0000884 0.0007579 -0.0001823 0.0007488
0.0086605 -0.0163625 0.0000222 0.0007736 -0.0000977 0.0000960 0.0001015 0.0000534 0.0001409 0.0001904 -0.0000156 0.0000192 -0.0000422 0.0000344 -0.0001325 0.0004174 -0.0000983 0.0010028 -0.0002064 0.0008592
-0.0008358 0.0016011 0.0000072 0.0008535 -0.0000742 0.0002025 0.0001014 0.0001271 0.0001289 0.0002667 -0.0000223 0.0000797 -0.0000243 0.0000822 -0.0001426 0.0006610 -0.0000892 0.0012690 -0.0002251 0.0009337
-0.0022644 0.0188409 0.0000082 0.0009290 -0.0000879 0.0003371 0.0000909 0.0001926 0.0001150 0.0003070 -0.0000232 0.0000989 -0.0000233 0.0000919 -0.0001398 0.0004029 -0.0000933 0.0009626 -0.0002709 0.0008547
0.0006064 0.0134734 0.0000192 0.0007846 -0.0000985 0.0002658 0.0000893 0.0001042 0.0001119 0.0001889 -0.0000168 -0.0000137 -0.0000262 -0.0000178 -0.0001329 -0.0000565 -0.0001085 0.0004410 -0.0003267 0.0007083
0.0036531 -0.0090403 0.0000273 0.0005761 -0.0000868 0.0000441 0.0000929 -0.0000474 0.0001128 0.0000541 -0.0000166 -0.0001122 -0.0000277 -0.0001127 -0.0001286 -0.0000894 -0.0001030 0.0004470 -0.0003088 0.0006197
-0.0067318 0.0070355 0.0000338 0.0005516 -0.0000730 -0.0000029 0.0000907 -0.0000936 0.0001034 0.0000395 -0.0000183 -0.0001235 -0.0000431 -0.0001294 -0.0001335 0.0000189 -0.0000947 0.0006021 -0.0002607 0.0005677
-0.0175901 0.0187993 0.0000344 0.0006056 -0.0000744 -0.0000168 0.0000879 -0.0001024 0.0000991 0.0000849 -0.0000238 -0.0001190 -0.0000400 -0.0001473 -0.0001404 0.0001646 -0.0000891 0.0007712 -0.0002515 0.0006018
-0.0032479 0.0077868 0.0000342 0.0007188 -0.0000905 0.0000155 0.0000798 -0.0000676 0.0000952 0.0001842 -0.0000390 -0.0000675 -0.0000312 -0.0001301 -0.0001420 0.0003604 -0.0000777 0.0009824 -0.0002566 0.0006807
0.0017841 0.0076048 0.0000341 0.0008361 -0.0000855 0.0001086 0.0000712 -0.0000024 0.0000863 0.0002843 -0.0000491 0.0000045 -0.0000391 -0.0000805 -0.0001318 0.0002656 -0.0000781 0.0008271 -0.0002922 0.0006608
0.0049474 -0.0029733 0.0000531 0.0007400 -0.0000905 0.0000137 0.0000625 -0.0000942 0.0000859 0.0002076 -0.0000442 -0.0000546 -0.0000354 -0.0001441 -0.0001094 -0.0001528 -0.0000951 0.0003074 -0.0002968 0.0005206
0.0035848 -0.0030810 0.0000657 0.0005373 -0.0000951 -0.0001787 0.0000516 -0.0002870 0.0000859 0.0000447 -0.0000352 -0.0001580 -0.0000356 -0.0002375 -0.0000982 -0.0002926 -0.0001047 0.0001517 -0.0002652 0.0004298
0.0039041 -0.0078459 0.0000626 0.0004879 -0.0000900 -0.0002026 0.0000496 -0.0003668 0.0000789 0.0000092 -0.0000283 -0.0001723 -0.0000507 -0.0002492 -0.0001067 -0.0001772 -0.0001033 0.0002633 -0.0002569 0.0004214
0.0139278 -0.0311432 0.0000629 0.0005048 -0.0000927 -0.0001903 0.0000528 -0.0003582 0.0000760 0.0000283 -0.0000229 -0.0001677 -0.0000527 -0.0002560 -0.0001190 -0.0000329 -0.0000991 0.0003965 -0.0001938 0.0003859
0.0125498 -0.0293365 0.0000502 0.0005811 -0.0000907 -0.0001734 0.0000521 -0.0002951 0.0000713 0.0000975 -0.0000270 -0.0001280 -0.0000488 -0.0002158 -0.0001306 0.0001925 -0.0000928 0.0006566 -0.0001700 0.0004339
-0.0044299 0.0055603 0.0000424 0.0006936 -0.0000941 -0.0001080 0.0000500 -0.0002118 0.0000643 0.0001897 -0.0000312 -0.0000601 -0.0000489 -0.0001440 -0.0001411 0.0003589 -0.0000860 0.0008557 -0.0002272 0.0005247
-0.0122061 0.0136940 0.0000495 0.0007109 -0.0001084 -0.0001096 0.0000452 -0.0002127 0.0000616 0.0001580 -0.0000264 -0.0000881 -0.0000311 -0.0001831 -0.0001330 0.0000383 -0.0000980 0.0004715 -0.0002352 0.0003901
0.0018375 -0.0016192 0.0000616 0.0005680 -0.0001069 -0.0002702 0.0000385 -0.0003363 0.0000648 0.0000386 -0.0000214 -0.0001794 -0.0000265 -0.0002559 -0.0001163 -0.0003008 -0.0001097 0.0000550 -0.0002503 0.0002827
-0.0094423 0.0210886 0.0000731 0.0004793 -0.0001133 -0.0004068 0.0000345 -0.0004260 0.0000665 -0.0000024 -0.0000142 -0.0001973 -0.0000348 -0.0002611 -0.0001104 -0.0002438 -0.0001101 0.0000899 -0.0002629 0.0002975
-0.0305011 0.0417992 0.0000819 0.0005084 -0.0001484 -0.0004063 0.0000367 -0.0004201 0.0000669 0.0000286 -0.0000063 -0.0001653 -0.0000280 -0.0002509 -0.0001012 -0.0001136 -0.0001082 0.0001624 -0.0001779 0.0003328
-0.0082223 0.0195254 0.0000737 0.0005735 -0.0001614 -0.0003704 0.0000418 -0.0003691 0.0000726 0.0001128 -0.0000065 -0.0001132 -0.0000266 -0.0002020 -0.0000887 0.0001690 -0.0001020 0.0003500 -0.0000943 0.0004588
-0.0047109 0.0057654 0.0000732 0.0006858 -0.0001563 -0.0002588 0.0000451 -0.0002932 0.0000767 0.0002168 -0.0000030 -0.0000312 -0.0000036 -0.0001365 -0.0000772 0.0004307 -0.0000887 0.0005558 -0.0001133 0.0006200
-0.0098368 0.0064138 0.0000978 0.0007861 -0.0001440 -0.0002099 0.0000410 -0.0002511 0.0000740 0.0002367 0.0000063 0.0000046 0.0000213 -0.0001214 -0.0000542 0.0001563 -0.0000973 0.0001702 -0.0001235 0.0005514
-0.0036951 0.0065915 0.0001061 0.0006448 -0.0001268 -0.0003169 0.0000347 -0.0003619 0.0000711 0.0001165 0.0000137 -0.0000502 0.0000270 -0.0001702 -0.0000285 -0.0003092 -0.0001255 -0.0004172 -0.0001475 0.0003344
-0.0033278 0.0052094 0.0000936 0.0004573 -0.0001348 -0.0004119 0.0000382 -0.0004875 0.0000790 0.0000121 0.0000236 -0.0000835 0.0000289 -0.0001993 -0.0000264 -0.0003408 -0.0001218 -0.0004091 -0.0001837 0.0002219
0.0063434 -0.0101435 0.0000850 0.0004535 -0.0001458 -0.0003647 0.0000508 -0.0004799 0.0000862 -0.0000007 0.0000329 -0.0000679 0.0000150 -0.0001733 -0.0000380 -0.0002259 -0.0001100 -0.0002184 -0.0001653 0.0001436
0.0011974 -0.0016833 0.0000824 0.0004887 -0.0001463 -0.0003093 0.0000572 -0.0004651 0.0000861 0.0000227 0.0000300 -0.0000544 -0.0000058 -0.0001634 -0.0000389 0.0000230 -0.0001086 0.0000073 -0.0000933 0.0002927
-0.0047257 0.0030430 0.0000706 0.0005539 -0.0001576 -0.0003100 0.0000502 -0.0004310 0.0000771 0.0000834 0.0000170 -0.0000910 0.0000088 -0.0001575 -0.0000205 0.0004459 -0.0000899 0.0003030 0.0000116 0.0005421
0.0068154 -0.0174020 0.0000553 0.0006239 -0.0001588 -0.0002061 0.0000529 -0.0003245 0.0000666 0.0001517 0.0000172 -0.0000842 0.0000358 -0.0000954 -0.0000213 0.0004679 -0.0000767 0.0002859 0.0000259 0.0005164
0.0175738 -0.0392637 0.0000591 0.0005189 -0.0001259 -0.0001750 0.0000659 -0.0003210 0.0000670 0.0000665 0.0000378 -0.0000811 0.0000403 -0.0001139 -0.0000535 -0.0000270 -0.0000914 -0.0000962 -0.0000448 0.0003033
0.0150150 -0.0395216 0.0000812 0.0003157 -0.0000851 -0.0003065 0.0000796 -0.0003994 0.0000747 -0.0000870 0.0000459 -0.0001370 0.0000386 -0.0001941 -0.0000806 -0.0002606 -0.0001004 -0.0002155 -0.0000897 0.0001787
0.0064894 -0.0196849 0.0000833 0.0002952 -0.0000744 -0.0003332 0.0000987 -0.0003488 0.0000774 -0.0001131 0.0000459 -0.0001446 0.0000221 -0.0002141 -0.0000995 -0.0001993 -0.0000837 -0.0000564 -0.0001234 0.0001909
-0.0004275 -0.0040891 0.0000696 0.0003479 -0.0000646 -0.0002533 0.0001169 -0.0002444 0.0000715 -0.0000814 0.0000568 -0.0001276 0.0000057 -0.0001894 -0.0001164 -0.0000361 -0.0000754 0.0001895 -0.0001547 0.0002687
-0.0070491 0.0023497 0.0000611 0.0004267 -0.0000336 -0.0001502 0.0001312 -0.0000927 0.0000586 0.0000003 0.0000596 -0.0000657 0.0000012 -0.0001261 -0.0001357 0.0002506 -0.0000723 0.0005389 -0.0001444 0.0003558
0.0123209 -0.0159950 0.0000506 0.0005471 -0.0000109 0.0000095 0.0001487 0.0001169 0.0000371 0.0001170 0.0000514 0.0000169 -0.0000077 -0.0000622 -0.0001592 0.0005049 -0.0000599 0.0008820 -0.0001570 0.0004273
0.0212599 -0.0384901 0.0000508 0.0006668 0.0000138 0.0001151 0.0001656 0.0002749 0.0000345 0.0001740 0.0000513 0.0000359 0.0000200 -0.0000864 -0.0001581 0.0002768 -0.0000671 0.0006272 -0.0002142 0.0003679
-0.0071339 0.0037751 0.0000615 0.0005491 0.0000039 0.0000335 0.0001686 0.0002571 0.0000386 0.0000721 0.0000497 -0.0000179 0.0000430 -0.0001506 -0.0001413 -0.0001450 -0.0000755 0.0001549 -0.0002338 0.0002376
-0.0092913 0.0145104 0.0000614 0.0003617 -0.0000091 -0.0000962 0.0001714 0.0002111 0.0000408 -0.0000175 0.0000427 -0.0000479 0.0000159 -0.0001431 -0.0001422 -0.0001176 -0.0000656 0.0002493 -0.0002432 0.0002210
-0.0039489 0.0015381 0.0000581 0.0003725 0.0000125 -0.0001111 0.0001718 0.0002534 0.0000512 0.0000053 0.0000452 -0.0000414 0.0000008 -0.0001170 -0.0001379 0.0000476 -0.0000490 0.0004866 -0.0002565 0.0002567
0.0053535 -0.0083472 0.0000492 0.0004475 0.0000461 -0.0000756 0.0001685 0.0003267 0.0000356 0.0000688 0.0000517 -0.0000114 -0.0000034 -0.0000694 -0.0001407 0.0002641 -0.0000376 0.0007682 -0.0002314 0.0003111
0.0067417 -0.0036601 0.0000275 0.0005429 0.0000543 0.0000600 0.0001864 0.0004606 0.0000124 0.0001786 0.0000489 0.0000677 -0.0000164 0.0000229 -0.0001667 0.0005281 -0.0000267 0.0011025 -0.0002310 0.0004131
-0.0064948 0.0079489 0.0000091 0.0006439 0.0000561 0.0002442 0.0002046 0.0006225 0.0000045 0.0003035 0.0000457 0.0001458 -0.0000051 0.0000910 -0.0001714 0.0005134 -0.0000177 0.0010908 -0.0002302 0.0003890
-0.0042878 0.0036149 0.0000251 0.0005404 0.0000603 0.0001758 0.0002005 0.0006247 -0.0000009 0.0002353 0.0000478 0.0001007 0.0000183 0.0000329 -0.0001621 0.0001571 -0.0000297 0.0006948 -0.0002315 0.0002539
-0.0100072 0.0174183 0.0000479 0.0003307 0.0000366 -0.0000074 0.0001969 0.0005238 0.0000182 0.0000710 0.0000409 0.0000073 0.0000078 -0.0000470 -0.0001620 0.0000220 -0.0000360 0.0005839 -0.0002834 0.0002581
-0.0106818 0.0131244 0.0000397 0.0003284 0.0000474 -0.0000516 0.0001964 0.0005496 0.0000307 0.0000859 0.0000294 -0.0000076 -0.0000132 -0.0000498 -0.0001569 0.0001305 -0.0000271 0.0007398 -0.0002776 0.0002750
0.0001515 -0.0154790 0.0000339 0.0003924 0.0000591 0.0000083 0.0001873 0.0006254 0.0000172 0.0001744 0.0000236 0.0000086 -0.0000289 -0.0000283 -0.0001525 0.0002658 -0.0000165 0.0009093 -0.0002450 0.0002935
-0.0104039 0.0058447 0.0000206 0.0004813 0.0000426 0.0001148 0.0001842 0.0006813 0.0000027 0.0002864 0.0000268 0.0000392 -0.0000323 0.0000028 -0.0001628 0.0005069 -0.0000154 0.0011996 -0.0002593 0.0004365
-0.0042759 -0.0029187 0.0000165 0.0006282 0.0000567 0.0002247 0.0001797 0.0007533 -0.0000165 0.0004346 0.0000191 0.0001044 -0.0000264 0.0000455 -0.0001712 0.0007320 -0.0000169 0.0014737 -0.0002546 0.0005626
0.0019772 0.0016743 0.0000557 0.0007553 0.0000685 0.0002896 0.0001630 0.0007734 -0.0000311 0.0004765 0.0000086 0.0001100 -0.0000175 0.0000187 -0.0001661 0.0003914 -0.0000270 0.0010676 -0.0002495 0.0004636
0.0022578 0.0016149 0.0000760 0.0006021 0.0000299 0.0001306 0.0001554 0.0006182 -0.0000194 0.0003302 0.0000073 -0.0000032 -0.0000017 -0.0001154 -0.0001559 -0.0000860 -0.0000444 0.0005397 -0.0002805 0.0003796
0.0048635 -0.0192485 0.0000566 0.0004128 -0.0000043 -0.0000784 0.0001436 0.0004765 -0.0000071 0.0002428 -0.0000069 -0.0000708 -0.0000051 -0.0001735 -0.0001512 -0.0000392 -0.0000376 0.0006401 -0.0002825 0.0004561
-0.0063100 0.0056001 0.0000564 0.0004486 0.0000059 -0.0001174 0.0001384 0.0004994 -0.0000161 0.0002862 -0.0000151 -0.0000507 -0.0000302 -0.0001115 -0.0001523 0.0001496 -0.0000264 0.0008585 -0.0002842 0.0005099
0.0041217 -0.0073977 0.0000532 0.0005143 0.0000304 -0.0000275 0.0001477 0.0005930 -0.0000262 0.0003547 -0.0000052 -0.0000201 -0.0000325 -0.0000530 -0.0001511 0.0004040 -0.0000219 0.0011419 -0.0002811 0.0005511
0.0110156 -0.0082362 0.0000499 0.0006317 0.0000557 0.0001343 0.0001503 0.0007058 -0.0000404 0.0004675 0.0000023 0.0000374 -0.0000230 0.0000030 -0.0001499 0.0006465 -0.0000075 0.0014220 -0.0002215 0.0005900
0.0059876 0.0065944 0.0000478 0.0007539 0.0000750 0.0002938 0.0001599 0.0007905 -0.0000518 0.0005961 -0.0000062 0.0001117 -0.0000199 0.0000826 -0.0001551 0.0006600 -0.0000021 0.0014015 -0.0002168 0.0005832
0.0003392 0.0053131 0.0000819 0.0007103 0.0000644 0.0002560 0.0001543 0.0007208 -0.0000441 0.0005555 -0.0000080 0.0000556 0.0000010 0.0000426 -0.0001489 0.0003344 -0.0000205 0.0009985 -0.0002420 0.0004964
-0.0129021 0.0134598 0.0001111 0.0006202 0.0000283 0.0000677 0.0001328 0.0005569 -0.0000367 0.0004404 -0.0000109 -0.0000530 0.0000083 -0.0000652 -0.0001433 0.0001881 -0.0000253 0.0008696 -0.0002330 0.0004616
-0.0192513 0.0253700 0.0001009 0.0006449 0.0000172 0.0000418 0.0001214 0.0005142 -0.0000297 0.0004299 -0.0000142 -0.0000550 -0.0000110 -0.0000587 -0.0001448 0.0003391 -0.0000136 0.0010494 -0.0002585 0.0005432
-0.0152674 0.0213465 0.0000974 0.0006843 0.0000232 0.0001336 0.0001145 0.0005623 -0.0000351 0.0004711 -0.0000056 -0.0000074 -0.0000235 0.0000134 -0.0001406 0.0005321 -0.0000054 0.0012478 -0.0002268 0.0005994
-0.0050952 0.0031634 0.0000808 0.0007499 0.0000470 0.0002311 0.0001018 0.0006370 -0.0000630 0.0005746 -0.0000079 0.0000608 -0.0000244 0.0000885 -0.0001394 0.0008251 0.0000051 0.0015544 -0.0001796 0.0006850
-0.0009059 -0.0058297 0.0000673 0.0008689 0.0000729 0.0003879 0.0001025 0.0007290 -0.0000831 0.0006966 -0.0000044 0.0001446 -0.0000105 0.0001698 -0.0001498 0.0011353 0.0000109 0.0018670 -0.0001935 0.0008243
0.0069999 -0.0135599 0.0000884 0.0010215 0.0000685 0.0005480 0.0001075 0.0008006 -0.0000994 0.0007486 0.0000038 0.0001765 0.0000116 0.0001832 -0.0001530 0.0009210 -0.0000015 0.0015787 -0.0001994 0.0007578
0.0061555 -0.0023086 0.0001110 0.0009260 0.0000564 0.0004626 0.0000944 0.0007153 -0.0001087 0.0006537 0.0000001 0.0001232 0.0000119 0.0001320 -0.0001482 0.0005897 -0.0000122 0.0011942 -0.0002033 0.0006716
-0.0001167 0.0029963 0.0000945 0.0007907 0.0000587 0.0003413 0.0000829 0.0006096 -0.0001047 0.0005895 -0.0000014 0.0000987 0.0000113 0.0001199 -0.0001473 0.0006778 -0.0000071 0.0013115 -0.0002378 0.0007330
-0.0038301 0.0058593 0.0000848 0.0008514 0.0000494 0.0003732 0.0000729 0.0006188 -0.0001040 0.0006190 -0.0000038 0.0001262 0.0000072 0.0001454 -0.0001417 0.0007693 0.0000029 0.0014288 -0.0002313 0.0007561
-0.0059623 0.0025789 0.0000856 0.0008997 0.0000431 0.0004302 0.0000658 0.0006485 -0.0001160 0.0006667 -0.0000130 0.0001704 -0.0000189 0.0002068 -0.0001485 0.0009321 0.0000084 0.0016299 -0.0001883 0.0008007
-0.0048922 -0.0122157 0.0000759 0.0009792 0.0000830 0.0005341 0.0000691 0.0007336 -0.0001294 0.0007637 -0.0000122 0.0002485 -0.0000162 0.0002904 -0.0001568 0.0011668 0.0000153 0.0018837 -0.0001532 0.0008568
0.0061750 -0.0097159 0.0000712 0.0010949 0.0000993 0.0006449 0.0000723 0.0008281 -0.0001431 0.0008391 -0.0000023 0.0002898 0.0000039 0.0003148 -0.0001503 0.0009795 0.0000114 0.0016169 -0.0001222 0.0007464
0.0091685 -0.0152044 0.0000773 0.0010076 0.0000716 0.0005913 0.0000770 0.0007637 -0.0001447 0.0007535 -0.0000035 0.0002489 0.0000118 0.0002719 -0.0001494 0.0007155 -0.0000109 0.0012735 -0.0001265 0.0006808
-0.0060623 -0.0031352 0.0000764 0.0008966 0.0000692 0.0005362 0.0000799 0.0006803 -0.0001340 0.0006695 -0.0000125 0.0002275 0.0000157 0.0002594 -0.0001525 0.0008069 -0.0000118 0.0013721 -0.0001597 0.0007603
-0.0033988 0.0016166 0.0000722 0.0009619 0.0000822 0.0005974 0.0000775 0.0007052 -0.0001299 0.0006994 -0.0000153 0.0002556 0.0000104 0.0002940 -0.0001499 0.0009059 0.0000012 0.0014809 -0.0001866 0.0007974
0.0072309 -0.0149709 0.0000745 0.0010120 0.0000919 0.0006267 0.0000771 0.0007406 -0.0001280 0.0007387 -0.0000160 0.0002955 -0.0000093 0.0003486 -0.0001531 0.0010561 0.0000039 0.0016679 -0.0001868 0.0008564
0.0059076 -0.0137875 0.0000742 0.0010847 0.0000906 0.0007188 0.0000716 0.0008273 -0.0001352 0.0008306 -0.0000173 0.0003529 -0.0000172 0.0004138 -0.0001614 0.0012511 0.0000074 0.0019035 -0.0001411 0.0009117
0.0048887 -0.0170881 0.0000914 0.0011612 0.0000896 0.0008366 0.0000652 0.0008812 -0.0001532 0.0008683 -0.0000129 0.0003473 -0.0000134 0.0004052 -0.0001650 0.0009857 -0.0000025 0.0015544 -0.0000822 0.0007882
0.0174194 -0.0513375 0.0000989 0.0010358 0.0000835 0.0007418 0.0000654 0.0007710 -0.0001480 0.0007507 -0.0000093 0.0002722 -0.0000062 0.0003289 -0.0001695 0.0006603 -0.0000203 0.0011465 -0.0000944 0.0007033
0.0090337 -0.0307372 0.0000887 0.0009102 0.0000660 0.0005951 0.0000619 0.0006488 -0.0001340 0.0006724 -0.0000170 0.0002483 0.0000039 0.0002912 -0.0001697 0.0007154 -0.0000176 0.0012239 -0.0001298 0.0007512
-0.0006785 0.0107606 0.0000954 0.0009319 0.0000538 0.0005863 0.0000511 0.0006344 -0.0001378 0.0006943 -0.0000268 0.0002736 -0.0000008 0.0003064 -0.0001669 0.0007905 -0.0000066 0.0013164 -0.0001721 0.0008000
0.0069645 0.0029278 0.0000933 0.0009551 0.0000339 0.0006424 0.0000438 0.0006566 -0.0001397 0.0007333 -0.0000250 0.0003041 -0.0000129 0.0003451 -0.0001690 0.0009490 0.0000023 0.0015074 -0.0002463 0.0009192
0.0159303 -0.0337983 0.0000803 0.0010522 0.0000538 0.0007182 0.0000411 0.0007207 -0.0001457 0.0008115 -0.0000224 0.0003676 -0.0000203 0.0004098 -0.0001666 0.0011168 0.0000141 0.0017032 -0.0002202 0.0009533
-0.0018219 -0.0060546 0.0000926 0.0010605 0.0000744 0.0007016 0.0000371 0.0007137 -0.0001622 0.0007927 -0.0000155 0.0003490 -0.0000215 0.0003953 -0.0001640 0.0008320 -0.0000010 0.0013480 -0.0001648 0.0008182
-0.0066367 -0.0002265 0.0001035 0.0008835 0.0000565 0.0005816 0.0000376 0.0005761 -0.0001623 0.0006508 -0.0000089 0.0002674 -0.0000029 0.0003041 -0.0001656 0.0005272 -0.0000195 0.0009797 -0.0001718 0.0007386
0.0069528 -0.0138795 0.0000954 0.0007825 0.0000390 0.0005075 0.0000375 0.0004665 -0.0001565 0.0005783 -0.0000138 0.0002466 0.0000083 0.0002697 -0.0001671 0.0005778 -0.0000174 0.0010551 -0.0001741 0.0007398
-0.0018669 0.0061996 0.0000945 0.0008010 0.0000333 0.0005015 0.0000355 0.0004342 -0.0001544 0.0005817 -0.0000224 0.0002585 0.0000008 0.0002767 -0.0001696 0.0006403 -0.0000176 0.0011401 -0.0002108 0.0007774
-0.0063973 0.0161958 0.0000892 0.0008199 0.0000294 0.0005185 0.0000350 0.0004340 -0.0001499 0.0006091 -0.0000290 0.0002918 -0.0000110 0.0003131 -0.0001675 0.0007929 -0.0000001 0.0013238 -0.0002503 0.0008796
-0.0010717 0.0029812 0.0000849 0.0008889 0.0000521 0.0005536 0.0000297 0.0004925 -0.0001570 0.0006755 -0.0000288 0.0003452 -0.0000263 0.0003774 -0.0001637 0.0009185 0.0000186 0.0014654 -0.0002426 0.0009147
0.0002009 -0.0115486 0.0001030 0.0008507 0.0000380 0.0005545 0.0000246 0.0004806 -0.0001625 0.0006301 -0.0000203 0.0003110 -0.0000312 0.0003440 -0.0001617 0.0006512 -0.0000002 0.0011449 -0.0002076 0.0008169
0.0054430 -0.0112987 0.0001152 0.0006791 0.0000079 0.0004745 0.0000243 0.0003525 -0.0001630 0.0004989 -0.0000123 0.0002133 -0.0000269 0.0002430 -0.0001559 0.0004236 -0.0000151 0.0008503 -0.0001250 0.0007184
0.0031597 -0.0015114 0.0001084 0.0006029 0.0000193 0.0003747 0.0000263 0.0002803 -0.0001681 0.0004588 -0.0000177 0.0001931 -0.0000191 0.0002116 -0.0001594 0.0005176 -0.0000123 0.0009219 -0.0000817 0.0007227
0.0018111 -0.0007607 0.0000948 0.0006260 0.0000131 0.0003549 0.0000272 0.0002636 -0.0001620 0.0004640 -0.0000216 0.0002057 -0.0000197 0.0002165 -0.0001661 0.0005787 -0.0000142 0.0009989 -0.0001320 0.0007732
0.0001057 -0.0090019 0.0000896 0.0006673 0.0000125 0.0003621 0.0000255 0.0002609 -0.0001517 0.0004824 -0.0000214 0.0002252 -0.0000138 0.0002297 -0.0001613 0.0006960 -0.0000005 0.0011479 -0.0001681 0.0008634
0.0078587 -0.0080711 0.0000948 0.0007265 0.0000233 0.0003944 0.0000174 0.0003057 -0.0001540 0.0005352 -0.0000255 0.0002692 -0.0000228 0.0002771 -0.0001556 0.0007924 0.0000143 0.0012741 -0.0002025 0.0009264
0.0091537 -0.0106461 0.0001040 0.0006820 0.0000179 0.0003757 0.0000136 0.0002815 -0.0001520 0.0004930 -0.0000196 0.0002224 -0.0000330 0.0002365 -0.0001567 0.0005105 -0.0000013 0.0009866 -0.0002317 0.0008592
0.0040058 -0.0088915 0.0001047 0.0005219 0.0000189 0.0002299 0.0000155 0.0001612 -0.0001448 0.0003724 -0.0000104 0.0001333 -0.0000288 0.0001451 -0.0001552 0.0002601 -0.0000062 0.0007277 -0.0001768 0.0007503
0.0042105 -0.0051905 0.0000940 0.0004630 0.0000325 0.0001003 0.0000227 0.0000741 -0.0001543 0.0003387 -0.0000140 0.0001115 -0.0000346 0.0001191 -0.0001617 0.0003275 0.0000008 0.0008203 -0.0001365 0.0007301
0.0003753 0.0024308 0.0000865 0.0004953 0.0000131 0.0001191 0.0000356 0.0000445 -0.0001521 0.0003491 -0.0000177 0.0001195 -0.0000148 0.0000925 -0.0001681 0.0004028 -0.0000015 0.0009117 -0.0001661 0.0007885
0.0028631 -0.0011810 0.0000861 0.0005249 -0.0000085 0.0002261 0.0000367 0.0000663 -0.0001424 0.0003823 -0.0000240 0.0001607 -0.0000129 0.0001226 -0.0001648 0.0005784 0.0000045 0.0011199 -0.0001749 0.0008887
0.0048534 -0.0120864 0.0000800 0.0005984 -0.0000148 0.0003150 0.0000373 0.0001261 -0.0001397 0.0004445 -0.0000349 0.0002234 -0.0000348 0.0001959 -0.0001655 0.0007311 0.0000142 0.0012922 -0.0002019 0.0009787
-0.0057045 -0.0046304 0.0000879 0.0005684 0.0000011 0.0002944 0.0000358 0.0001018 -0.0001243 0.0003896 -0.0000281 0.0001899 -0.0000286 0.0001568 -0.0001523 0.0004480 0.0000145 0.0009616 -0.0002194 0.0009199
-0.0062994 -0.0006284 0.0000902 0.0003881 0.0000025 0.0001724 0.0000277 -0.0000161 -0.0001161 0.0002572 -0.0000193 0.0001038 -0.0000317 0.0000784 -0.0001408 0.0001686 0.0000058 0.0006608 -0.0001931 0.0008267
-0.0096382 0.0107650 0.0000745 0.0002771 -0.0000096 0.0000747 0.0000396 -0.0000877 -0.0001146 0.0002049 -0.0000202 0.0000818 -0.0000445 0.0000560 -0.0001488 0.0002078 -0.0000069 0.0006839 -0.0001616 0.0008326
-0.0053614 0.0025984 0.0000654 0.0002500 0.0000081 0.0000325 0.0000550 -0.0001092 -0.0001126 0.0001919 -0.0000209 0.0000791 -0.0000330 0.0000373 -0.0001512 0.0002525 -0.0000244 0.0006097 -0.0000863 0.0008828
0.0087540 -0.0190053 0.0000547 0.0002579 -0.0000002 0.0000732 0.0000556 -0.0001065 -0.0001152 0.0002105 -0.0000287 0.0001076 -0.0000282 0.0000603 -0.0001535 0.0004289 -0.0000266 0.0007558 -0.0000773 0.0009591
0.0027550 -0.0024525 0.0000501 0.0003267 -0.0000279 0.0001573 0.0000563 -0.0000506 -0.0001026 0.0002603 -0.0000314 0.0001684 -0.0000315 0.0001192 -0.0001520 0.0005752 -0.0000040 0.0009807 -0.0001585 0.0009637
-0.0064006 0.0071795 0.0000490 0.0002676 -0.0000379 0.0001186 0.0000578 -0.0000727 -0.0000853 0.0002036 -0.0000229 0.0001363 -0.0000135 0.0000703 -0.0001381 0.0003407 0.0000008 0.0007733 -0.0001811 0.0008644
-0.0044294 0.0004171 0.0000562 0.0000788 -0.0000123 -0.0000252 0.0000516 -0.0001746 -0.0000756 0.0000861 -0.0000170 0.0000552 -0.0000167 -0.0000061 -0.0001330 0.0001366 -0.0000022 0.0005852 -0.0001785 0.0008151
0.0004119 0.0012624 0.0000464 0.0000109 -0.0000032 -0.0000784 0.0000571 -0.0002168 -0.0000663 0.0000505 -0.0000096 0.0000258 -0.0000336 -0.0000106 -0.0001397 0.0002061 0.0000080 0.0006868 -0.0001783 0.0008473
0.0042629 -0.0065633 0.0000331 0.0000335 -0.0000304 -0.0000296 0.0000653 -0.0002020 -0.0000685 0.0000795 -0.0000054 0.0000266 -0.0000313 -0.0000153 -0.0001416 0.0002927 0.0000119 0.0008076 -0.0001525 0.0008931
0.0122487 -0.0245570 0.0000258 0.0000853 -0.0000229 0.0000103 0.0000693 -0.0001630 -0.0000805 0.0001426 -0.0000150 0.0000697 -0.0000262 0.0000080 -0.0001504 0.0004817 0.0000153 0.0010414 -0.0001470 0.0009628
0.0065694 -0.0260881 0.0000139 0.0001837 -0.0000059 0.0000709 0.0000795 -0.0001020 -0.0000769 0.0002095 -0.0000251 0.0001186 -0.0000155 0.0000384 -0.0001559 0.0006134 0.0000220 0.0012005 -0.0001938 0.0010425
-0.0098350 0.0086688 0.0000254 0.0001455 -0.0000252 0.0000533 0.0000763 -0.0001093 -0.0000618 0.0001540 -0.0000260 0.0000668 -0.0000063 -0.0000112 -0.0001442 0.0002812 0.0000076 0.0008508 -0.0002209 0.0009860
0.0006546 0.0042461 0.0000319 -0.0000752 -0.0000371 -0.0000928 0.0000729 -0.0002232 -0.0000451 0.0000010 -0.0000251 -0.0000406 -0.0000090 -0.0001058 -0.0001403 -0.0000564 -0.0000038 0.0005086 -0.0002367 0.0008873
0.0110474 -0.0170057 0.0000135 -0.0002084 -0.0000155 -0.0002137 0.0000770 -0.0002988 -0.0000208 -0.0000718 -0.0000217 -0.0000998 -0.0000186 -0.0001690 -0.0001391 -0.0000462 0.0000038 0.0005697 -0.0002405 0.0008579
0.0070572 0.0001210 0.0000040 -0.0002220 -0.0000351 -0.0002275 0.0000788 -0.0002957 -0.0000134 -0.0000529 -0.0000179 -0.0001264 -0.0000354 -0.0001772 -0.0001325 0.0000233 0.0000088 0.0006872 -0.0001938 0.0008190
0.0064422 -0.0023119 0.0000027 -0.0001840 -0.0000525 -0.0002051 0.0000934 -0.0002664 -0.0000163 0.0000048 -0.0000206 -0.0001162 -0.0000491 -0.0001420 -0.0001446 0.0002088 0.0000118 0.0009200 -0.0001684 0.0008614
0.0006153 0.0032771 0.0000067 -0.0000737 -0.0000288 -0.0001809 0.0001044 -0.0002056 -0.0000166 0.0000723 -0.0000225 -0.0000847 -0.0000385 -0.0001184 -0.0001530 0.0003661 0.0000167 0.0011267 -0.0001560 0.0009318
-0.0040026 0.0044320 0.0000169 0.0000107 -0.0000460 -0.0001390 0.0001045 -0.0001407 -0.0000156 0.0000945 -0.0000193 -0.0000934 -0.0000137 -0.0001503 -0.0001415 0.0000807 0.0000106 0.0008104 -0.0001666 0.0008730
0.0011714 -0.0196199 0.0000166 -0.0001462 -0.0000779 -0.0002349 0.0001051 -0.0002254 0.0000173 -0.0000487 -0.0000203 -0.0001989 -0.0000146 -0.0002492 -0.0001357 -0.0003431 -0.0000073 0.0003679 -0.0001980 0.0008063
-0.0004584 -0.0100837 0.0000084 -0.0003490 -0.0000675 -0.0004201 0.0000989 -0.0003461 0.0000475 -0.0001713 -0.0000241 -0.0003059 -0.0000277 -0.0003346 -0.0001403 -0.0003843 -0.0000064 0.0003910 -0.0001833 0.0008150
-0.0150699 0.0072199 0.0000041 -0.0003692 -0.0000525 -0.0005053 0.0000941 -0.0003622 0.0000546 -0.0001713 -0.0000230 -0.0003500 -0.0000378 -0.0003750 -0.0001375 -0.0003005 0.0000035 0.0005373 -0.0001620 0.0008231
-0.0120467 0.0089163 -0.0000001 -0.0003200 -0.0000540 -0.0004798 0.0001009 -0.0003416 0.0000642 -0.0001507 -0.0000115 -0.0003499 -0.0000433 -0.0003734 -0.0001386 -0.0001165 0.0000092 0.0007694 -0.0001539 0.0008895
0.0036925 -0.0096471 -0.0000041 -0.0001915 -0.0000538 -0.0003853 0.0001150 -0.0002692 0.0000611 -0.0000698 -0.0000028 -0.0002943 -0.0000268 -0.0003348 -0.0001424 0.0000925 0.0000165 0.0009986 -0.0001328 0.0009545
0.0052312 0.0022075 0.0000008 -0.0000659 -0.0000565 -0.0002852 0.0001184 -0.0001974 0.0000487 0.0000106 -0.0000056 -0.0002299 -0.0000155 -0.0002952 -0.0001411 0.0001780 0.0000195 0.0010837 -0.0001247 0.0009708
0.0033207 0.0061714 0.0000255 -0.0001042 -0.0000535 -0.0003211 0.0001135 -0.0002512 0.0000669 -0.0000814 0.0000006 -0.0002857 0.0000099 -0.0003780 -0.0001241 -0.0001624 0.0000056 0.0006988 -0.0001557 0.0009361
0.0009611 -0.0097545 0.0000362 -0.0002511 -0.0000560 -0.0004774 0.0001064 -0.0003777 0.0001063 -0.0002515 0.0000045 -0.0003913 0.0000197 -0.0004779 -0.0001094 -0.0004393 -0.0000107 0.0004002 -0.0001786 0.0009088
-0.0196642 0.0183843 0.0000236 -0.0002678 -0.0000620 -0.0005371 0.0001075 -0.0004073 0.0001361 -0.0002916 -0.0000017 -0.0004250 -0.0000032 -0.0004911 -0.0001131 -0.0003593 -0.0000138 0.0004980 -0.0001844 0.0009106
-0.0314217 0.0355271 0.0000214 -0.0002059 -0.0000678 -0.0004892 0.0001207 -0.0003605 0.0001597 -0.0002757 0.0000103 -0.0004266 -0.0000041 -0.0004901 -0.0001154 -0.0002474 -0.0000091 0.0006367 -0.0001720 0.0009198
-0.0076579 0.0193172 0.0000309 -0.0001342 -0.0000592 -0.0004006 0.0001382 -0.0002745 0.0001588 -0.0002275 0.0000274 -0.0003997 -0.0000023 -0.0004518 -0.0001236 -0.0000281 -0.0000043 0.0008980 -0.0001311 0.0009552
-0.0029806 0.0182908 0.0000320 0.0000013 -0.0000544 -0.0002612 0.0001568 -0.0001763 0.0001553 -0.0001553 0.0000254 -0.0003546 -0.0000100 -0.0003921 -0.0001417 0.0001926 -0.0000038 0.0011470 -0.0001536 0.0010743
-0.0083595 0.0094619 0.0000389 0.0001445 -0.0000824 -0.0001311 0.0001576 -0.0001018 0.0001686 -0.0001270 0.0000227 -0.0003517 0.0000088 -0.0004097 -0.0001328 -0.0000327 -0.0000120 0.0008867 -0.0001826 0.0010630
-0.0009524 -0.0166716 0.0000527 0.0000710 -0.0000946 -0.0002375 0.0001455 -0.0001829 0.0001829 -0.0002379 0.0000199 -0.0004387 0.0000258 -0.0005083 -0.0001206 -0.0003843 -0.0000253 0.0005032 -0.0001852 0.0009561
-0.0107433 0.0176835 0.0000477 -0.0000486 -0.0001005 -0.0004029 0.0001405 -0.0003000 0.0002086 -0.0003421 0.0000159 -0.0005055 -0.0000004 -0.0005429 -0.0001318 -0.0003316 -0.0000327 0.0005878 -0.0002268 0.0009948
-0.0094850 0.0236079 0.0000446 -0.0000114 -0.0001008 -0.0003924 0.0001341 -0.0002961 0.0002301 -0.0003325 0.0000213 -0.0005052 -0.0000220 -0.0005250 -0.0001361 -0.0001849 -0.0000256 0.0007706 -0.0001898 0.0009992
-0.0007941 -0.0031818 0.0000419 0.0000710 -0.0000670 -0.0003684 0.0001309 -0.0002588 0.0002277 -0.0002775 0.0000245 -0.0004755 -0.0000321 -0.0004903 -0.0001423 0.0000188 -0.0000119 0.0010251 -0.0001528 0.0010357
