-0.0000000 -0.0000000 -0.0000000 -0.0000000 -0.0000000 -0.0000000 -0.0000000 -0.0000000 -0.0000000 -0.0000000 -0.0000000 -0.0000000 -0.0000000 -0.0000000 -0.0000000 -0.0000000 -0.0000000 -0.0000000 -0.0000000 -0.0000000
-0.0000000 -0.0000000 -0.0000000 -0.0000000 -0.0000000 -0.0000000 -0.0000000 -0.0000000 -0.0000000 -0.0000000 -0.0000000 -0.0000000 -0.0000000 -0.0000000 -0.0000000 -0.0000000 -0.0000000 -0.0000000 -0.0000000 -0.0000000
-0.0005866 0.0005953 -0.0013770 0.0016752 -0.0022858 0.0038647 -0.0000079 0.0001373 -0.0000102 0.0001300 -0.0000034 0.0001167 -0.0000001 0.0001355 -0.0000222 0.0000482 -0.0000094 0.0000813 -0.0000178 -0.0000220
0.0004364 -0.0005243 -0.0006211 0.0010584 0.0000459 0.0020096 -0.0000184 0.0000980 -0.0000137 0.0000727 -0.0000248 -0.0000292 -0.0000267 -0.0000310 -0.0000409 -0.0001428 -0.0000244 -0.0000873 0.0000295 0.0000786
0.0009317 -0.0007667 -0.0062944 0.0061280 -0.0055793 0.0069845 0.0000004 -0.0002430 0.0000086 -0.0002577 -0.0000345 -0.0004583 -0.0000428 -0.0004369 -0.0000421 -0.0004686 -0.0000195 -0.0003366 0.0000943 0.0002426
0.0007050 -0.0003628 -0.0125493 0.0079678 -0.0254651 0.0119078 0.0000367 -0.0003321 0.0000264 -0.0003039 -0.0000151 -0.0004828 -0.0000122 -0.0003711 -0.0000313 -0.0004607 0.0000051 -0.0002721 0.0000837 0.0002223
0.0014718 -0.0013799 -0.0033595 -0.0017292 0.0022538 -0.0174666 0.0000513 -0.0001597 0.0000283 -0.0001342 0.0000016 -0.0002774 0.0000185 -0.0001091 -0.0000274 -0.0002706 0.0000120 -0.0000973 0.0000772 0.0003163
0.0016345 -0.0006676 -0.0027374 0.0012587 0.0015573 -0.0034385 0.0000345 0.0000759 0.0000132 0.0000946 -0.0000025 -0.0000289 0.0000145 0.0001190 -0.0000384 -0.0001240 0.0000029 0.0000041 0.0000625 0.0003279
0.0013524 -0.0003545 -0.0043733 0.0038382 -0.0067070 0.0029441 0.0000113 0.0000036 0.0000050 -0.0000239 -0.0000235 -0.0001842 -0.0000209 -0.0000959 -0.0000399 -0.0003213 -0.0000078 -0.0002005 0.0000960 0.0003348
0.0006095 -0.0005315 0.0023598 -0.0020938 0.0062530 -0.0128197 0.0000168 -0.0003425 0.0000166 -0.0003911 -0.0000276 -0.0005824 -0.0000326 -0.0004693 -0.0000187 -0.0005600 -0.0000063 -0.0004049 0.0004307 0.0014365
-0.0002230 0.0004669 0.0056849 -0.0017043 0.0089372 -0.0045919 0.0000433 -0.0004148 0.0000272 -0.0004294 -0.0000040 -0.0005780 0.0000022 -0.0003815 0.0000120 -0.0004620 0.0000170 -0.0003405 0.0005792 0.0019893
0.0000287 0.0006423 0.0044146 -0.0002770 0.0077596 -0.0047231 0.0000518 -0.0002460 0.0000270 -0.0002537 0.0000159 -0.0003533 0.0000403 -0.0001270 0.0000337 -0.0002163 0.0000427 -0.0001823 0.0003303 0.0011939
-0.0010244 0.0015442 0.0031861 0.0004480 0.0027416 -0.0009761 0.0000348 0.0000081 0.0000082 0.0000057 0.0000351 0.0000060 0.0000477 0.0001386 0.0000513 0.0001702 0.0000350 0.0000365 0.0001699 0.0007928
-0.0018424 0.0018196 0.0036682 -0.0013856 0.0051248 -0.0039210 0.0000093 0.0002009 -0.0000005 0.0002032 0.0000555 0.0002425 -0.0000245 0.0000090 0.0000315 0.0001751 -0.0000359 -0.0001187 0.0000482 0.0004070
-0.0004653 -0.0004666 0.0032281 -0.0011380 0.0054184 -0.0020974 -0.0000284 -0.0000775 0.0000106 0.0000147 0.0000605 0.0000180 -0.0001142 -0.0004919 -0.0000002 -0.0002313 -0.0000858 -0.0005088 0.0000038 0.0001068
-0.0001938 -0.0007661 -0.0033295 0.0046869 -0.0045418 0.0060311 -0.0000160 -0.0004796 0.0000266 -0.0002681 0.0000643 -0.0002478 -0.0001102 -0.0006874 0.0000022 -0.0004098 -0.0000485 -0.0005662 -0.0000005 0.0000181
-0.0002435 -0.0005078 -0.0084129 0.0043489 -0.0206681 0.0109804 0.0000390 -0.0004434 0.0000451 -0.0001947 0.0000695 -0.0001655 -0.0000707 -0.0004991 -0.0000091 -0.0003444 -0.0000286 -0.0004121 -0.0000094 0.0000741
0.0010976 -0.0017804 -0.0045168 -0.0014141 -0.0017251 -0.0099470 0.0000357 -0.0002103 0.0000438 0.0000310 0.0000607 0.0000497 -0.0000562 -0.0001926 -0.0000366 -0.0001535 -0.0000389 -0.0001798 -0.0000153 0.0002041
0.0015311 -0.0010481 -0.0063467 0.0029829 0.0021297 -0.0052524 -0.0000084 0.0000954 0.0000170 0.0003181 0.0000430 0.0003242 -0.0000642 0.0001751 -0.0000665 0.0001080 -0.0000524 0.0000944 -0.0000120 0.0003541
0.0014017 -0.0005450 -0.0078363 0.0054420 -0.0133993 0.0100057 -0.0000568 0.0002112 -0.0000095 0.0003449 0.0000060 0.0002818 -0.0001028 0.0001521 -0.0000801 0.0000160 -0.0000671 -0.0000233 -0.0000430 0.0001197
0.0007388 -0.0004816 0.0003893 -0.0007668 -0.0041574 0.0049660 -0.0000899 -0.0000906 -0.0000195 -0.0000088 -0.0000351 -0.0001508 -0.0001331 -0.0002502 -0.0000689 -0.0003616 -0.0000512 -0.0003890 -0.0000810 -0.0003210
0.0000925 -0.0000925 0.0051936 -0.0036654 0.0056311 -0.0041004 -0.0000922 -0.0003721 -0.0000283 -0.0002702 -0.0000461 -0.0003628 -0.0001079 -0.0003113 -0.0000549 -0.0004491 -0.0000047 -0.0003755 -0.0000889 -0.0004471
0.0002997 0.0000913 0.0043240 -0.0024635 0.0044911 -0.0049113 -0.0000841 -0.0002648 -0.0000469 -0.0002348 -0.0000433 -0.0002130 -0.0000668 -0.0000208 -0.0000551 -0.0002920 0.0000216 -0.0001610 -0.0001320 -0.0005389
-0.0011306 0.0016116 0.0032437 0.0002013 0.0052125 -0.0011728 -0.0000958 0.0000405 -0.0000747 -0.0000021 -0.0000504 0.0000767 -0.0000519 0.0003351 -0.0000763 -0.0000384 0.0000183 0.0001173 -0.0002016 -0.0006318
-0.0020253 0.0020658 0.0043063 -0.0019514 0.0078226 -0.0041137 -0.0001402 0.0004436 -0.0001094 0.0003591 -0.0000767 0.0004165 -0.0000648 0.0006804 -0.0001113 0.0002424 -0.0000079 0.0003623 -0.0002478 -0.0006538
-0.0007694 0.0004751 0.0039805 -0.0011901 0.0037110 0.0047740 -0.0001820 0.0004569 -0.0001332 0.0003093 -0.0001203 0.0003106 -0.0001214 0.0005096 -0.0001329 0.0000900 -0.0000343 0.0001478 -0.0002569 -0.0007775
-0.0005869 0.0006392 -0.0027255 0.0048944 -0.0085311 0.0197118 -0.0001839 0.0000678 -0.0001309 -0.0000795 -0.0001445 -0.0000892 -0.0001551 0.0000828 -0.0001192 -0.0002518 -0.0000249 -0.0001844 -0.0002413 -0.0008901
-0.0005376 0.0006292 -0.0077683 0.0043878 -0.0162257 0.0197064 -0.0001636 -0.0000475 -0.0001211 -0.0001229 -0.0001302 -0.0000975 -0.0001253 0.0001399 -0.0000980 -0.0001655 -0.0000049 -0.0000937 -0.0002317 -0.0007925
0.0008997 -0.0006485 -0.0052654 -0.0001242 -0.0028738 0.0007525 -0.0001625 0.0001653 -0.0001274 0.0001044 -0.0001214 0.0001500 -0.0000993 0.0004288 -0.0000869 0.0001409 -0.0000106 0.0001237 -0.0002276 -0.0006158
0.0015388 -0.0001672 -0.0084220 0.0048079 -0.0023396 0.0017348 -0.0002016 0.0004899 -0.0001565 0.0004168 -0.0001150 0.0005196 -0.0001011 0.0007789 -0.0000559 0.0006529 -0.0000345 0.0004308 -0.0002172 -0.0004000
0.0013249 0.0003061 -0.0093586 0.0069232 -0.0051517 0.0049646 -0.0002527 0.0006164 -0.0001855 0.0004507 -0.0001081 0.0006564 -0.0001327 0.0007456 -0.0000187 0.0008062 -0.0000598 0.0003703 -0.0002084 -0.0004024
0.0006548 0.0004111 -0.0005260 0.0008207 -0.0010008 0.0022371 -0.0002819 0.0003373 -0.0001891 0.0001812 -0.0001048 0.0004288 -0.0001679 0.0003785 0.0000133 0.0006000 -0.0000587 0.0000683 -0.0001952 -0.0005636
0.0001589 0.0003966 0.0047121 -0.0026565 0.0052152 -0.0030582 -0.0002746 0.0001166 -0.0001810 0.0000813 -0.0000819 0.0003549 -0.0001676 0.0003163 0.0000276 0.0005811 -0.0000337 0.0000989 -0.0001975 -0.0005918
0.0003088 0.0004485 0.0036951 -0.0013860 0.0036127 -0.0023315 -0.0002622 0.0002512 -0.0001831 0.0002228 -0.0000664 0.0005454 -0.0001498 0.0005683 0.0000049 0.0006697 -0.0000286 0.0002778 -0.0002747 -0.0007900
-0.0012325 0.0020912 0.0030169 0.0008436 0.0028872 -0.0068180 -0.0002931 0.0005101 -0.0001983 0.0004868 -0.0000770 0.0007649 -0.0001482 0.0008696 -0.0000046 0.0008574 -0.0000484 0.0004249 -0.0003982 -0.0012534
-0.0023182 0.0021258 0.0056426 -0.0042955 0.0078274 -0.0147185 -0.0003296 0.0004317 -0.0002092 0.0003698 -0.0000950 0.0005561 -0.0001726 0.0006549 0.0000101 0.0006997 -0.0000562 0.0002241 -0.0005066 -0.0018048
-0.0010873 -0.0003490 0.0053662 -0.0043110 0.0050752 -0.0015802 -0.0003256 0.0000155 -0.0001994 -0.0000397 -0.0000991 0.0000915 -0.0001807 0.0002408 0.0000417 0.0003848 -0.0000418 -0.0000832 -0.0005705 -0.0022049
-0.0010114 -0.0000932 -0.0014099 0.0023648 -0.0001811 0.0053916 -0.0003158 -0.0001647 -0.0001773 -0.0000877 -0.0000884 -0.0000533 -0.0001434 0.0002871 0.0000859 0.0004268 -0.0000143 -0.0000370 -0.0005705 -0.0022231
-0.0010519 0.0005102 -0.0061156 0.0016835 -0.0068089 0.0011738 -0.0003107 -0.0000407 -0.0001785 0.0000759 -0.0000842 0.0000470 -0.0001234 0.0005090 0.0000962 0.0006041 -0.0000066 0.0001733 -0.0005412 -0.0019979
0.0003899 -0.0004878 -0.0057761 -0.0008212 -0.0077961 -0.0068756 -0.0003331 0.0002248 -0.0002042 0.0002725 -0.0001102 0.0001936 -0.0001541 0.0006154 0.0000737 0.0006372 -0.0000333 0.0001829 -0.0005033 -0.0018692
0.0010834 -0.0004834 -0.0093780 0.0030636 -0.0187923 0.0054755 -0.0003669 0.0000638 -0.0002112 0.0000703 -0.0001495 -0.0001402 -0.0002036 0.0002249 0.0000757 0.0003092 -0.0000419 -0.0001931 -0.0004402 -0.0019069
0.0011238 -0.0008493 -0.0106491 0.0051323 -0.0151587 0.0073547 -0.0003366 -0.0004064 -0.0001866 -0.0003592 -0.0001470 -0.0005967 -0.0001924 -0.0001820 0.0001088 0.0000163 -0.0000063 -0.0004635 -0.0003820 -0.0019410
0.0006898 -0.0005946 -0.0017419 0.0000625 0.0000818 0.0010081 -0.0002830 -0.0004961 -0.0001587 -0.0004230 -0.0001148 -0.0005955 -0.0001277 -0.0001155 0.0001309 0.0000324 0.0000251 -0.0003832 -0.0003615 -0.0018941
0.0003561 -0.0001916 0.0038851 -0.0040582 0.0049218 0.0001437 -0.0002525 -0.0003376 -0.0001469 -0.0002685 -0.0000977 -0.0004033 -0.0000889 0.0000961 0.0001214 0.0001614 0.0000234 -0.0001978 -0.0003463 -0.0017130
0.0004872 0.0000859 0.0030381 -0.0023409 0.0073828 -0.0033923 -0.0002420 -0.0000832 -0.0001531 -0.0000821 -0.0001044 -0.0001989 -0.0000918 0.0001870 0.0001105 0.0001668 0.0000092 -0.0002028 -0.0003028 -0.0015639
-0.0011635 0.0015163 0.0033277 -0.0004735 0.0034253 -0.0000591 -0.0002132 -0.0001949 -0.0001253 -0.0001749 -0.0001166 -0.0004043 -0.0001236 -0.0001968 0.0001265 -0.0001420 0.0000160 -0.0005627 -0.0002552 -0.0016148
-0.0021013 0.0010158 0.0061153 -0.0056757 0.0030177 -0.0057202 -0.0001364 -0.0005856 -0.0000657 -0.0004489 -0.0000895 -0.0006668 -0.0000980 -0.0005150 0.0001518 -0.0003902 0.0000632 -0.0007517 -0.0002321 -0.0016115
-0.0010503 -0.0007307 0.0053408 -0.0036199 0.0029738 -0.0013320 -0.0000662 -0.0006231 -0.0000269 -0.0004644 -0.0000506 -0.0004973 -0.0000175 -0.0003115 0.0001478 -0.0003827 0.0001025 -0.0005942 -0.0002145 -0.0013734
-0.0011163 0.0001251 -0.0004523 0.0027156 -0.0032704 0.0094072 -0.0000287 -0.0003964 -0.0000148 -0.0002738 -0.0000377 -0.0001712 0.0000328 0.0000307 0.0001120 -0.0002759 0.0001107 -0.0003445 -0.0001932 -0.0010523
-0.0009879 0.0005868 -0.0039589 0.0015267 -0.0045898 0.0027573 -0.0000233 -0.0000774 -0.0000312 0.0000006 -0.0000494 0.0001989 0.0000355 0.0003904 0.0000457 -0.0001314 0.0000960 -0.0000653 -0.0001878 -0.0007824
0.0004278 -0.0005144 -0.0063088 0.0014598 -0.0051202 -0.0038094 -0.0000467 -0.0000120 -0.0000431 -0.0000414 -0.0001024 0.0000976 -0.0000237 0.0001967 -0.0000196 -0.0004231 0.0000731 -0.0002704 -0.0001880 -0.0007933
0.0013020 -0.0011255 -0.0123469 0.0056319 -0.0189249 0.0082760 -0.0000464 -0.0003419 -0.0000363 -0.0004095 -0.0001419 -0.0003421 -0.0000724 -0.0003134 -0.0000338 -0.0008724 0.0000857 -0.0006391 -0.0001669 -0.0008985
0.0012038 -0.0012601 -0.0119575 0.0064284 -0.0277027 0.0120396 -0.0000167 -0.0005177 -0.0000280 -0.0005295 -0.0001368 -0.0004098 -0.0000558 -0.0003365 -0.0000282 -0.0008821 0.0001127 -0.0005655 -0.0001466 -0.0007976
0.0008340 -0.0007409 -0.0033476 0.0022914 -0.0066393 0.0026864 0.0000017 -0.0003443 -0.0000221 -0.0003335 -0.0001266 -0.0001861 -0.0000286 -0.0000868 -0.0000339 -0.0006625 0.0001124 -0.0003293 -0.0001314 -0.0005916
0.0006409 -0.0004989 0.0020848 -0.0019300 -0.0011322 0.0013988 0.0000042 -0.0000381 -0.0000273 -0.0000021 -0.0001244 0.0001179 -0.0000293 0.0002208 -0.0000668 -0.0003821 0.0000831 -0.0000355 -0.0001173 -0.0003439
0.0005751 -0.0001460 0.0012522 -0.0009989 -0.0003123 0.0019336 -0.0000062 0.0001157 -0.0000387 0.0000265 -0.0001418 0.0001529 -0.0000810 0.0001502 -0.0001039 -0.0004824 0.0000385 -0.0001859 -0.0001130 -0.0003197
-0.0008558 0.0009775 0.0027699 -0.0002486 -0.0017524 0.0079300 -0.0000076 -0.0001431 -0.0000367 -0.0003043 -0.0001464 -0.0001329 -0.0001313 -0.0002490 -0.0001032 -0.0007924 0.0000244 -0.0005104 -0.0000970 -0.0003710
-0.0017618 0.0005887 0.0067118 -0.0058490 0.0028126 -0.0016491 0.0000105 -0.0003707 -0.0000166 -0.0004233 -0.0001179 -0.0002237 -0.0001321 -0.0003229 -0.0000799 -0.0007676 0.0000243 -0.0004868 -0.0000753 -0.0002455
-0.0011125 -0.0007099 0.0060481 -0.0032340 0.0046451 -0.0010349 0.0000071 -0.0002558 -0.0000082 -0.0002490 -0.0000970 -0.0000461 -0.0001318 -0.0001429 -0.0000800 -0.0005889 0.0000071 -0.0003307 -0.0000557 -0.0000199
-0.0014105 0.0003115 0.0007744 0.0028297 -0.0000374 0.0047079 -0.0000072 -0.0000247 -0.0000322 -0.0000134 -0.0001040 0.0001946 -0.0001533 0.0000521 -0.0001005 -0.0004632 -0.0000202 -0.0001997 -0.0000342 0.0001192
-0.0013073 0.0004700 -0.0022671 0.0000434 0.0030112 -0.0040772 -0.0000182 -0.0001221 -0.0000465 -0.0001713 -0.0001274 0.0000192 -0.0001966 -0.0002260 -0.0001122 -0.0007231 -0.0000476 -0.0004836 -0.0000199 0.0000077
0.0006482 -0.0013742 -0.0052748 -0.0005869 -0.0005583 -0.0052116 -0.0000181 -0.0005430 -0.0000385 -0.0005923 -0.0001242 -0.0003876 -0.0002147 -0.0006801 -0.0000950 -0.0010532 -0.0000372 -0.0008068 0.0000016 -0.0000915
0.0016529 -0.0016071 -0.0126588 0.0054760 -0.0125043 0.0043138 0.0000090 -0.0007069 -0.0000218 -0.0006759 -0.0000852 -0.0003935 -0.0001754 -0.0006448 -0.0000594 -0.0010085 -0.0000057 -0.0007632 0.0000307 -0.0000275
0.0012217 -0.0009775 -0.0110764 0.0063865 -0.0113051 0.0050669 0.0000198 -0.0005945 -0.0000302 -0.0005562 -0.0000568 -0.0001692 -0.0001286 -0.0003539 -0.0000326 -0.0007586 0.0000232 -0.0004823 0.0000697 0.0001735
0.0007755 -0.0001892 -0.0023627 0.0022571 -0.0011251 0.0043424 -0.0000075 -0.0003498 -0.0000663 -0.0003569 -0.0000521 0.0000950 -0.0000936 -0.0000542 0.0000057 -0.0005230 0.0000282 -0.0004061 0.0000907 0.0002155
0.0007510 -0.0002900 0.0028765 -0.0025289 0.0011304 0.0015575 -0.0000239 -0.0004661 -0.0000793 -0.0005363 -0.0000561 -0.0000688 -0.0000812 -0.0002776 0.0000669 -0.0006299 0.0000353 -0.0007811 0.0001056 0.0000779
0.0008953 -0.0005923 0.0026991 -0.0022558 -0.0012691 0.0001646 0.0000000 -0.0009278 -0.0000663 -0.0009216 -0.0000135 -0.0003286 -0.0000350 -0.0005879 0.0001441 -0.0006995 0.0000751 -0.0009440 0.0001366 0.0000393
-0.0008682 0.0009990 0.0039104 -0.0004008 0.0007243 0.0045518 0.0000525 -0.0010224 -0.0000245 -0.0008179 0.0000574 -0.0001958 0.0000492 -0.0004324 0.0002056 -0.0004784 0.0001123 -0.0007525 0.0001501 0.0001062
-0.0017362 0.0009995 0.0074278 -0.0053916 0.0078387 -0.0101566 0.0000886 -0.0007958 0.0000082 -0.0004525 0.0001084 0.0000891 0.0000849 -0.0002253 0.0002811 0.0000326 0.0001289 -0.0004693 0.0001674 0.0002836
-0.0006537 -0.0002500 0.0063332 -0.0027506 0.0071265 -0.0078576 0.0001006 -0.0004326 0.0000034 0.0000275 0.0002233 0.0006303 0.0000852 -0.0001046 0.0003502 0.0004735 0.0001578 -0.0001918 0.0002251 0.0004701
-0.0007953 0.0005922 0.0001010 0.0034456 -0.0002449 0.0045629 0.0001169 -0.0004631 0.0000038 0.0000743 0.0002904 0.0006680 0.0000749 -0.0003404 0.0003492 0.0003302 0.0002116 -0.0001539 0.0003015 0.0005508
-0.0006479 0.0006709 -0.0037138 0.0017508 -0.0004433 0.0005110 0.0001472 -0.0007845 0.0000133 -0.0001762 0.0002808 0.0003503 0.0000893 -0.0005695 0.0003544 0.0002057 0.0002618 -0.0000933 0.0003586 0.0006057
0.0006526 -0.0002591 -0.0047424 0.0014282 -0.0025783 -0.0009132 0.0001779 -0.0007202 0.0000219 -0.0000578 0.0002805 0.0004179 0.0001304 -0.0003597 0.0003646 0.0003530 0.0002903 0.0001394 0.0003884 0.0007216
0.0014696 -0.0001991 -0.0082165 0.0047884 -0.0125385 0.0017424 0.0001933 -0.0004602 0.0000138 0.0001544 0.0002545 0.0006219 0.0001626 -0.0000323 0.0003378 0.0004968 0.0002954 0.0003695 0.0003930 0.0008360
0.0015282 0.0000451 -0.0093419 0.0065390 -0.0261366 0.0092104 0.0001869 -0.0003327 0.0000048 0.0001511 0.0002110 0.0005394 0.0001753 -0.0000146 0.0003162 0.0003684 0.0002833 0.0002903 0.0003813 0.0007329
0.0012720 0.0002715 -0.0024962 0.0027289 -0.0078581 0.0088760 0.0001740 -0.0005132 0.0000026 -0.0001012 0.0001781 0.0001692 0.0001857 -0.0002331 0.0003245 0.0001151 0.0002843 0.0000906 0.0003770 0.0005267
0.0012687 0.0000469 0.0036777 -0.0027120 0.0046260 0.0016553 0.0001859 -0.0006513 0.0000006 -0.0002082 0.0001796 0.0000625 0.0002199 -0.0001714 0.0003371 0.0001090 0.0003126 0.0002618 0.0003699 0.0004564
0.0012727 0.0004014 0.0026157 -0.0010395 0.0058772 -0.0005977 0.0001931 -0.0005043 0.0000009 -0.0000449 0.0001814 0.0001932 0.0002489 0.0000896 0.0003151 0.0001846 0.0003222 0.0005263 0.0003472 0.0004745
-0.0001133 0.0020313 0.0024778 0.0016321 0.0042577 0.0047825 0.0001793 -0.0002505 -0.0000037 0.0001712 0.0001558 0.0003271 0.0002288 0.0001813 0.0002503 0.0000128 0.0003078 0.0004891 0.0003194 0.0004055
-0.0008303 0.0018090 0.0046523 -0.0022481 0.0066255 -0.0055222 0.0001774 -0.0003639 -0.0000044 -0.0000179 0.0001069 0.0000570 0.0001600 -0.0001849 0.0001999 -0.0004487 0.0002988 0.0001095 0.0002952 0.0001949
-0.0002044 0.0004095 0.0034382 -0.0013689 0.0052205 -0.0009780 0.0002056 -0.0007017 0.0000097 -0.0003718 0.0000847 -0.0003227 0.0001273 -0.0005321 0.0001969 -0.0007043 0.0003141 -0.0000963 0.0002870 0.0001058
-0.0001982 0.0007444 -0.0009712 0.0029996 -0.0016837 0.0071720 0.0002501 -0.0006838 0.0000300 -0.0003416 0.0000869 -0.0003187 0.0001416 -0.0004880 0.0001962 -0.0006667 0.0003296 -0.0000822 0.0002884 0.0001600
-0.0000356 0.0009272 -0.0031042 0.0021298 -0.0067750 0.0027506 0.0002770 -0.0004608 0.0000341 -0.0001451 0.0000715 -0.0001344 0.0001386 -0.0003293 0.0001663 -0.0005990 0.0003143 -0.0001129 0.0002773 0.0002954
0.0010725 0.0002215 -0.0058428 0.0028796 -0.0000598 -0.0099734 0.0002812 -0.0002166 0.0000366 -0.0000160 0.0000345 -0.0000531 0.0001053 -0.0003726 0.0001325 -0.0007556 0.0002667 -0.0003889 0.0002471 0.0003087
0.0018305 -0.0002163 -0.0123393 0.0071781 -0.0035193 -0.0124021 0.0002892 -0.0003691 0.0000457 -0.0002311 0.0000011 -0.0003361 0.0000617 -0.0007615 0.0001296 -0.0011255 0.0002418 -0.0008080 0.0001816 0.0000153
0.0018076 -0.0004418 -0.0132056 0.0086142 -0.0126322 0.0041016 0.0003161 -0.0006971 0.0000569 -0.0004854 0.0000023 -0.0005681 0.0000615 -0.0009818 0.0001426 -0.0012827 0.0002574 -0.0008930 0.0001127 -0.0002624
0.0014885 -0.0000802 -0.0020707 0.0028793 -0.0011413 -0.0021861 0.0003451 -0.0006589 0.0000682 -0.0004258 0.0000195 -0.0004636 0.0000941 -0.0008661 0.0001434 -0.0011782 0.0002672 -0.0007286 0.0001081 -0.0002173
0.0014799 -0.0001166 0.0048471 -0.0029173 0.0128573 -0.0250109 0.0003529 -0.0004267 0.0000710 -0.0002332 0.0000300 -0.0002385 0.0001088 -0.0006427 0.0001302 -0.0009743 0.0002576 -0.0005207 0.0001349 0.0000161
0.0014060 0.0003982 0.0036842 -0.0009492 0.0035304 -0.0066040 0.0003394 -0.0001237 0.0000558 0.0000316 0.0000376 0.0000533 0.0001076 -0.0003326 0.0001146 -0.0007029 0.0002317 -0.0002760 0.0001541 0.0002286
-0.0004410 0.0021463 0.0039718 0.0013254 0.0006810 0.0071346 0.0003234 -0.0001340 0.0000457 -0.0000719 0.0000268 -0.0000781 0.0000847 -0.0005236 0.0001110 -0.0008644 0.0002013 -0.0004753 0.0001705 0.0002195
-0.0014025 0.0016343 0.0073140 -0.0045806 0.0101222 -0.0118673 0.0003362 -0.0005386 0.0000611 -0.0005039 0.0000243 -0.0005331 0.0000760 -0.0010176 0.0001340 -0.0012202 0.0002045 -0.0008201 0.0002000 0.0001251
-0.0005402 -0.0000134 0.0063740 -0.0023895 0.0061102 -0.0052947 0.0003659 -0.0007343 0.0000826 -0.0006344 0.0000537 -0.0006247 0.0001162 -0.0010380 0.0001639 -0.0011649 0.0002306 -0.0007330 0.0002337 0.0001809
-0.0006926 0.0009718 0.0000465 0.0044573 -0.0056257 0.0118488 0.0003826 -0.0006250 0.0000926 -0.0004951 0.0000855 -0.0004550 0.0001639 -0.0007787 0.0001746 -0.0009277 0.0002423 -0.0004594 0.0002512 0.0003249
-0.0005779 0.0014778 -0.0039127 0.0029893 -0.0086985 0.0067056 0.0003791 -0.0004190 0.0000805 -0.0002795 0.0001015 -0.0002153 0.0001871 -0.0004653 0.0001637 -0.0006320 0.0002282 -0.0001152 0.0002573 0.0004920
0.0011064 0.0004479 -0.0057773 0.0023564 -0.0053519 0.0026321 0.0003369 -0.0001320 0.0000533 0.0000184 0.0001079 0.0000561 0.0001835 -0.0001226 0.0001448 -0.0002625 0.0002166 0.0003746 0.0002660 0.0006930
0.0021694 0.0005894 -0.0117965 0.0083622 -0.0133264 0.0123913 0.0002733 -0.0000832 0.0000238 -0.0000532 0.0000780 -0.0000657 0.0001439 -0.0002728 0.0001366 -0.0004118 0.0002007 0.0001393 0.0002632 0.0005540
0.0020246 0.0004929 -0.0110751 0.0086574 -0.0209026 0.0167033 0.0002636 -0.0004519 0.0000170 -0.0005162 0.0000286 -0.0005383 0.0001042 -0.0008374 0.0001539 -0.0009307 0.0001883 -0.0006575 0.0002373 0.0001770
0.0013789 0.0004919 -0.0020044 0.0027542 -0.0052706 0.0061019 0.0002870 -0.0007586 0.0000215 -0.0007584 0.0000249 -0.0007111 0.0001238 -0.0009797 0.0001683 -0.0010091 0.0002120 -0.0007049 0.0002252 0.0001074
0.0009567 0.0008722 0.0036435 -0.0013255 0.0072486 -0.0048816 0.0002841 -0.0007154 0.0000129 -0.0007001 0.0000392 -0.0005750 0.0001536 -0.0007619 0.0001567 -0.0008408 0.0002272 -0.0004088 0.0001847 0.0000393
0.0009623 0.0011542 0.0031126 -0.0003437 0.0070195 -0.0026207 0.0002559 -0.0004834 -0.0000118 -0.0004753 0.0000397 -0.0003204 0.0001691 -0.0004441 0.0001413 -0.0005981 0.0002213 -0.0001675 0.0000654 -0.0003675
-0.0002588 0.0024053 0.0024791 0.0014944 -0.0000742 0.0102378 0.0002197 -0.0001466 -0.0000436 -0.0001540 0.0000369 0.0000209 0.0001765 -0.0000673 0.0001241 -0.0002443 0.0002029 0.0001943 0.0000027 -0.0005469
-0.0009951 0.0025496 0.0042367 -0.0016435 0.0043902 -0.0012575 0.0001975 -0.0000758 -0.0000577 -0.0001639 0.0000261 -0.0000192 0.0001548 -0.0001332 0.0001230 -0.0002685 0.0001745 0.0001647 0.0000325 -0.0004992
-0.0001844 0.0010873 0.0039100 -0.0008456 0.0078180 -0.0051602 0.0001844 -0.0004118 -0.0000535 -0.0005281 0.0000234 -0.0004146 0.0001374 -0.0005507 0.0001474 -0.0005744 0.0001695 -0.0001504 0.0000532 -0.0006150
-0.0000683 0.0012419 -0.0017760 0.0045943 -0.0039478 0.0091419 0.0002016 -0.0006361 -0.0000415 -0.0006589 0.0000417 -0.0005412 0.0001577 -0.0006270 0.0001662 -0.0005778 0.0001859 -0.0001039 0.0000534 -0.0006230
0.0000754 0.0014466 -0.0062486 0.0048616 -0.0125524 0.0040171 0.0002198 -0.0005400 -0.0000401 -0.0005221 0.0000489 -0.0003845 0.0001798 -0.0004519 0.0001574 -0.0004307 0.0001866 0.0000637 0.0000258 -0.0006395
0.0011410 0.0005275 -0.0051166 0.0018413 -0.0013197 -0.0113461 0.0002009 -0.0003012 -0.0000582 -0.0002963 0.0000412 -0.0001392 0.0001784 -0.0002005 0.0001273 -0.0002170 0.0001693 0.0003265 0.0000049 -0.0005324
0.0015305 0.0009749 -0.0069875 0.0049978 -0.0136854 0.0062181 0.0001587 -0.0000985 -0.0000734 -0.0002210 0.0000254 -0.0000728 0.0001504 -0.0001835 0.0001101 -0.0002599 0.0001364 0.0002848 0.0000066 -0.0005154
0.0014561 0.0007739 -0.0068754 0.0051638 -0.0214328 0.0160459 0.0001363 -0.0003309 -0.0000665 -0.0004795 0.0000095 -0.0004159 0.0001236 -0.0005808 0.0001339 -0.0005932 0.0001062 -0.0002477 -0.0000350 -0.0009052
0.0008872 0.0003886 0.0000507 -0.0006483 -0.0015132 -0.0003667 0.0001443 -0.0006924 -0.0000512 -0.0007094 0.0000134 -0.0006516 0.0001255 -0.0008722 0.0001603 -0.0007447 0.0000769 -0.0006095 -0.0001399 -0.0012768
0.0002749 0.0003715 0.0042587 -0.0034933 0.0039249 -0.0017869 0.0001780 -0.0006403 -0.0000149 -0.0005539 0.0000357 -0.0004660 0.0001177 -0.0008444 0.0001497 -0.0006512 -0.0000005 -0.0006447 -0.0003168 -0.0015796
0.0003048 -0.0004019 0.0041727 -0.0037354 0.0043361 0.0007499 0.0001875 -0.0003849 0.0000237 -0.0001229 0.0000456 -0.0002218 0.0001114 -0.0006059 0.0001257 -0.0003668 -0.0000849 -0.0004808 -0.0005069 -0.0018722
-0.0008273 0.0003168 0.0031271 -0.0020944 0.0077243 -0.0080555 0.0001191 -0.0001767 0.0000154 0.0001815 0.0000212 -0.0001678 0.0001334 -0.0003662 0.0001339 -0.0001208 -0.0001224 -0.0003493 -0.0006107 -0.0021623
-0.0014595 0.0003315 0.0028292 -0.0033869 0.0102928 -0.0176696 0.0000512 -0.0004641 -0.0000030 -0.0000754 -0.0000085 -0.0005799 0.0001307 -0.0006406 0.0001547 -0.0002922 -0.0001405 -0.0005636 -0.0004456 -0.0019261
-0.0004400 -0.0010148 0.0023097 -0.0027578 0.0036844 -0.0005254 0.0000428 -0.0009169 0.0000075 -0.0004572 -0.0000252 -0.0010801 0.0001416 -0.0009164 0.0001450 -0.0005188 -0.0001384 -0.0007077 -0.0001656 -0.0011429
-0.0001540 -0.0003186 -0.0047789 0.0048821 -0.0078878 0.0128948 0.0000705 -0.0009185 0.0000248 -0.0004424 -0.0000222 -0.0010899 0.0001748 -0.0007919 0.0001037 -0.0005212 -0.0001312 -0.0005397 -0.0000651 -0.0006715
0.0000306 0.0000248 -0.0113483 0.0068700 -0.0192003 0.0144495 0.0000891 -0.0006856 0.0000294 -0.0001951 0.0000047 -0.0007541 0.0001684 -0.0006044 0.0000477 -0.0004132 -0.0001463 -0.0002618 -0.0000570 -0.0004531
0.0011886 -0.0008775 -0.0038369 -0.0015157 0.0005813 -0.0072370 0.0000712 -0.0003434 0.0000163 0.0001691 0.0000101 -0.0003700 0.0001399 -0.0003594 0.0000014 -0.0002620 -0.0001800 -0.0000844 -0.0000673 -0.0003752
0.0015891 -0.0002749 -0.0023606 0.0010193 0.0020786 -0.0028849 0.0000394 -0.0003919 0.0000164 0.0000653 -0.0000169 -0.0005413 0.0000791 -0.0006381 -0.0000197 -0.0004806 -0.0002053 -0.0002889 -0.0000605 -0.0004765
0.0015542 -0.0004851 -0.0033764 0.0019020 -0.0049320 0.0028003 0.0000500 -0.0008193 0.0000439 -0.0003648 -0.0000181 -0.0009629 0.0000512 -0.0011304 -0.0000140 -0.0007613 -0.0001918 -0.0004502 -0.0000479 -0.0005319
0.0006730 -0.0005077 0.0030834 -0.0047104 -0.0006167 -0.0017467 0.0000826 -0.0008955 0.0000555 -0.0004537 0.0000029 -0.0009380 0.0000752 -0.0011137 -0.0000191 -0.0006814 -0.0001698 -0.0002250 -0.0000563 -0.0004504
-0.0005897 0.0010494 0.0052813 -0.0029111 0.0028089 0.0042998 0.0000971 -0.0006369 0.0000361 -0.0003054 0.0000139 -0.0006622 0.0000867 -0.0008436 -0.0000498 -0.0004524 -0.0001850 0.0000368 0.0000322 0.0001314
-0.0003222 0.0012834 0.0031359 -0.0006044 0.0064122 -0.0047254 0.0000574 -0.0002839 0.0000030 0.0000218 0.0000114 -0.0003321 0.0000752 -0.0004952 -0.0001118 -0.0002023 -0.0002381 0.0002886 0.0001948 0.0011214
-0.0003635 0.0015915 0.0007005 0.0003438 0.0063693 -0.0089417 0.0000158 -0.0000810 -0.0000086 0.0001945 -0.0000066 -0.0002793 -0.0000138 -0.0006883 -0.0001696 -0.0002589 -0.0003341 0.0000787 0.0001741 0.0011590
-0.0007902 0.0016179 -0.0006439 0.0014080 -0.0001335 0.0012402 0.0000213 -0.0003285 0.0000219 0.0000896 -0.0000157 -0.0005818 -0.0001064 -0.0013270 -0.0001816 -0.0005712 -0.0004013 -0.0004679 0.0000795 0.0006173
-0.0000146 0.0002469 -0.0001160 0.0005829 -0.0021844 0.0013423 0.0000471 -0.0005685 0.0000599 0.0000439 0.0000071 -0.0007182 -0.0000918 -0.0014849 -0.0001790 -0.0006599 -0.0003987 -0.0005142 0.0000827 0.0005666
0.0006588 0.0000122 -0.0044114 0.0040868 -0.0098124 0.0093620 0.0000719 -0.0004309 0.0000741 0.0001365 0.0000414 -0.0005179 -0.0000377 -0.0012037 -0.0001906 -0.0005036 -0.0003854 -0.0001942 0.0001089 0.0007813
0.0007116 0.0004277 -0.0084861 0.0067141 -0.0286543 0.0214954 0.0000628 -0.0001385 0.0000640 0.0003354 0.0000494 -0.0002216 0.0000023 -0.0007990 -0.0002160 -0.0002518 -0.0003841 0.0001839 0.0001384 0.0010858
0.0008944 0.0003217 -0.0019501 0.0005815 -0.0054719 -0.0048256 0.0000285 0.0002520 0.0000286 0.0006360 0.0000369 0.0001296 0.0000117 -0.0003476 -0.0002444 0.0000306 -0.0004030 0.0004801 0.0001499 0.0012476
0.0007133 0.0008951 0.0005390 0.0002448 0.0015179 -0.0044796 -0.0000161 0.0002216 0.0000003 0.0004726 0.0000114 -0.0000063 -0.0000227 -0.0004860 -0.0002533 -0.0001262 -0.0004238 0.0002777 0.0001483 0.0011576
0.0007577 0.0005694 0.0002359 0.0003128 0.0022250 -0.0044262 -0.0000236 -0.0002122 -0.0000027 -0.0000366 0.0000057 -0.0004353 -0.0000399 -0.0009351 -0.0002369 -0.0004399 -0.0004179 -0.0000288 0.0001612 0.0010621
0.0000196 0.0003476 0.0030455 -0.0040628 0.0065809 -0.0174354 0.0000090 -0.0003360 0.0000053 -0.0001474 0.0000292 -0.0004481 -0.0000043 -0.0009002 -0.0002221 -0.0003580 -0.0003941 0.0000986 0.0001880 0.0011562
-0.0010387 0.0015672 0.0033933 -0.0013408 0.0036747 -0.0021496 0.0000338 -0.0001086 0.0000142 0.0000495 0.0000405 -0.0002167 0.0000257 -0.0006128 -0.0002263 -0.0001142 -0.0003843 0.0003943 0.0001710 0.0012595
-0.0008948 0.0016510 0.0034032 -0.0007634 0.0058495 0.0007086 0.0000306 0.0002690 0.0000060 0.0003787 0.0000315 0.0001017 0.0000271 -0.0002509 -0.0002519 0.0001851 -0.0003937 0.0007517 0.0000481 0.0010585
-0.0004753 0.0012511 0.0003888 -0.0004109 0.0009904 -0.0019609 0.0000080 0.0006470 -0.0000086 0.0006035 -0.0000166 0.0002407 0.0000035 -0.0001088 -0.0002843 0.0002134 -0.0004131 0.0007637 -0.0001223 0.0004029
-0.0003694 0.0012850 -0.0041476 0.0039384 -0.0085950 0.0116255 -0.0000512 0.0004795 -0.0002486 -0.0004439 -0.0002557 -0.0005304 -0.0000150 -0.0002630 -0.0003403 -0.0001625 -0.0004148 0.0004903 -0.0002652 -0.0002619
0.0000199 0.0004805 -0.0033241 0.0025045 -0.0125595 0.0146813 -0.0001195 0.0001078 -0.0005782 -0.0019300 -0.0005072 -0.0013554 0.0000267 -0.0001872 -0.0003818 -0.0003296 -0.0003845 0.0005454 -0.0003488 -0.0005752
0.0006528 -0.0003876 -0.0034309 0.0015187 -0.0121099 0.0054592 -0.0001335 0.0001838 -0.0006476 -0.0021534 -0.0005572 -0.0013044 0.0000739 0.0001291 -0.0003881 -0.0001249 -0.0003587 0.0008516 -0.0004100 -0.0007612
0.0007210 -0.0000777 -0.0045325 0.0042540 -0.0058423 0.0042940 -0.0001167 0.0004401 -0.0005186 -0.0015112 -0.0005226 -0.0009683 0.0000664 0.0003165 -0.0003777 0.0001750 -0.0003661 0.0011153 -0.0005425 -0.0011585
0.0001401 0.0005758 -0.0012151 0.0021026 -0.0015805 0.0045990 -0.0001048 0.0006248 -0.0003343 -0.0007189 -0.0004022 -0.0005828 0.0000319 0.0001586 -0.0003384 0.0002212 -0.0003979 0.0009783 -0.0007054 -0.0017832
-0.0003030 0.0004195 0.0018967 -0.0017190 0.0049759 -0.0012668 -0.0000919 0.0003897 -0.0002125 -0.0004865 -0.0002869 -0.0005691 0.0000053 -0.0002753 -0.0003070 -0.0000365 -0.0004076 0.0006060 -0.0007954 -0.0022214
-0.0002051 0.0000586 0.0019069 -0.0019987 0.0057019 -0.0025702 -0.0000771 0.0000796 -0.0001617 -0.0005621 -0.0002567 -0.0007936 0.0000207 -0.0004071 -0.0002957 -0.0001093 -0.0003818 0.0005636 -0.0007869 -0.0022411
-0.0006503 0.0003311 0.0010871 -0.0020739 0.0046906 -0.0112174 -0.0000560 0.0001379 -0.0001603 -0.0004681 -0.0002418 -0.0007208 0.0000555 -0.0001761 -0.0002936 0.0000656 -0.0003755 0.0007448 -0.0007433 -0.0020276
-0.0011712 0.0009762 0.0003424 -0.0008264 0.0039260 -0.0157178 -0.0000478 0.0004161 -0.0001603 -0.0001681 -0.0002081 -0.0003735 0.0000596 0.0001259 -0.0003109 0.0003580 -0.0003926 0.0010126 -0.0006921 -0.0017008
-0.0012278 0.0013029 0.0009224 -0.0007568 0.0056337 -0.0068191 -0.0000620 0.0005446 -0.0001425 -0.0000943 -0.0002198 -0.0003596 -0.0000171 -0.0001220 -0.0003372 0.0002113 -0.0004135 0.0008255 -0.0005993 -0.0014755
-0.0001957 0.0000041 -0.0040765 0.0003529 0.0006251 -0.0002132 -0.0000497 0.0002250 -0.0001074 -0.0003777 -0.0002361 -0.0007096 -0.0000876 -0.0007526 -0.0003268 -0.0002188 -0.0004096 0.0003736 -0.0004731 -0.0013358
0.0006349 -0.0006549 -0.0114604 0.0064991 -0.0212935 0.0166648 -0.0000043 -0.0000551 -0.0000648 -0.0005170 -0.0001644 -0.0007612 -0.0000221 -0.0008042 -0.0002271 -0.0000446 -0.0003651 0.0003613 -0.0003520 -0.0009729
0.0006802 0.0000177 -0.0101451 0.0060177 -0.0284120 0.0206882 0.0000402 0.0000334 -0.0000249 -0.0003153 -0.0000347 -0.0003887 0.0000894 -0.0004627 -0.0001288 0.0004271 -0.0003275 0.0005887 -0.0002635 -0.0005543
0.0009999 -0.0004424 -0.0020639 -0.0013425 -0.0044149 0.0026891 0.0000540 0.0003120 0.0000026 0.0000640 0.0000329 0.0000216 0.0001369 -0.0001076 -0.0001253 0.0007239 -0.0003252 0.0008289 -0.0002223 -0.0003164
0.0007614 -0.0003563 0.0018688 -0.0011970 0.0032437 0.0007562 0.0000504 0.0003469 0.0000296 0.0000865 0.0000179 -0.0000954 0.0001069 -0.0002698 -0.0001380 0.0005185 -0.0003352 0.0006160 -0.0001990 -0.0003630
-0.0008031 0.0007453 0.0023464 0.0007408 0.0052882 0.0033155 0.0000747 -0.0000019 0.0000656 -0.0002601 0.0000169 -0.0005105 0.0000874 -0.0007316 -0.0001244 0.0001028 -0.0003121 0.0002567 -0.0001778 -0.0005019
-0.0016199 0.0005538 0.0051107 -0.0041113 0.0093934 -0.0104398 0.0001363 -0.0001964 0.0001023 -0.0003546 0.0000513 -0.0005731 0.0001350 -0.0007443 -0.0001124 0.0000551 -0.0002689 0.0003021 -0.0001588 -0.0004672
-0.0013415 0.0007243 0.0044478 -0.0035056 0.0071061 -0.0120915 0.0001788 -0.0000654 0.0001199 -0.0001835 0.0000736 -0.0003702 0.0001785 -0.0004826 -0.0001226 0.0002070 -0.0002462 0.0005100 -0.0001450 -0.0003249
-0.0010793 0.0012866 -0.0027942 0.0031820 -0.0026831 0.0045296 0.0001744 0.0002233 0.0001130 0.0000918 0.0000710 -0.0000962 0.0001863 -0.0001807 -0.0001406 0.0003854 -0.0002512 0.0006670 -0.0001357 -0.0002524
-0.0003697 0.0003653 -0.0071347 0.0032520 -0.0072304 0.0002940 0.0001654 0.0001855 0.0001166 0.0000029 0.0000488 -0.0002473 0.0001540 -0.0003963 -0.0001473 0.0002065 -0.0002597 0.0004321 -0.0001223 -0.0003730
-0.0003768 0.0001599 -0.0051920 0.0025987 -0.0107519 0.0100199 0.0001846 -0.0001673 0.0001454 -0.0003358 0.0000434 -0.0006246 0.0001452 -0.0008075 -0.0001367 -0.0000617 -0.0002367 0.0001700 -0.0001073 -0.0004870
0.0003090 -0.0000662 -0.0052657 0.0044052 -0.0130484 0.0143003 0.0002173 -0.0002457 0.0001765 -0.0003512 0.0000705 -0.0006109 0.0001860 -0.0007286 -0.0001182 0.0000043 -0.0002025 0.0002648 -0.0000929 -0.0004526
0.0012956 -0.0008949 -0.0033520 0.0011426 -0.0069259 -0.0003908 0.0002387 -0.0000701 0.0001902 -0.0001510 0.0000864 -0.0003909 0.0002147 -0.0004649 -0.0001199 0.0001954 -0.0001906 0.0004615 -0.0000863 -0.0003339
0.0010593 -0.0001332 -0.0036363 0.0022118 -0.0060290 0.0006999 0.0002306 0.0001995 0.0001896 0.0000939 0.0000759 -0.0001839 0.0002122 -0.0003159 -0.0001295 0.0002663 -0.0002041 0.0004635 -0.0000826 -0.0003393
0.0002240 0.0004524 0.0010866 0.0001322 0.0037622 -0.0049830 0.0002191 0.0000992 0.0001960 -0.0000141 0.0000599 -0.0003568 0.0001752 -0.0005653 -0.0001254 0.0000770 -0.0002101 0.0002098 -0.0000760 -0.0004834
-0.0002089 -0.0000927 0.0059533 -0.0048759 0.0110317 -0.0092808 0.0002380 -0.0002136 0.0002157 -0.0002595 0.0000716 -0.0006036 0.0001688 -0.0007726 -0.0001103 -0.0000301 -0.0001832 0.0001170 -0.0000634 -0.0005298
-0.0009923 0.0002908 0.0049612 -0.0017241 0.0084371 -0.0045379 0.0002725 -0.0002095 0.0002360 -0.0002024 0.0000966 -0.0005076 0.0002005 -0.0006004 -0.0001026 0.0000957 -0.0001598 0.0002668 -0.0000502 -0.0004522
-0.0016810 0.0009632 0.0026678 -0.0000104 0.0013812 0.0019179 0.0002868 -0.0000190 0.0002395 -0.0000046 0.0001066 -0.0002816 0.0002182 -0.0003380 -0.0001109 0.0002906 -0.0001604 0.0004626 -0.0000439 -0.0003631
-0.0012624 0.0008719 0.0005365 -0.0012864 0.0019885 -0.0026390 0.0002748 -0.0000024 0.0002381 -0.0000391 0.0000917 -0.0003643 0.0001923 -0.0004999 -0.0001124 0.0001505 -0.0001667 0.0002858 -0.0000383 -0.0004515
0.0000240 -0.0001194 -0.0056696 0.0024915 0.0022285 -0.0064691 0.0002888 -0.0003005 0.0002598 -0.0003110 0.0000875 -0.0006909 0.0001770 -0.0008856 -0.0000918 -0.0001506 -0.0001478 -0.0000172 -0.0000299 -0.0005956
0.0011125 -0.0009035 -0.0123848 0.0062366 -0.0129877 0.0076670 0.0003321 -0.0004471 0.0002961 -0.0003547 0.0001162 -0.0007174 0.0002165 -0.0008476 -0.0000648 -0.0001386 -0.0001091 0.0000390 -0.0000151 -0.0005858
0.0010931 -0.0006973 -0.0099964 0.0055394 -0.0307768 0.0260627 0.0003580 -0.0003016 0.0003133 -0.0001714 0.0001380 -0.0005038 0.0002577 -0.0005893 -0.0000574 0.0000381 -0.0000871 0.0002371 -0.0000048 -0.0004701
0.0007792 -0.0000811 -0.0018467 0.0020009 -0.0122027 0.0168994 0.0003495 -0.0000332 0.0003047 0.0000899 0.0001376 -0.0002445 0.0002652 -0.0003596 -0.0000616 0.0001571 -0.0000940 0.0003080 -0.0000086 -0.0004414
0.0005424 -0.0000614 0.0040177 -0.0024108 0.0025600 0.0019080 0.0003433 -0.0001387 0.0003084 -0.0000327 0.0001229 -0.0004345 0.0002247 -0.0006425 -0.0000537 -0.0000722 -0.0001013 0.0000338 -0.0000036 -0.0005933
0.0004752 -0.0004292 0.0041234 -0.0032409 0.0024851 0.0002544 0.0003724 -0.0005440 0.0003421 -0.0003957 0.0001352 -0.0008109 0.0002215 -0.0010254 -0.0000291 -0.0003045 -0.0000717 -0.0001743 0.0000128 -0.0006963
-0.0007418 0.0005752 0.0028824 -0.0010695 -0.0006159 0.0045910 0.0004229 -0.0006178 0.0003755 -0.0004187 0.0001690 -0.0007730 0.0002741 -0.0009225 -0.0000051 -0.0002294 -0.0000347 -0.0000539 0.0000263 -0.0006428
-0.0014994 0.0010678 0.0030542 -0.0017117 0.0055293 -0.0034274 0.0004569 -0.0004404 0.0003852 -0.0002260 0.0001883 -0.0005468 0.0003120 -0.0006550 -0.0000064 -0.0000368 -0.0000268 0.0001707 0.0000333 -0.0005087
0.0000273 -0.0003194 0.0028555 -0.0013311 0.0079179 -0.0066486 0.0004458 -0.0001598 0.0003692 0.0000502 0.0001861 -0.0002576 0.0003119 -0.0003347 -0.0000379 0.0002184 -0.0000405 0.0004371 0.0000356 -0.0003420
0.0007201 -0.0002295 -0.0047489 0.0053308 -0.0060653 0.0090258 0.0004107 -0.0000525 0.0003595 0.0000626 0.0001538 -0.0002965 0.0002656 -0.0004676 -0.0000569 0.0000999 -0.0000654 0.0002668 0.0000457 -0.0004093
0.0007845 -0.0003416 -0.0123412 0.0079497 -0.0300518 0.0221934 0.0004118 -0.0003822 0.0003761 -0.0002697 0.0001342 -0.0006885 0.0002310 -0.0009574 -0.0000358 -0.0002682 -0.0000639 -0.0001469 0.0000557 -0.0006307
0.0011820 -0.0015732 -0.0010200 -0.0035722 -0.0013871 -0.0063746 0.0004543 -0.0006686 0.0004013 -0.0004368 0.0001578 -0.0008207 0.0002630 -0.0010270 -0.0000078 -0.0003025 -0.0000294 -0.0001575 0.0000645 -0.0006695
0.0010138 -0.0008249 0.0028343 -0.0033791 0.0067239 -0.0054079 0.0004782 -0.0005812 0.0004132 -0.0003121 0.0001833 -0.0006355 0.0003024 -0.0007499 0.0000015 -0.0001102 -0.0000057 0.0000607 0.0000720 -0.0005673
0.0010794 -0.0005391 0.0023191 -0.0017067 0.0026090 -0.0003701 0.0004742 -0.0003366 0.0004025 -0.0000759 0.0001863 -0.0003686 0.0003025 -0.0004280 -0.0000174 0.0001355 -0.0000088 0.0003258 0.0000760 -0.0003978
0.0000473 -0.0001802 0.0048811 -0.0062082 0.0060742 -0.0151680 0.0004484 0.0000025 0.0003750 0.0002587 0.0001706 -0.0000489 0.0002767 -0.0000768 -0.0000521 0.0004148 -0.0000367 0.0005783 0.0000749 -0.0002650
-0.0014145 0.0014334 0.0044728 -0.0028515 0.0068755 -0.0100453 0.0004189 0.0000238 0.0003573 0.0002020 0.0001332 -0.0001626 0.0002180 -0.0002607 -0.0000734 0.0002776 -0.0000689 0.0003756 0.0000735 -0.0003436
-0.0013068 0.0010588 0.0045381 -0.0031383 0.0075160 -0.0074673 0.0004236 -0.0003521 0.0003661 -0.0001766 0.0001151 -0.0005659 0.0001905 -0.0007302 -0.0000615 -0.0000584 -0.0000615 0.0000228 0.0000828 -0.0004814
-0.0003541 -0.0003903 -0.0002129 -0.0035530 0.0011184 -0.0108228 0.0004531 -0.0004812 0.0003850 -0.0002213 0.0001354 -0.0005789 0.0002263 -0.0006874 -0.0000396 -0.0000216 -0.0000324 0.0000857 0.0000870 -0.0004527
0.0001060 0.0000523 -0.0088013 0.0056103 -0.0145748 0.0131611 0.0004685 -0.0002703 0.0003844 -0.0000202 0.0001469 -0.0003347 0.0002501 -0.0003905 -0.0000454 0.0001813 -0.0000302 0.0003118 0.0000879 -0.0003235
0.0006694 0.0003958 -0.0073237 0.0047197 -0.0126310 0.0117408 0.0004541 0.0000142 0.0003578 0.0002483 0.0001348 -0.0000355 0.0002376 -0.0000801 -0.0000801 0.0004283 -0.0000465 0.0005861 0.0000906 -0.0001419
0.0015787 -0.0005674 -0.0028000 -0.0006977 -0.0052733 -0.0014875 0.0003975 0.0002829 0.0003342 0.0004045 0.0001047 0.0000949 0.0001828 -0.0000364 -0.0001096 0.0004244 -0.0000812 0.0005220 0.0000883 -0.0001319
0.0013170 -0.0005422 -0.0015050 0.0012191 -0.0035249 0.0060033 0.0003557 0.0001194 0.0003256 0.0002047 0.0000761 -0.0001629 0.0001101 -0.0003749 -0.0001088 0.0001541 -0.0000981 0.0002095 0.0000901 -0.0002586
-0.0002476 0.0003255 0.0016376 0.0003867 0.0004086 0.0078391 0.0003808 -0.0001766 0.0003323 -0.0000055 0.0000830 -0.0003665 0.0000974 -0.0005268 -0.0000922 0.0000613 -0.0000776 0.0001726 0.0000960 -0.0002628
-0.0010467 0.0001604 0.0061957 -0.0052571 0.0074862 -0.0010814 0.0004100 -0.0000785 0.0003346 0.0000955 0.0001036 -0.0002134 0.0001245 -0.0003059 -0.0000918 0.0002163 -0.0000654 0.0003662 0.0000953 -0.0001524
-0.0009163 0.0004723 0.0055282 -0.0038747 0.0052526 0.0009211 0.0004051 0.0001830 0.0003104 0.0003335 0.0001000 0.0000571 0.0001248 -0.0000173 -0.0001199 0.0004467 -0.0000777 0.0006218 0.0000890 0.0000195
-0.0012112 0.0012560 -0.0002672 0.0011032 -0.0040892 0.0086920 0.0003668 0.0003772 0.0002865 0.0004261 0.0000703 0.0001240 0.0000790 -0.0000415 -0.0001428 0.0003787 -0.0001107 0.0005000 0.0000876 -0.0000262
-0.0009256 0.0002882 -0.0040171 0.0007129 -0.0091628 0.0065405 0.0003399 0.0001085 0.0002849 0.0001572 0.0000463 -0.0001958 0.0000328 -0.0004545 -0.0001302 0.0000330 -0.0001165 0.0001135 0.0000936 -0.0002366
-0.0009010 -0.0000494 -0.0035666 0.0016388 -0.0080544 0.0058828 0.0003665 -0.0002283 0.0003025 -0.0000788 0.0000665 -0.0004044 0.0000554 -0.0006040 -0.0001008 -0.0000681 -0.0000791 0.0000564 0.0000978 -0.0002696
0.0002204 -0.0005391 -0.0061116 0.0043306 -0.0099272 0.0066321 0.0003992 -0.0001605 0.0003142 -0.0000035 0.0000957 -0.0002599 0.0001005 -0.0003779 -0.0000881 0.0000758 -0.0000538 0.0002510 0.0000994 -0.0001547
0.0017007 -0.0016660 -0.0059357 0.0020888 -0.0066225 0.0015170 0.0003873 0.0000757 0.0002977 0.0002245 0.0000963 0.0000039 0.0001078 -0.0000721 -0.0001042 0.0002868 -0.0000558 0.0005088 0.0000935 0.0000083
0.0013428 -0.0005364 -0.0057687 0.0031858 -0.0141954 0.0107641 0.0003358 0.0004040 0.0002609 0.0005490 0.0000758 0.0003055 0.0000852 0.0002058 -0.0001263 0.0004261 -0.0000785 0.0006049 0.0000791 0.0000223
0.0003797 0.0001412 0.0007143 -0.0003930 -0.0074230 0.0102749 0.0002913 0.0002684 0.0002487 0.0003957 0.0000443 0.0000808 0.0000272 -0.0001206 -0.0001328 0.0001563 -0.0000954 0.0002911 0.0000790 -0.0001475
-0.0002199 -0.0005876 0.0062756 -0.0055483 0.0025872 0.0035727 0.0003131 -0.0002219 0.0002711 -0.0000490 0.0000422 -0.0003744 0.0000103 -0.0005920 -0.0001173 -0.0001583 -0.0000740 0.0000233 0.0000915 -0.0002451
-0.0011724 -0.0002546 0.0049072 -0.0017850 0.0032290 0.0068732 0.0003618 -0.0003149 0.0002866 -0.0000787 0.0000712 -0.0003507 0.0000648 -0.0004905 -0.0000992 -0.0000969 -0.0000450 0.0001329 0.0000983 -0.0001888
-0.0019730 0.0004675 0.0029199 -0.0006935 0.0053903 0.0007307 0.0003702 -0.0001048 0.0002795 0.0001132 0.0000856 -0.0001096 0.0001001 -0.0002077 -0.0001062 0.0001120 -0.0000365 0.0003579 0.0001023 -0.0000546
-0.0015565 0.0005674 0.0009130 -0.0019781 0.0028126 -0.0031520 0.0003326 0.0001928 0.0002471 0.0003989 0.0000704 0.0001891 0.0000904 0.0001133 -0.0001379 0.0003697 -0.0000546 0.0006366 0.0000990 0.0001113
-0.0000839 0.0000332 -0.0064201 0.0034385 -0.0067063 0.0073240 0.0002709 0.0003686 0.0002157 0.0004921 0.0000324 0.0002395 0.0000411 0.0000987 -0.0001643 0.0003219 -0.0000899 0.0005308 0.0000943 0.0000615
0.0010397 -0.0007570 -0.0149803 0.0081030 -0.0224106 0.0189461 0.0002306 0.0001248 0.0002034 0.0002350 0.0000021 -0.0000862 -0.0000062 -0.0002872 -0.0001569 0.0000206 -0.0000934 0.0001723 0.0000964 -0.0001231
0.0011136 -0.0011997 -0.0119358 0.0062277 -0.0281518 0.0199022 0.0002419 -0.0001205 0.0002046 0.0000750 0.0000088 -0.0002647 0.0000057 -0.0003955 -0.0001343 -0.0000360 -0.0000641 0.0001481 0.0001042 -0.0001488
0.0006815 -0.0007295 -0.0015821 0.0008587 -0.0073949 0.0029771 0.0002646 -0.0000104 0.0002016 0.0001879 0.0000266 -0.0001235 0.0000403 -0.0001861 -0.0001287 0.0001227 -0.0000488 0.0003208 0.0001094 -0.0000668
0.0003898 -0.0003881 0.0045295 -0.0035024 0.0031216 0.0000105 0.0002540 0.0002077 0.0001796 0.0003930 0.0000258 0.0000903 0.0000437 0.0000530 -0.0001495 0.0003303 -0.0000579 0.0005330 0.0001091 0.0000538
0.0003464 -0.0001858 0.0042039 -0.0031037 0.0028521 0.0012272 0.0002155 0.0002849 0.0001613 0.0003901 0.0000017 0.0000325 0.0000018 -0.0000783 -0.0001576 0.0002114 -0.0000779 0.0003536 0.0001106 -0.0000286
-0.0010960 0.0007886 0.0029448 -0.0012692 0.0031794 -0.0034288 0.0002089 0.0000147 0.0001634 0.0001227 -0.0000083 -0.0002992 -0.0000278 -0.0004695 -0.0001294 -0.0001004 -0.0000658 -0.0000032 0.0001152 -0.0002131
-0.0019143 0.0006935 0.0031112 -0.0027614 0.0098739 -0.0118036 0.0002484 -0.0001681 0.0001774 0.0000215 0.0000218 -0.0003889 0.0000126 -0.0004936 -0.0000945 -0.0001176 -0.0000225 0.0000044 0.0001204 -0.0002253
-0.0002868 -0.0009705 0.0026895 -0.0019761 0.0065464 -0.0042143 0.0002751 -0.0000113 0.0001823 0.0001808 0.0000536 -0.0001991 0.0000594 -0.0002413 -0.0000852 0.0000494 0.0000000 0.0001859 0.0001158 -0.0001285
0.0004939 -0.0008243 -0.0061396 0.0058494 -0.0097741 0.0129065 0.0002678 0.0002517 0.0001620 0.0004318 0.0000574 0.0000698 0.0000633 0.0000297 -0.0001093 0.0002607 -0.0000080 0.0004168 0.0001028 0.0000067
0.0005986 -0.0004351 -0.0142560 0.0089824 -0.0215129 0.0175859 0.0002277 0.0004602 0.0001399 0.0005513 0.0000328 0.0001388 0.0000270 -0.0000286 -0.0001248 0.0001649 -0.0000382 0.0002408 0.0001037 -0.0000801
0.0010967 -0.0016990 -0.0014825 -0.0039648 0.0016097 -0.0078385 0.0002022 0.0001647 0.0001420 0.0002635 0.0000161 -0.0002394 -0.0000089 -0.0005251 -0.0001010 -0.0002398 -0.0000344 -0.0002409 0.0001181 -0.0003450
0.0010702 -0.0016864 0.0029436 -0.0047971 0.0050010 -0.0027408 0.0002330 -0.0002705 0.0001709 -0.0000473 0.0000468 -0.0005539 0.0000201 -0.0007916 -0.0000560 -0.0004216 0.0000161 -0.0003708 0.0001324 -0.0004461
0.0011192 -0.0016707 0.0026348 -0.0036235 0.0030016 -0.0019052 0.0002851 -0.0002729 0.0002027 -0.0000107 0.0000968 -0.0004836 0.0000870 -0.0006354 -0.0000268 -0.0003244 0.0000550 -0.0002168 0.0001440 -0.0003905
-0.0001005 -0.0013031 0.0055879 -0.0089496 0.0080310 -0.0167937 0.0003041 -0.0000739 0.0002105 0.0001997 0.0001238 -0.0002860 0.0001239 -0.0003740 -0.0000262 -0.0001350 0.0000695 -0.0000069 0.0001451 -0.0002812
-0.0018332 0.0008184 0.0051698 -0.0044320 0.0063929 -0.0058641 0.0002829 0.0002131 0.0001875 0.0005032 0.0001286 -0.0000209 0.0001275 -0.0000643 -0.0000510 0.0001142 0.0000598 0.0002421 0.0001439 -0.0001593
-0.0016743 0.0009667 0.0053340 -0.0040519 0.0088080 -0.0099823 0.0002518 0.0002586 0.0001698 0.0004965 0.0001089 -0.0001197 0.0000930 -0.0002504 -0.0000612 -0.0000401 0.0000385 0.0000261 0.0001555 -0.0002616
-0.0004233 -0.0008441 0.0001913 -0.0047933 0.0047783 -0.0167180 0.0002514 -0.0000917 0.0001853 0.0001559 0.0001011 -0.0005414 0.0000736 -0.0007590 -0.0000323 -0.0004409 0.0000522 -0.0004263 0.0001814 -0.0004785
0.0003042 -0.0009328 -0.0114097 0.0063357 -0.0070359 0.0019887 0.0002978 -0.0003203 0.0002093 0.0000280 0.0001302 -0.0006622 0.0001284 -0.0008271 0.0000006 -0.0004777 0.0000925 -0.0004542 0.0001980 -0.0005103
0.0009048 -0.0005072 -0.0101608 0.0051723 -0.0069912 0.0032001 0.0003327 -0.0002006 0.0002203 0.0001664 0.0001585 -0.0005058 0.0001890 -0.0006132 0.0000145 -0.0003115 0.0001158 -0.0002857 0.0002040 -0.0004381
0.0019122 -0.0016819 -0.0027136 -0.0032010 -0.0006515 -0.0069143 0.0003250 0.0000492 0.0002131 0.0004080 0.0001640 -0.0002649 0.0002037 -0.0003419 -0.0000017 -0.0000820 0.0001171 -0.0000512 0.0002084 -0.0002975
0.0016754 -0.0012209 -0.0001080 -0.0002516 -0.0025917 0.0044184 0.0002811 0.0004158 0.0001831 0.0007733 0.0001473 0.0000614 0.0001783 0.0000075 -0.0000426 0.0002379 0.0000949 0.0002759 0.0002024 -0.0000835
-0.0003164 0.0009068 0.0025555 0.0009873 -0.0015392 0.0099490 0.0002149 0.0006677 0.0001473 0.0009259 0.0001084 0.0001675 0.0001210 0.0000211 -0.0000765 0.0002291 0.0000537 0.0001974 0.0001994 -0.0000930
-0.0012962 0.0007331 0.0069334 -0.0053320 0.0041110 0.0007858 0.0001691 0.0004094 0.0001248 0.0006644 0.0000708 -0.0001443 0.0000629 -0.0003993 -0.0000841 -0.0000940 0.0000370 -0.0001853 0.0002084 -0.0002903
-0.0011277 0.0005327 0.0061827 -0.0047685 0.0024507 0.0054424 0.0001778 0.0001124 0.0001208 0.0004933 0.0000694 -0.0003474 0.0000643 -0.0005643 -0.0000774 -0.0001593 0.0000520 -0.0002253 0.0002183 -0.0003355
-0.0011157 0.0010855 -0.0017386 0.0019194 -0.0079578 0.0134135 0.0002002 0.0001924 0.0001205 0.0005963 0.0000804 -0.0002347 0.0000945 -0.0004006 -0.0000781 -0.0000217 0.0000637 -0.0000789 0.0002243 -0.0002709
-0.0003385 0.0000987 -0.0066758 0.0018187 -0.0240553 0.0160092 0.0001939 0.0003928 0.0001049 0.0007900 0.0000801 -0.0000368 0.0000970 -0.0001677 -0.0000979 0.0001672 0.0000597 0.0001158 0.0002207 -0.0001520
-0.0003230 0.0005208 -0.0053891 0.0029715 -0.0148469 0.0102480 0.0001577 0.0006008 0.0000879 0.0009071 0.0000602 0.0000356 0.0000650 -0.0001565 -0.0001079 0.0001287 0.0000339 -0.0000070 0.0002108 -0.0001874
0.0005165 0.0002249 -0.0060530 0.0056316 -0.0120406 0.0089877 0.0001233 0.0004393 0.0000802 0.0007350 0.0000439 -0.0001913 0.0000253 -0.0004599 -0.0000923 -0.0001142 0.0000340 -0.0003204 0.0002092 -0.0003249
0.0018462 -0.0015758 -0.0029054 0.0000159 -0.0051179 -0.0029297 0.0001387 0.0001962 0.0000802 0.0005911 0.0000623 -0.0003222 0.0000360 -0.0005362 -0.0000726 -0.0001421 0.0000693 -0.0003120 0.0002145 -0.0003188
0.0015061 -0.0007880 -0.0030291 0.0012144 -0.0038217 -0.0001249 0.0001521 0.0003409 0.0000699 0.0007450 0.0000824 -0.0001429 0.0000646 -0.0002949 -0.0000671 0.0000323 0.0000892 -0.0001028 0.0002120 -0.0001974
0.0000601 0.0007591 0.0016472 0.0005724 0.0030814 0.0007790 0.0001293 0.0006261 0.0000397 0.0010099 0.0000823 0.0001263 0.0000685 -0.0000137 -0.0000887 0.0002634 0.0000794 0.0001461 0.0002109 -0.0000312
-0.0006437 0.0006338 0.0071089 -0.0051046 0.0109923 -0.0118582 0.0000882 0.0009385 -0.0000034 0.0012984 0.0000605 0.0003935 0.0000468 0.0001858 -0.0001138 0.0003713 0.0000517 0.0001787 0.0002062 -0.0000206
-0.0008469 0.0001854 0.0060071 -0.0023492 0.0118488 -0.0092963 0.0000482 0.0007647 -0.0000236 0.0011050 0.0000278 0.0001459 -0.0000045 -0.0001748 -0.0001146 0.0000854 0.0000345 -0.0001942 0.0001981 -0.0002089
-0.0013324 0.0004814 0.0008774 0.0018282 0.0038040 -0.0020688 0.0000628 0.0003021 -0.0000076 0.0006826 0.0000274 -0.0002863 -0.0000049 -0.0006262 -0.0000913 -0.0002046 0.0000530 -0.0004728 0.0002093 -0.0003392
-0.0008698 0.0001095 -0.0033186 0.0006666 -0.0124424 0.0056632 0.0001082 0.0002457 0.0000087 0.0006777 0.0000567 -0.0002530 0.0000570 -0.0005290 -0.0000688 -0.0001368 0.0000841 -0.0003643 0.0002225 -0.0002801
0.0007271 -0.0010252 -0.0042636 -0.0006536 -0.0077306 0.0042187 0.0001193 0.0004631 0.0000076 0.0008835 0.0000745 -0.0000224 0.0000895 -0.0002520 -0.0000718 0.0000634 0.0000944 -0.0001370 0.0002218 -0.0001254
0.0017030 -0.0008402 -0.0075615 0.0038421 -0.0107585 0.0090679 0.0000948 0.0007764 -0.0000151 0.0011971 0.0000688 0.0002843 0.0000810 0.0000900 -0.0001040 0.0003336 0.0000788 0.0001635 0.0002116 0.0000425
0.0017479 -0.0007918 -0.0061795 0.0033994 -0.0158260 0.0113736 0.0000485 0.0008647 -0.0000440 0.0012238 0.0000341 0.0002706 0.0000298 0.0000027 -0.0001285 0.0002474 0.0000495 0.0000385 0.0002095 -0.0000019
0.0008519 -0.0007114 0.0023479 -0.0035243 -0.0017813 -0.0034746 0.0000124 0.0005759 -0.0000579 0.0009207 0.0000066 -0.0000455 -0.0000125 -0.0004098 -0.0001210 -0.0000684 0.0000462 -0.0003146 0.0002208 -0.0001562
-0.0003669 0.0003243 0.0062503 -0.0036676 0.0044952 0.0001340 0.0000212 0.0004017 -0.0000558 0.0008335 0.0000184 -0.0001133 0.0000076 -0.0004392 -0.0001083 -0.0000671 0.0000660 -0.0002730 0.0002278 -0.0001458
-0.0003010 0.0002737 0.0063688 -0.0040657 0.0073575 -0.0017524 0.0000393 0.0005497 -0.0000617 0.0010098 0.0000322 0.0000875 0.0000338 -0.0001826 -0.0001158 0.0001287 0.0000724 -0.0000516 0.0002266 -0.0000351
-0.0006580 0.0005478 0.0033162 -0.0031292 0.0050466 -0.0015122 0.0000220 0.0008107 -0.0000920 0.0012803 0.0000231 0.0003624 0.0000280 0.0001157 -0.0001513 0.0003737 0.0000542 0.0002150 0.0002219 0.0001080
-0.0010449 0.0014052 -0.0017321 0.0023397 -0.0035389 0.0104410 -0.0000163 0.0008775 -0.0001186 0.0012882 -0.0000101 0.0003275 -0.0000098 0.0000062 -0.0001731 0.0002808 0.0000208 0.0000555 0.0002215 0.0000549
0.0005003 0.0000536 -0.0014196 0.0011510 -0.0011749 0.0048141 -0.0000390 0.0006158 -0.0001229 0.0010242 -0.0000250 0.0000343 -0.0000327 -0.0003403 -0.0001625 0.0000129 0.0000115 -0.0002787 0.0002222 -0.0001093
0.0018447 -0.0013264 -0.0048579 0.0021091 0.0019449 -0.0018984 -0.0000344 0.0004712 -0.0001169 0.0009362 -0.0000078 -0.0000229 -0.0000149 -0.0003302 -0.0001525 0.0000178 0.0000294 -0.0002443 0.0002191 -0.0001261
0.0018043 -0.0009171 -0.0089275 0.0069679 -0.0091859 0.0077285 -0.0000261 0.0006020 -0.0001240 0.0010837 0.0000017 0.0001512 -0.0000029 -0.0001004 -0.0001581 0.0001845 0.0000316 -0.0000658 0.0002114 -0.0000384
0.0008909 -0.0003120 0.0014214 -0.0005516 -0.0055357 0.0084882 -0.0000514 0.0008486 -0.0001534 0.0013354 -0.0000041 0.0003756 -0.0000144 0.0001020 -0.0001658 0.0002914 0.0000054 -0.0000337 0.0002007 -0.0000506
0.0002450 -0.0000244 0.0071550 -0.0053182 0.0068707 -0.0003693 -0.0000872 0.0006963 -0.0001690 0.0011594 -0.0000197 0.0001591 -0.0000530 -0.0001917 -0.0001576 0.0000538 -0.0000059 -0.0003463 0.0002010 -0.0002176
0.0003610 -0.0000921 0.0063921 -0.0037377 0.0093376 -0.0129643 -0.0000733 0.0002821 -0.0001567 0.0007724 -0.0000102 -0.0002096 -0.0000528 -0.0005548 -0.0001273 -0.0001741 0.0000213 -0.0005634 0.0002110 -0.0003264
-0.0007670 0.0004171 0.0048295 -0.0049482 0.0057195 -0.0147250 -0.0000310 0.0002401 -0.0001414 0.0007611 0.0000209 -0.0001776 0.0000027 -0.0004471 -0.0001029 -0.0000961 0.0000518 -0.0004383 0.0002159 -0.0002844
-0.0016167 0.0012162 0.0030873 -0.0032953 0.0047153 -0.0066389 -0.0000137 0.0004388 -0.0001452 0.0009330 0.0000345 0.0000265 0.0000386 -0.0001918 -0.0001094 0.0000903 0.0000608 -0.0002066 0.0002157 -0.0001447
-0.0014494 0.0014918 0.0029670 -0.0009807 0.0080628 -0.0067928 -0.0000293 0.0006924 -0.0001593 0.0011114 0.0000220 0.0001634 0.0000288 -0.0001189 -0.0001163 0.0000873 0.0000335 -0.0002966 0.0002117 -0.0001752
0.0003881 -0.0001735 -0.0044113 0.0014771 0.0033159 -0.0081780 -0.0000451 0.0004833 -0.0001602 0.0009019 0.0000088 -0.0001113 0.0000006 -0.0004819 -0.0000954 -0.0002043 0.0000251 -0.0006723 0.0002126 -0.0003911
0.0019049 -0.0012970 -0.0165847 0.0101662 -0.0223584 0.0086475 -0.0000171 0.0000661 -0.0001393 0.0005917 0.0000210 -0.0004672 0.0000342 -0.0007470 -0.0000547 -0.0003532 0.0000555 -0.0008867 0.0002178 -0.0005664
0.0018156 -0.0001689 -0.0153097 0.0101461 -0.0273781 0.0155542 0.0000116 0.0000674 -0.0001056 0.0006688 0.0000480 -0.0004496 0.0001034 -0.0005908 -0.0000320 -0.0002267 0.0000956 -0.0007162 0.0002329 -0.0005345
0.0018819 -0.0003737 0.0000199 -0.0025009 -0.0012740 -0.0043249 0.0000059 0.0002547 -0.0001189 0.0008356 0.0000723 -0.0001786 0.0001443 -0.0002803 -0.0000449 0.0000070 0.0001254 -0.0003294 0.0002337 -0.0003666
0.0014429 -0.0001693 0.0065050 -0.0038875 0.0053170 -0.0062302 -0.0000334 0.0005578 -0.0001621 0.0010891 0.0000610 0.0001492 0.0001476 0.0000284 -0.0000598 0.0001909 0.0001123 -0.0002014 0.0002134 -0.0003787
-0.0007160 0.0016542 0.0054261 0.0011786 0.0020291 0.0061436 -0.0000805 0.0004844 -0.0001674 0.0009997 0.0000256 -0.0000270 0.0001167 -0.0002093 -0.0000546 0.0000190 0.0000966 -0.0004829 0.0002137 -0.0005649
-0.0020851 0.0016346 0.0067967 -0.0032019 0.0064784 -0.0004428 -0.0000648 0.0001216 -0.0001495 0.0006668 0.0000222 -0.0003867 0.0001249 -0.0005624 -0.0000307 -0.0001752 0.0001093 -0.0006937 0.0002250 -0.0006672
-0.0015617 0.0014472 0.0056590 -0.0042266 0.0097580 -0.0101453 -0.0000194 0.0001348 -0.0001322 0.0006984 0.0000444 -0.0003300 0.0001705 -0.0004180 -0.0000152 -0.0000577 0.0001206 -0.0005661 0.0002189 -0.0006289
-0.0002901 0.0014857 -0.0061460 0.0060996 -0.0045051 0.0084771 -0.0000145 0.0003489 -0.0001346 0.0008859 0.0000460 -0.0001423 0.0001858 -0.0001717 -0.0000294 0.0001378 0.0001107 -0.0003533 0.0002048 -0.0005169
0.0012522 0.0002997 -0.0174867 0.0110579 -0.0269899 0.0190038 -0.0000451 0.0005940 -0.0001512 0.0010937 0.0000214 0.0000199 0.0001577 -0.0000578 -0.0000453 0.0001972 0.0000771 -0.0003596 0.0001955 -0.0005184
0.0011255 0.0001641 -0.0090432 0.0059784 -0.0386324 0.0203934 -0.0000906 0.0004397 -0.0001757 0.0009120 -0.0000205 -0.0002342 0.0000976 -0.0003521 -0.0000484 -0.0000157 0.0000590 -0.0006227 0.0002115 -0.0006385
0.0009464 0.0003406 -0.0034243 0.0042497 -0.0073547 0.0042695 -0.0001193 0.0000928 -0.0001968 0.0005837 -0.0000418 -0.0005908 0.0000630 -0.0006305 -0.0000387 -0.0001681 0.0000711 -0.0007135 0.0002380 -0.0006506
0.0013196 -0.0002075 0.0016281 -0.0007695 0.0056873 -0.0078939 -0.0001179 0.0000896 -0.0002100 0.0005932 -0.0000349 -0.0005648 0.0000648 -0.0005397 -0.0000352 -0.0000854 0.0000822 -0.0005591 0.0002475 -0.0005419
0.0011459 0.0001568 0.0017298 -0.0002878 0.0007845 0.0008653 -0.0001154 0.0002866 -0.0002491 0.0006870 -0.0000276 -0.0003007 0.0000431 -0.0003251 -0.0000692 0.0000979 0.0000717 -0.0002697 0.0002648 -0.0003225
-0.0001018 0.0014359 0.0025542 0.0012221 -0.0009895 0.0087998 -0.0001182 0.0003664 -0.0002742 0.0006059 -0.0000538 -0.0003354 -0.0000326 -0.0005301 -0.0000872 -0.0000584 0.0000193 -0.0005163 0.0002779 -0.0003432
-0.0011083 0.0012065 0.0069571 -0.0047522 0.0075651 -0.0050851 -0.0001109 0.0001237 -0.0002529 0.0003804 -0.0000794 -0.0007239 -0.0000809 -0.0010049 -0.0000559 -0.0004071 -0.0000018 -0.0010305 0.0002832 -0.0005389
-0.0000794 -0.0007192 0.0070118 -0.0032893 0.0065641 -0.0028261 -0.0000746 0.0000129 -0.0002239 0.0003310 -0.0000523 -0.0007644 -0.0000407 -0.0010095 -0.0000201 -0.0004017 0.0000278 -0.0010073 0.0002968 -0.0005146
0.0004383 -0.0001600 -0.0029259 0.0066838 -0.0044073 0.0087502 -0.0000358 0.0001925 -0.0002128 0.0004786 -0.0000248 -0.0005122 0.0000090 -0.0007239 -0.0000070 -0.0002004 0.0000453 -0.0007717 0.0003028 -0.0003792
0.0006646 0.0001521 -0.0132138 0.0091257 -0.0146825 0.0056955 -0.0000377 0.0004354 -0.0002324 0.0006849 -0.0000215 -0.0002202 0.0000247 -0.0004029 -0.0000170 0.0000290 0.0000369 -0.0005571 0.0002958 -0.0002902
0.0019100 -0.0015178 -0.0013923 -0.0044500 -0.0011461 -0.0133039 -0.0000683 0.0003618 -0.0002522 0.0005420 -0.0000418 -0.0003593 -0.0000084 -0.0006228 -0.0000185 -0.0001750 0.0000208 -0.0007986 0.0003041 -0.0004032
0.0020905 -0.0010202 0.0012383 -0.0021033 0.0017651 -0.0056153 -0.0000676 -0.0000682 -0.0002394 0.0001112 -0.0000421 -0.0007769 -0.0000215 -0.0010999 0.0000137 -0.0005567 0.0000387 -0.0011774 0.0003217 -0.0005842
0.0021637 -0.0013257 0.0011441 -0.0011396 0.0020718 -0.0032208 -0.0000321 -0.0002436 -0.0002092 -0.0000145 -0.0000098 -0.0008304 0.0000329 -0.0010733 0.0000503 -0.0005389 0.0000728 -0.0011219 0.0003333 -0.0005875
0.0009185 -0.0012733 0.0072165 -0.0091762 0.0061918 -0.0071767 -0.0000111 -0.0000882 -0.0002004 0.0001441 0.0000081 -0.0006022 0.0000711 -0.0007938 0.0000456 -0.0003394 0.0000920 -0.0008418 0.0003154 -0.0004858
-0.0010755 0.0012107 0.0072588 -0.0035704 0.0057642 -0.0009481 -0.0000311 0.0001839 -0.0002354 0.0003943 -0.0000143 -0.0002369 0.0000649 -0.0004789 -0.0000073 -0.0001082 0.0000921 -0.0005366 0.0002616 -0.0005170
-0.0007929 0.0013038 0.0066468 -0.0025783 0.0088065 -0.0103949 -0.0000766 0.0004873 -0.0002488 0.0006921 -0.0000547 -0.0000670 0.0000386 -0.0004068 -0.0000423 -0.0001053 0.0000572 -0.0006628 0.0003271 -0.0003433
-0.0000195 0.0001834 0.0025615 -0.0030991 -0.0002334 -0.0077777 -0.0000816 0.0002710 -0.0002205 0.0005478 -0.0000680 -0.0003679 0.0000200 -0.0007658 -0.0000233 -0.0003859 0.0000405 -0.0010916 0.0004209 -0.0001899
0.0001895 0.0003990 -0.0050987 0.0049231 -0.0091431 0.0092661 -0.0000393 -0.0001847 -0.0001901 0.0001781 -0.0000469 -0.0006302 0.0000509 -0.0009980 0.0000164 -0.0004803 0.0000787 -0.0011814 0.0004317 -0.0002522
0.0012321 -0.0000998 -0.0047455 0.0034325 -0.0034635 0.0008334 0.0000035 -0.0002016 -0.0001736 0.0002268 0.0000173 -0.0003972 0.0001233 -0.0007677 0.0000622 -0.0001788 0.0001139 -0.0008997 0.0004922 0.0000564
0.0025417 -0.0013322 -0.0031309 0.0000215 -0.0020218 -0.0082356 0.0000134 0.0000556 -0.0001746 0.0005219 0.0000672 0.0000189 0.0001581 -0.0003854 0.0000745 0.0002117 0.0001112 -0.0005415 0.0005525 0.0004694
0.0023867 -0.0006529 -0.0033545 0.0041261 -0.0036056 0.0038086 -0.0000236 0.0004419 -0.0001951 0.0009318 0.0000573 0.0003949 0.0001399 0.0000047 0.0000422 0.0005473 0.0000792 -0.0002142 0.0005523 0.0007062
0.0008709 0.0008541 0.0021621 0.0015504 0.0038833 0.0010701 -0.0000663 0.0005090 -0.0002109 0.0009421 0.0000229 0.0003504 0.0000865 -0.0001498 0.0000315 0.0004222 0.0000456 -0.0004205 0.0005425 0.0006318
0.0000637 0.0006674 0.0076834 -0.0046481 0.0090401 -0.0039148 -0.0000733 0.0001251 -0.0002006 0.0005611 0.0000080 -0.0000429 0.0000446 -0.0006405 0.0000540 0.0000459 0.0000490 -0.0008483 0.0005497 0.0004263
0.0001687 0.0006161 0.0071605 -0.0036444 0.0029643 0.0053139 -0.0000465 -0.0000725 -0.0001813 0.0004682 0.0000308 -0.0001153 0.0000696 -0.0006486 0.0000765 0.0000605 0.0000717 -0.0007877 0.0005600 0.0004479
-0.0005460 0.0013642 0.0030732 -0.0009044 -0.0068017 0.0098421 -0.0000260 0.0001150 -0.0001792 0.0006715 0.0000484 0.0001154 0.0001044 -0.0003423 0.0000790 0.0003002 0.0000725 -0.0005217 0.0005641 0.0006178
-0.0008233 0.0015092 0.0007634 0.0000282 0.0000171 -0.0052389 -0.0000427 0.0004268 -0.0002075 0.0009838 0.0000412 0.0004297 0.0001007 0.0000077 0.0000473 0.0006012 0.0000519 -0.0001952 0.0005580 0.0008462
-0.0008682 0.0020250 0.0014233 0.0013651 0.0039384 0.0011515 -0.0001035 0.0008194 -0.0002505 0.0013317 0.0000105 0.0007290 0.0000652 0.0002536 0.0000129 0.0007390 0.0000141 -0.0001095 0.0005481 0.0009070
0.0008043 0.0008060 -0.0043537 0.0046549 -0.0040755 0.0117592 -0.0001519 0.0006502 -0.0002680 0.0011456 -0.0000298 0.0005175 0.0000021 -0.0000445 0.0000014 0.0004950 -0.0000146 -0.0004369 0.0006305 0.0010731
0.0027997 0.0005318 -0.0081469 0.0104828 -0.0090892 0.0114465 -0.0001340 0.0001691 -0.0002643 0.0007030 -0.0000444 0.0001375 -0.0000253 -0.0004020 0.0000182 0.0003021 -0.0000717 -0.0007315 0.0009174 0.0020106
0.0029797 0.0034689 -0.0055084 0.0133117 -0.0116564 0.0108397 -0.0001024 0.0001677 -0.0002740 0.0006783 -0.0000436 0.0001856 -0.0000082 -0.0002589 0.0000350 0.0004626 -0.0001869 -0.0006763 0.0009104 0.0021852
0.0028127 0.0045445 0.0024404 0.0080634 0.0000036 0.0051288 -0.0001150 0.0004213 -0.0002967 0.0008655 -0.0000592 0.0004111 -0.0000064 0.0000302 0.0000191 0.0007247 -0.0002820 -0.0004170 0.0006848 0.0017127
0.0023563 0.0045377 0.0075281 0.0054454 0.0050423 0.0062780 -0.0001674 0.0007361 -0.0003296 0.0010902 -0.0000904 0.0006162 -0.0000390 0.0001894 0.0000005 0.0007940 -0.0003278 -0.0003764 0.0008900 0.0022876
0.0006104 0.0056849 0.0065383 0.0089880 0.0033715 0.0117340 -0.0001979 0.0005520 -0.0003446 0.0009022 -0.0001179 0.0003928 -0.0000914 -0.0000867 0.0000010 0.0005237 -0.0003029 -0.0006358 0.0013526 0.0033902
-0.0003760 0.0058070 0.0067735 0.0070950 0.0051840 0.0065214 -0.0001789 0.0001876 -0.0003383 0.0006191 -0.0001121 0.0001294 -0.0000894 -0.0003068 0.0000046 0.0003430 -0.0002088 -0.0006955 0.0016670 0.0043168
0.0001605 0.0058545 0.0058846 0.0068465 0.0031877 0.0049989 -0.0001548 0.0002534 -0.0003361 0.0007312 -0.0000903 0.0002621 -0.0000596 -0.0001025 -0.0000080 0.0004527 -0.0001319 -0.0004546 0.0016037 0.0044200
0.0013220 0.0059724 -0.0022612 0.0146110 -0.0102834 0.0170801 -0.0001649 0.0005298 -0.0003525 0.0010132 -0.0000902 0.0005317 -0.0000671 0.0002216 -0.0000398 0.0006761 -0.0001176 -0.0001283 0.0014060 0.0040783
0.0026131 0.0049572 -0.0089103 0.0171804 -0.0257730 0.0205516 -0.0002034 0.0006577 -0.0003683 0.0010458 -0.0001224 0.0005352 -0.0001134 0.0001237 -0.0000587 0.0005429 -0.0001418 -0.0003125 0.0013340 0.0037136
0.0025952 0.0046610 -0.0064481 0.0158418 -0.0151112 0.0130267 -0.0002176 0.0003085 -0.0003604 0.0006921 -0.0001446 0.0001603 -0.0001549 -0.0003634 -0.0000391 0.0001359 -0.0001394 -0.0007591 0.0013273 0.0033554
0.0025409 0.0047829 -0.0008162 0.0137526 -0.0094142 0.0159845 -0.0001885 -0.0000228 -0.0003390 0.0004677 -0.0001233 -0.0000361 -0.0001309 -0.0004975 -0.0000062 0.0000452 -0.0001066 -0.0007661 0.0013940 0.0034304
0.0029717 0.0042410 0.0049231 0.0079832 -0.0015474 0.0096924 -0.0001570 0.0000493 -0.0003310 0.0005527 -0.0001003 0.0001004 -0.0000951 -0.0002825 0.0000057 0.0002133 -0.0001183 -0.0005983 0.0015005 0.0037675
0.0028199 0.0046237 0.0048400 0.0084282 0.0040734 0.0048824 -0.0001634 0.0003158 -0.0003476 0.0007999 -0.0001053 0.0003626 -0.0001006 0.0000160 -0.0000095 0.0004833 -0.0001859 -0.0004106 0.0015163 0.0038564
0.0010054 0.0061590 0.0050410 0.0100992 0.0054064 0.0061855 -0.0001752 0.0002920 -0.0003569 0.0006997 -0.0001305 0.0002306 -0.0001451 -0.0002068 -0.0000059 0.0003317 -0.0002780 -0.0006905 0.0013352 0.0030714
-0.0000307 0.0057421 0.0072655 0.0056589 0.0066431 -0.0014979 -0.0001548 -0.0001105 -0.0003354 0.0002926 -0.0001364 -0.0002013 -0.0001558 -0.0007273 0.0000328 -0.0000236 -0.0003334 -0.0010910 0.0010538 0.0020499
0.0011308 0.0037175 0.0066234 0.0063877 0.0054533 0.0018349 -0.0001120 -0.0002794 -0.0003062 0.0001810 -0.0001076 -0.0002876 -0.0001043 -0.0007484 0.0000718 0.0000001 -0.0003363 -0.0010082 0.0008787 0.0017277
0.0014634 0.0041939 -0.0009575 0.0136865 -0.0065639 0.0156892 -0.0000726 -0.0001102 -0.0002927 0.0003268 -0.0000815 -0.0000864 -0.0000644 -0.0004754 0.0000820 0.0002075 -0.0003496 -0.0007898 0.0007913 0.0017137
0.0016744 0.0043600 -0.0070758 0.0146016 -0.0179085 0.0181742 -0.0000806 0.0001911 -0.0003143 0.0005611 -0.0001011 0.0001298 -0.0000635 -0.0002001 0.0000756 0.0004008 -0.0003777 -0.0006395 0.0007957 0.0019264
0.0027983 0.0028732 -0.0001939 0.0065281 0.0025788 -0.0059592 -0.0001076 0.0000922 -0.0003307 0.0003772 -0.0001348 -0.0001191 -0.0001045 -0.0004714 0.0000753 0.0001622 -0.0003610 -0.0008645 0.0010246 0.0025317
0.0030851 0.0034213 0.0014885 0.0086647 -0.0021096 0.0040781 -0.0000974 -0.0003408 -0.0003122 -0.0000499 -0.0001205 -0.0005197 -0.0001080 -0.0008852 0.0000898 -0.0001875 -0.0002741 -0.0011344 0.0012379 0.0029778
0.0031708 0.0034151 0.0017499 0.0093045 -0.0009825 0.0070556 -0.0000653 -0.0004379 -0.0002874 -0.0000923 -0.0000796 -0.0005125 -0.0000501 -0.0007791 0.0001032 -0.0001745 -0.0001753 -0.0010126 0.0013361 0.0031806
0.0022865 0.0038287 0.0057090 0.0050168 0.0093428 -0.0062503 -0.0000505 -0.0002652 -0.0002786 0.0000924 -0.0000549 -0.0003130 -0.0000139 -0.0004853 0.0000889 -0.0000051 -0.0001418 -0.0007838 0.0013804 0.0033695
0.0008000 0.0063377 0.0065795 0.0087213 0.0060316 0.0049230 -0.0000653 -0.0000993 -0.0002810 0.0001579 -0.0000705 -0.0003316 -0.0000312 -0.0004913 0.0000696 -0.0000862 -0.0001648 -0.0009315 0.0013233 0.0030475
0.0010202 0.0063464 0.0069979 0.0082041 0.0036893 0.0073481 -0.0000856 -0.0003434 -0.0002739 -0.0000713 -0.0000902 -0.0006843 -0.0000384 -0.0008221 0.0000794 -0.0003937 -0.0001417 -0.0012239 0.0012239 0.0023364
0.0010859 0.0048891 0.0042421 0.0064711 -0.0023797 0.0010130 -0.0000700 -0.0006260 -0.0002265 -0.0001170 -0.0000707 -0.0008701 0.0000149 -0.0008708 0.0001017 -0.0004570 -0.0000752 -0.0011702 0.0011041 0.0018036
0.0008464 0.0044433 -0.0013130 0.0105787 -0.0073798 0.0015914 -0.0000362 -0.0004523 -0.0001657 0.0001884 -0.0000349 -0.0007004 0.0000757 -0.0005945 0.0001124 -0.0002422 -0.0000377 -0.0009309 0.0010163 0.0016109
0.0017064 0.0037019 -0.0010412 0.0094260 0.0003382 -0.0030409 -0.0000276 -0.0000916 -0.0001453 0.0005499 -0.0000175 -0.0003998 0.0001087 -0.0003339 0.0001199 -0.0000650 -0.0000347 -0.0008267 0.0009642 0.0014408
0.0024736 0.0025574 -0.0015256 0.0077347 -0.0033099 0.0029395 -0.0000174 -0.0001621 -0.0001190 0.0004596 -0.0000181 -0.0005219 0.0000965 -0.0005695 0.0001338 -0.0002373 -0.0000288 -0.0010360 0.0009423 0.0011150
0.0025680 0.0020954 -0.0028635 0.0094370 -0.0103155 0.0126244 0.0000300 -0.0005008 -0.0000712 0.0001393 0.0000049 -0.0008178 0.0000976 -0.0008703 0.0001616 -0.0003905 0.0000056 -0.0011425 0.0009394 0.0008971
0.0017891 0.0023647 0.0026093 0.0057342 0.0000865 0.0062008 0.0000940 -0.0004730 -0.0000357 0.0001855 0.0000376 -0.0007421 0.0001459 -0.0006859 0.0001700 -0.0002474 0.0000311 -0.0009288 0.0009252 0.0008787
0.0012006 0.0026650 0.0069886 0.0022238 0.0088239 -0.0030932 0.0001252 -0.0001635 -0.0000178 0.0004316 0.0000454 -0.0004737 0.0001636 -0.0003660 0.0001463 0.0000074 0.0000202 -0.0006357 0.0008952 0.0009501
0.0012079 0.0028246 0.0068068 0.0020013 0.0071069 0.0006590 0.0001260 0.0000116 -0.0000063 0.0004563 0.0000333 -0.0004585 0.0001234 -0.0004964 0.0001316 -0.0000939 -0.0000001 -0.0007819 0.0007210 0.0002967
0.0001703 0.0023951 0.0043772 -0.0003205 0.0035380 -0.0004803 0.0001585 -0.0003081 0.0000110 0.0000765 0.0000266 -0.0008230 0.0000888 -0.0010125 0.0001401 -0.0004771 0.0000330 -0.0011313 0.0003369 -0.0013546
-0.0010936 0.0015433 0.0019099 -0.0019242 0.0000877 -0.0000222 0.0002249 -0.0005706 0.0000229 -0.0002611 0.0000220 -0.0010764 0.0001263 -0.0011290 0.0001564 -0.0005654 0.0000870 -0.0011093 0.0001411 -0.0022874
-0.0014594 0.0011716 0.0022551 -0.0021399 0.0016126 0.0070823 0.0002890 -0.0004440 0.0000329 -0.0003316 0.0000213 -0.0010389 0.0001926 -0.0008880 0.0001643 -0.0004031 0.0001086 -0.0008951 0.0002470 -0.0020053
0.0002155 -0.0000392 -0.0045479 0.0010478 -0.0032097 0.0022022 0.0003273 -0.0001968 0.0000570 -0.0002152 0.0000397 -0.0008662 0.0002123 -0.0008089 0.0001732 -0.0003887 0.0001011 -0.0009217 0.0003151 -0.0019496
0.0014181 -0.0008247 -0.0150964 0.0087672 -0.0340958 0.0202359 0.0003613 -0.0003631 0.0000955 -0.0003789 0.0000711 -0.0010099 0.0002088 -0.0011267 0.0002094 -0.0006174 0.0001041 -0.0011697 0.0003436 -0.0022539
0.0014511 -0.0005112 -0.0144082 0.0077249 -0.0319831 0.0207107 0.0004296 -0.0007494 0.0001549 -0.0006639 0.0001264 -0.0012111 0.0002428 -0.0013616 0.0002595 -0.0006964 0.0001467 -0.0012059 0.0003829 -0.0024221
0.0017985 -0.0015434 -0.0011909 -0.0046366 0.0023775 -0.0111703 0.0004871 -0.0007316 0.0002068 -0.0005805 0.0001808 -0.0010203 0.0002975 -0.0012035 0.0002790 -0.0005392 0.0001794 -0.0010332 0.0002641 -0.0028649
0.0013343 -0.0017361 0.0046791 -0.0058147 0.0080686 -0.0075068 0.0004961 -0.0004414 0.0002183 -0.0003086 0.0002022 -0.0006781 0.0003221 -0.0008885 0.0002565 -0.0002616 0.0001856 -0.0006880 0.0001150 -0.0033009
-0.0009573 0.0001789 0.0044693 -0.0016473 0.0028732 0.0032725 0.0004775 -0.0003737 0.0002152 -0.0003168 0.0001858 -0.0007407 0.0002901 -0.0010504 0.0002475 -0.0003610 0.0001691 -0.0007783 0.0002110 -0.0033321
-0.0021472 0.0001092 0.0076175 -0.0076712 0.0078381 -0.0041715 0.0004843 -0.0007391 0.0002368 -0.0006359 0.0001808 -0.0011262 0.0002742 -0.0015246 0.0002767 -0.0006968 0.0001703 -0.0011708 0.0003139 -0.0035562
-0.0017141 -0.0002134 0.0068161 -0.0086663 0.0055424 -0.0013967 0.0005402 -0.0009376 0.0002767 -0.0007566 0.0002162 -0.0011771 0.0003339 -0.0015394 0.0003028 -0.0006837 0.0002087 -0.0011148 0.0002947 -0.0038909
-0.0011615 0.0000745 -0.0043638 0.0011915 -0.0068790 0.0103161 0.0005981 -0.0007842 0.0003073 -0.0006237 0.0002632 -0.0009257 0.0004093 -0.0012062 0.0003107 -0.0004456 0.0002325 -0.0007837 0.0003224 -0.0038616
0.0001124 -0.0011763 -0.0136155 0.0036132 -0.0161394 0.0120409 0.0006245 -0.0005194 0.0003094 -0.0003989 0.0002949 -0.0006032 0.0004513 -0.0008000 0.0003046 -0.0001829 0.0002084 -0.0005600 0.0004144 -0.0036760
0.0000085 -0.0006837 -0.0099948 0.0032826 -0.0189327 0.0158898 0.0006138 -0.0005979 0.0003023 -0.0005813 0.0002613 -0.0008733 0.0003999 -0.0010975 0.0003057 -0.0004422 0.0001634 -0.0008992 0.0004989 -0.0038652
0.0006581 -0.0007967 -0.0077364 0.0046611 -0.0162334 0.0155227 0.0006146 -0.0010245 0.0003291 -0.0009742 0.0002479 -0.0013972 0.0003651 -0.0016851 0.0003369 -0.0008485 0.0001623 -0.0013249 0.0004989 -0.0044063
0.0020242 -0.0029507 -0.0016971 -0.0045675 -0.0124563 0.0068259 0.0006565 -0.0011466 0.0003712 -0.0009669 0.0002905 -0.0013501 0.0004019 -0.0016646 0.0003581 -0.0007765 0.0001971 -0.0012242 0.0003851 -0.0050046
0.0016235 -0.0023421 -0.0019505 -0.0033039 -0.0171011 0.0138963 0.0006863 -0.0008933 0.0003849 -0.0006973 0.0003098 -0.0010578 0.0004138 -0.0013446 0.0003446 -0.0004713 0.0001637 -0.0009620 0.0010497 -0.0034269
0.0002901 -0.0003563 0.0026601 -0.0018087 -0.0001355 0.0094305 0.0006547 -0.0005565 0.0003653 -0.0003497 0.0003043 -0.0007378 0.0004134 -0.0009606 0.0003205 -0.0001599 0.0001161 -0.0007450 0.0017050 -0.0018433
-0.0002686 -0.0005107 0.0088117 -0.0081997 0.0079332 -0.0009816 0.0006111 -0.0006245 0.0003591 -0.0004296 0.0002743 -0.0009008 0.0003773 -0.0011780 0.0003105 -0.0003538 0.0001103 -0.0009777 0.0015361 -0.0026379
-0.0008185 -0.0011857 0.0072384 -0.0058635 0.0055149 -0.0034827 0.0006184 -0.0009445 0.0003888 -0.0007036 0.0002780 -0.0012074 0.0003759 -0.0015550 0.0003198 -0.0006279 0.0001621 -0.0011676 0.0008769 -0.0047099
-0.0017786 -0.0008390 0.0027246 -0.0034356 0.0034204 -0.0011913 0.0006541 -0.0009185 0.0004154 -0.0006081 0.0003109 -0.0010263 0.0004336 -0.0013515 0.0003181 -0.0004479 0.0002300 -0.0008469 0.0003359 -0.0062244
-0.0013911 -0.0009813 -0.0003774 -0.0063497 0.0013055 -0.0034637 0.0006631 -0.0005744 0.0004190 -0.0002689 0.0003201 -0.0006490 0.0004599 -0.0009319 0.0002867 -0.0001218 0.0002288 -0.0004645 0.0003708 -0.0060734
0.0003193 -0.0017545 -0.0057281 -0.0035918 -0.0019748 -0.0045313 0.0006232 -0.0000948 0.0003927 0.0001938 0.0003082 -0.0002149 0.0004497 -0.0004823 0.0002505 0.0001895 0.0001925 -0.0001893 0.0004403 -0.0059083
0.0014464 -0.0021524 -0.0143624 0.0022532 -0.0041421 -0.0011232 0.0005779 -0.0000808 0.0003715 0.0001461 0.0002760 -0.0003089 0.0003912 -0.0006564 0.0002283 0.0000877 0.0001482 -0.0003254 0.0004705 -0.0061254
0.0014285 -0.0023927 -0.0137376 0.0029950 -0.0098583 0.0116387 0.0005663 -0.0003543 0.0003734 -0.0001307 0.0002612 -0.0005969 0.0003469 -0.0009809 0.0002139 -0.0000778 0.0001303 -0.0004296 0.0004866 -0.0063282
0.0007393 -0.0018428 -0.0010381 -0.0038575 -0.0029986 0.0056942 0.0005638 -0.0002534 0.0003655 0.0000217 0.0002669 -0.0004476 0.0003457 -0.0007353 0.0001899 0.0001304 0.0001186 -0.0001660 0.0005282 -0.0061912
0.0003169 -0.0012499 0.0058845 -0.0084092 0.0052857 -0.0065639 0.0005273 0.0000884 0.0003382 0.0003432 0.0002585 -0.0001473 0.0003357 -0.0003436 0.0001462 0.0004508 0.0000835 0.0001801 0.0005687 -0.0059264
0.0003773 -0.0008132 0.0054516 -0.0073584 0.0036869 -0.0031509 0.0004588 0.0004582 0.0002981 0.0006047 0.0002257 0.0000777 0.0002932 -0.0001803 0.0001125 0.0005408 0.0000224 0.0001729 0.0006247 -0.0058594
-0.0012589 0.0005416 0.0043834 -0.0050667 0.0024581 0.0011030 0.0004072 0.0003558 0.0002697 0.0004942 0.0001923 -0.0000877 0.0002300 -0.0004187 0.0000942 0.0003910 -0.0000220 -0.0000300 0.0006939 -0.0059418
-0.0022335 0.0004485 0.0058280 -0.0083958 0.0045635 -0.0068916 0.0003832 0.0001433 0.0002518 0.0003668 0.0001789 -0.0002333 0.0002066 -0.0004899 0.0000729 0.0004340 -0.0000383 0.0000624 0.0007501 -0.0058749
-0.0005899 -0.0013346 0.0054154 -0.0069492 0.0045054 -0.0042905 0.0003394 0.0003671 0.0002187 0.0006098 0.0001671 -0.0000092 0.0002029 -0.0001490 0.0000382 0.0007201 -0.0000621 0.0003641 0.0007872 -0.0056450
0.0001126 -0.0007597 -0.0051222 0.0034117 -0.0059456 0.0121276 0.0002749 0.0007652 0.0001641 0.0009846 0.0001413 0.0003569 0.0001783 0.0003010 -0.0000136 0.0010781 -0.0001064 0.0007258 0.0008231 -0.0053824
0.0003022 -0.0004713 -0.0153032 0.0064231 -0.0223366 0.0158747 0.0002125 0.0008877 0.0001208 0.0009997 0.0000971 0.0003462 0.0001067 0.0002161 -0.0000494 0.0010043 -0.0001589 0.0006051 0.0008617 -0.0054347
0.0012597 -0.0020918 -0.0021412 -0.0081279 -0.0091223 -0.0087160 0.0001643 0.0007110 0.0001003 0.0008004 0.0000659 0.0001129 0.0000441 -0.0000723 -0.0000646 0.0007904 -0.0001858 0.0003871 0.0008983 -0.0055827
0.0014574 -0.0015129 0.0006871 -0.0058829 -0.0082953 0.0041529 0.0001143 0.0007251 0.0000878 0.0009566 0.0000509 0.0001718 0.0000199 0.0000688 -0.0000837 0.0009229 -0.0002063 0.0005247 0.0009224 -0.0055354
0.0014762 -0.0012212 -0.0003234 -0.0037195 -0.0016344 -0.0010365 0.0000513 0.0009964 0.0000571 0.0013759 0.0000379 0.0004365 -0.0000061 0.0003776 -0.0001276 0.0011637 -0.0002317 0.0007688 0.0009216 -0.0054176
0.0003839 -0.0007675 0.0049488 -0.0102068 0.0127058 -0.0224285 -0.0000181 0.0012903 0.0000087 0.0016080 0.0000084 0.0006028 -0.0000615 0.0004211 -0.0001727 0.0011365 -0.0002655 0.0007225 0.0009420 -0.0055269
-0.0012462 0.0007907 0.0060107 -0.0069312 0.0084183 -0.0048636 -0.0000613 0.0011868 -0.0000249 0.0013897 -0.0000235 0.0003969 -0.0001283 0.0001246 -0.0001893 0.0008672 -0.0002871 0.0004526 0.0010102 -0.0057398
-0.0010199 0.0000878 0.0057007 -0.0071602 0.0072945 -0.0078492 -0.0000705 0.0010213 -0.0000483 0.0012221 -0.0000272 0.0002748 -0.0001442 0.0000875 -0.0001989 0.0008441 -0.0002869 0.0004871 0.0010931 -0.0056829
-0.0007892 -0.0005447 0.0026332 -0.0078340 0.0050604 -0.0142722 -0.0000948 0.0012102 -0.0000818 0.0013757 -0.0000265 0.0004747 -0.0001403 0.0003961 -0.0002198 0.0010402 -0.0002957 0.0007186 0.0011514 -0.0054753
-0.0009471 0.0003313 -0.0029016 -0.0010676 0.0004524 -0.0029097 -0.0001575 0.0015558 -0.0001359 0.0016433 -0.0000450 0.0007628 -0.0001581 0.0006860 -0.0002453 0.0011457 -0.0003287 0.0007598 0.0011174 -0.0055809
0.0003015 -0.0005624 -0.0019646 -0.0024611 -0.0012907 -0.0016886 -0.0002235 0.0014805 -0.0001750 0.0015142 -0.0000760 0.0005839 -0.0002150 0.0004237 -0.0002551 0.0009045 -0.0003545 0.0004660 0.0009906 -0.0061981
0.0015828 -0.0021942 -0.0055392 -0.0021149 -0.0019790 -0.0028501 -0.0002642 0.0011158 -0.0001861 0.0011721 -0.0000768 0.0002183 -0.0002481 0.0001018 -0.0002462 0.0007011 -0.0003404 0.0003678 0.0009038 -0.0066673
0.0016498 -0.0021740 -0.0104638 0.0029592 -0.0056961 0.0013551 -0.0002738 0.0011154 -0.0002042 0.0011598 -0.0000546 0.0002477 -0.0002410 0.0002438 -0.0002295 0.0008107 -0.0003276 0.0005441 0.0009010 -0.0066929
0.0010233 -0.0017273 0.0008693 -0.0055285 0.0009027 -0.0038097 -0.0002771 0.0013407 -0.0002362 0.0013025 -0.0000448 0.0004155 -0.0002431 0.0004908 -0.0002346 0.0009920 -0.0003329 0.0007314 0.0009365 -0.0065202
0.0005934 -0.0012485 0.0069730 -0.0094116 0.0080209 -0.0082060 -0.0003240 0.0013186 -0.0002420 0.0013007 -0.0001006 -0.0000195 -0.0002677 0.0003218 -0.0001609 0.0010370 -0.0003513 0.0003983 0.0009753 -0.0066783
0.0009399 -0.0013651 0.0067837 -0.0088371 0.0059452 -0.0051778 -0.0003746 0.0009678 -0.0002347 0.0010227 -0.0001659 -0.0009180 -0.0002558 -0.0000623 0.0000030 0.0011164 -0.0002925 0.0000609 0.0010759 -0.0069030
0.0002090 -0.0014691 0.0061134 -0.0113515 0.0070903 -0.0096638 -0.0003370 0.0008684 -0.0002541 0.0008013 -0.0000911 -0.0008477 -0.0001839 0.0000539 0.0000707 0.0012861 -0.0001416 0.0005349 0.0011909 -0.0068066
-0.0008187 -0.0005783 0.0036335 -0.0075089 0.0060590 -0.0037203 -0.0002975 0.0010916 -0.0003055 0.0007852 0.0000038 -0.0002030 -0.0001318 0.0004083 -0.0000116 0.0012101 -0.0001020 0.0008830 0.0011998 -0.0067315
-0.0006883 -0.0003666 0.0033813 -0.0062108 0.0069736 -0.0097244 -0.0003268 0.0013678 -0.0003321 0.0008868 -0.0000143 -0.0000253 -0.0001732 0.0004069 -0.0001348 0.0007838 -0.0001972 0.0005520 0.0011954 -0.0068731
0.0005403 -0.0020311 -0.0027711 -0.0058235 0.0047866 -0.0306919 -0.0003633 0.0012046 -0.0003448 0.0006281 -0.0000870 -0.0004599 -0.0002668 -0.0000654 -0.0001769 0.0002960 -0.0002868 -0.0000976 0.0012457 -0.0072049
0.0011799 -0.0023829 -0.0124323 0.0028836 -0.0260366 0.0088587 -0.0003724 0.0008890 -0.0003383 0.0003454 -0.0001208 -0.0008528 -0.0002969 -0.0003817 -0.0001528 0.0001597 -0.0003049 -0.0003839 0.0013105 -0.0073283
0.0014646 -0.0019263 -0.0103524 0.0013796 -0.0160664 0.0055474 -0.0003476 0.0009484 -0.0003219 0.0004166 -0.0000971 -0.0007414 -0.0002697 -0.0002536 -0.0001358 0.0003241 -0.0002699 -0.0001505 0.0013626 -0.0071827
0.0023212 -0.0031757 -0.0010438 -0.0085520 0.0018936 -0.0108968 -0.0003493 0.0011448 -0.0003551 0.0004836 -0.0000940 -0.0005373 -0.0002500 -0.0000283 -0.0001368 0.0004290 -0.0002559 -0.0000503 0.0014171 -0.0071226
0.0021312 -0.0031612 0.0019515 -0.0060729 0.0015604 0.0015550 -0.0003725 0.0010332 -0.0003838 0.0002030 -0.0001239 -0.0007883 -0.0002611 -0.0002329 -0.0001273 0.0002369 -0.0002436 -0.0002915 0.0014725 -0.0073320
0.0004457 -0.0019506 0.0032332 -0.0043300 0.0008022 0.0027822 -0.0003541 0.0006736 -0.0003874 -0.0002415 -0.0001298 -0.0011775 -0.0002439 -0.0005138 -0.0001034 0.0000794 -0.0001961 -0.0003823 0.0015276 -0.0074728
-0.0003697 -0.0021554 0.0079111 -0.0114197 0.0090737 -0.0115183 -0.0003269 0.0006386 -0.0004154 -0.0004447 -0.0001324 -0.0011948 -0.0001902 -0.0003583 -0.0000914 0.0001867 -0.0001572 -0.0002323 0.0015759 -0.0073683
-0.0001827 -0.0018364 0.0072545 -0.0102614 0.0038302 -0.0015589 -0.0003304 0.0008493 -0.0004827 -0.0005292 -0.0001573 -0.0010523 -0.0001610 -0.0000267 -0.0001092 0.0004083 -0.0001445 0.0000103 0.0016102 -0.0071438
-0.0004496 -0.0011369 0.0009841 -0.0046350 -0.0047883 0.0031539 -0.0003450 0.0008926 -0.0005246 -0.0006927 -0.0001807 -0.0011271 -0.0001762 -0.0001274 -0.0001192 0.0003067 -0.0001453 -0.0001283 0.0016406 -0.0072400
-0.0001515 -0.0022099 -0.0017425 -0.0065788 -0.0029158 -0.0047463 -0.0003429 0.0005990 -0.0005459 -0.0011128 -0.0002126 -0.0015020 -0.0001764 -0.0004742 -0.0001093 -0.0000045 -0.0001223 -0.0004732 0.0016729 -0.0075562
-0.0001548 -0.0025012 -0.0003027 -0.0066064 -0.0074185 0.0009557 -0.0003254 0.0004350 -0.0005815 -0.0014038 -0.0002377 -0.0016288 -0.0001339 -0.0003787 -0.0001011 0.0000313 -0.0000862 -0.0004196 0.0017029 -0.0075701
0.0009787 -0.0029849 -0.0048545 -0.0026778 -0.0209384 0.0128119 -0.0003151 0.0005975 -0.0005950 -0.0013247 -0.0002387 -0.0014397 -0.0001005 -0.0000617 -0.0001066 0.0002730 -0.0000727 -0.0001740 0.0017383 -0.0073483
0.0022331 -0.0036078 -0.0086994 -0.0005958 -0.0199762 0.0130149 -0.0003302 0.0008677 -0.0005913 -0.0010177 -0.0002244 -0.0011118 -0.0000965 0.0002340 -0.0001195 0.0004773 -0.0000843 -0.0000300 0.0017346 -0.0072593
0.0019652 -0.0026516 -0.0092607 -0.0000692 -0.0150194 0.0048305 -0.0003489 0.0008337 -0.0005608 -0.0009317 -0.0001915 -0.0010985 -0.0001437 -0.0000311 -0.0001140 0.0003583 -0.0001009 -0.0002343 0.0016753 -0.0075623
0.0018291 -0.0033261 0.0003765 -0.0094463 -0.0007825 -0.0076901 -0.0003568 0.0005269 -0.0004896 -0.0009428 -0.0001439 -0.0012350 -0.0001824 -0.0005031 -0.0001110 0.0001406 -0.0000941 -0.0004285 0.0015929 -0.0080202
0.0015656 -0.0039421 0.0057870 -0.0114733 0.0052418 -0.0050952 -0.0003462 0.0004654 -0.0004294 -0.0007555 -0.0001083 -0.0011373 -0.0001674 -0.0004902 -0.0001128 0.0002155 -0.0000810 -0.0003306 0.0017620 -0.0076600
-0.0001103 -0.0022591 0.0047597 -0.0061530 0.0018119 0.0039135 -0.0003401 0.0006387 -0.0004085 -0.0005122 -0.0000966 -0.0009497 -0.0001528 -0.0002598 -0.0001215 0.0004233 -0.0000755 -0.0001184 0.0019342 -0.0070466
-0.0008793 -0.0019782 0.0069309 -0.0103947 0.0081601 -0.0090767 -0.0003488 0.0007498 -0.0004043 -0.0004030 -0.0001018 -0.0009509 -0.0001727 -0.0003554 -0.0001334 0.0003360 -0.0000924 -0.0002403 0.0019796 -0.0070192
-0.0007019 -0.0019977 0.0069285 -0.0110032 0.0078656 -0.0152088 -0.0003314 0.0005392 -0.0003854 -0.0005774 -0.0001836 -0.0014283 -0.0001817 -0.0006037 -0.0001600 -0.0000047 -0.0000925 -0.0005675 0.0021899 -0.0069456
-0.0004427 -0.0019356 -0.0026638 -0.0024405 -0.0032727 -0.0036446 -0.0003072 0.0003354 -0.0003904 -0.0007844 -0.0002711 -0.0017406 -0.0001337 -0.0004721 -0.0001676 -0.0000477 -0.0000628 -0.0006048 0.0022966 -0.0067902
0.0004326 -0.0033537 -0.0076963 -0.0037956 -0.0061141 -0.0057558 -0.0003003 0.0004708 -0.0004152 -0.0006920 -0.0002506 -0.0014960 -0.0000833 -0.0001470 -0.0001420 0.0002710 -0.0000405 -0.0003317 0.0022858 -0.0064972
0.0001970 -0.0026083 -0.0028560 -0.0049817 -0.0060950 0.0001514 -0.0003133 0.0007797 -0.0004257 -0.0003383 -0.0001927 -0.0010310 -0.0000740 0.0001952 -0.0001474 0.0006637 -0.0000424 0.0000542 0.0023284 -0.0060767
0.0013889 -0.0025058 -0.0053318 -0.0001085 -0.0072709 0.0053483 -0.0003468 0.0008534 -0.0004235 -0.0002646 -0.0001532 -0.0009416 -0.0001244 -0.0000423 -0.0001494 0.0005676 -0.0000729 -0.0001159 0.0023825 -0.0060771
0.0029556 -0.0043247 -0.0049315 -0.0037122 -0.0085944 0.0013859 -0.0003499 0.0005781 -0.0003973 -0.0004673 -0.0001201 -0.0011698 -0.0001667 -0.0005380 -0.0001278 0.0002473 -0.0000724 -0.0004861 0.0023581 -0.0063660
0.0025442 -0.0035411 -0.0066528 -0.0024521 -0.0062396 -0.0013962 -0.0003259 0.0004666 -0.0003706 -0.0004526 -0.0000799 -0.0011300 -0.0001461 -0.0005099 -0.0001145 0.0003102 -0.0000439 -0.0003693 0.0023397 -0.0063092
0.0017506 -0.0028883 0.0028188 -0.0083372 0.0013742 -0.0054119 -0.0003255 0.0006554 -0.0003676 -0.0002041 -0.0000551 -0.0008582 -0.0001177 -0.0001939 -0.0001247 0.0005718 -0.0000379 -0.0000548 0.0023739 -0.0059868
0.0012468 -0.0027573 0.0086856 -0.0106531 0.0069752 -0.0074495 -0.0003454 0.0009670 -0.0003810 0.0001537 -0.0000572 -0.0004998 -0.0001223 0.0001993 -0.0001614 0.0008824 -0.0000537 0.0002818 0.0023959 -0.0055928
-0.0006557 -0.0006732 0.0070461 -0.0043805 0.0058723 -0.0018068 -0.0003914 0.0012505 -0.0003961 0.0003646 -0.0000850 -0.0003885 -0.0001780 0.0001589 -0.0001936 0.0008343 -0.0000921 0.0001663 0.0023966 -0.0055709
-0.0018933 -0.0006760 0.0088356 -0.0099111 0.0055670 -0.0073360 -0.0004155 0.0010833 -0.0004005 0.0002096 -0.0001014 -0.0006402 -0.0002402 -0.0002510 -0.0002031 0.0005276 -0.0001192 -0.0002008 0.0023922 -0.0058089
-0.0013938 -0.0012241 0.0082447 -0.0119696 0.0041042 -0.0040185 -0.0003962 0.0008071 -0.0003867 0.0001045 -0.0000853 -0.0007554 -0.0002503 -0.0003172 -0.0002053 0.0005318 -0.0001105 -0.0001553 0.0024006 -0.0057863
-0.0005673 -0.0009794 -0.0024098 -0.0013939 -0.0052577 0.0057337 -0.0003935 0.0009250 -0.0003849 0.0003021 -0.0000782 -0.0005414 -0.0002294 -0.0000189 -0.0002220 0.0007830 -0.0001023 0.0001487 0.0023960 -0.0055786
0.0007177 -0.0023052 -0.0090273 -0.0019653 -0.0096169 -0.0021799 -0.0004272 0.0012218 -0.0004213 0.0005682 -0.0001025 -0.0002471 -0.0002236 0.0003776 -0.0002686 0.0010662 -0.0001161 0.0004929 0.0023956 -0.0052046
0.0004336 -0.0015155 -0.0042379 -0.0026633 -0.0012042 -0.0047699 -0.0004908 0.0016070 -0.0004721 0.0009280 -0.0001445 0.0000742 -0.0002561 0.0007589 -0.0003207 0.0013373 -0.0001597 0.0007106 0.0023887 -0.0049448
0.0011547 -0.0013886 -0.0056792 0.0014680 -0.0062431 0.0034249 -0.0005552 0.0016306 -0.0005037 0.0008960 -0.0001884 -0.0000446 -0.0003340 0.0005441 -0.0003550 0.0011890 -0.0002057 0.0005071 0.0023779 -0.0049958
0.0024862 -0.0031159 -0.0053577 -0.0023842 -0.0092797 0.0078042 -0.0005802 0.0013259 -0.0005197 0.0005591 -0.0002120 -0.0004124 -0.0003907 0.0001628 -0.0003741 0.0009094 -0.0002128 0.0003103 0.0023716 -0.0050749
0.0021041 -0.0023553 -0.0071087 -0.0014495 -0.0146686 0.0138489 -0.0005908 0.0012938 -0.0005428 0.0005209 -0.0002219 -0.0004181 -0.0003893 0.0003123 -0.0003897 0.0009962 -0.0002029 0.0004550 0.0023556 -0.0049788
0.0015582 -0.0019093 0.0016920 -0.0072051 -0.0083334 0.0090209 -0.0006183 0.0015449 -0.0005721 0.0007375 -0.0002367 -0.0001993 -0.0003879 0.0006146 -0.0004150 0.0012347 -0.0002163 0.0006718 0.0023407 -0.0047487
0.0011979 -0.0017214 0.0072248 -0.0088444 0.0038545 0.0020878 -0.0006624 0.0019224 -0.0006060 0.0011390 -0.0002451 0.0001793 -0.0004078 0.0009911 -0.0004609 0.0015436 -0.0002447 0.0010056 0.0023319 -0.0044065
-0.0006299 0.0003057 0.0058985 -0.0036722 0.0038488 0.0052350 -0.0007194 0.0021488 -0.0006309 0.0012932 -0.0002682 0.0002960 -0.0004699 0.0009269 -0.0004937 0.0014681 -0.0002806 0.0008986 0.0023228 -0.0043544
-0.0014934 -0.0000213 0.0081778 -0.0092944 0.0068949 -0.0024610 -0.0007459 0.0019134 -0.0006429 0.0010516 -0.0002924 0.0000297 -0.0005296 0.0005310 -0.0004939 0.0011673 -0.0002988 0.0005471 0.0023136 -0.0045404
-0.0010846 -0.0005468 0.0079138 -0.0102128 0.0079268 -0.0023811 -0.0007364 0.0016692 -0.0006525 0.0008890 -0.0002896 -0.0000949 -0.0005377 0.0004872 -0.0004902 0.0011672 -0.0002876 0.0006001 0.0023118 -0.0044858
-0.0010039 0.0001065 0.0000540 -0.0024237 -0.0011235 0.0049845 -0.0007379 0.0018168 -0.0006706 0.0010161 -0.0002835 0.0000874 -0.0005303 0.0007723 -0.0005041 0.0013952 -0.0002867 0.0009035 0.0023178 -0.0042224
-0.0003154 -0.0006092 -0.0028070 -0.0036264 -0.0070137 0.0000718 -0.0007635 0.0021232 -0.0007010 0.0012916 -0.0002930 0.0003822 -0.0005391 0.0011433 -0.0005392 0.0016892 -0.0003087 0.0012500 0.0023179 -0.0038865
-0.0005391 -0.0000057 0.0001378 -0.0038825 -0.0036310 0.0015652 -0.0008221 0.0024698 -0.0007361 0.0015704 -0.0003277 0.0006043 -0.0005816 0.0012972 -0.0005662 0.0017378 -0.0003549 0.0012069 0.0023157 -0.0037923
0.0006240 -0.0008428 -0.0052887 -0.0001574 -0.0055177 -0.0011800 -0.0008761 0.0023097 -0.0007568 0.0013769 -0.0003695 0.0003448 -0.0006449 0.0009749 -0.0005752 0.0014636 -0.0003801 0.0009004 0.0023059 -0.0039220
0.0018073 -0.0020964 -0.0116925 0.0036899 -0.0236352 0.0127008 -0.0008843 0.0019168 -0.0007591 0.0010262 -0.0003871 -0.0000274 -0.0006669 0.0007186 -0.0005635 0.0013229 -0.0003651 0.0008324 0.0022872 -0.0039033
0.0016368 -0.0012494 -0.0107307 0.0025186 -0.0294094 0.0211160 -0.0008729 0.0019449 -0.0007573 0.0010893 -0.0003799 0.0000472 -0.0006319 0.0009196 -0.0005370 0.0015106 -0.0003450 0.0010325 0.0022821 -0.0037019
0.0019030 -0.0016755 -0.0002400 -0.0071386 -0.0089370 0.0069063 -0.0008721 0.0022059 -0.0007481 0.0014242 -0.0003471 0.0004213 -0.0006137 0.0012314 -0.0005233 0.0018410 -0.0003383 0.0013108 0.0022687 -0.0034385
0.0016096 -0.0011958 0.0028575 -0.0047045 -0.0027953 0.0073619 -0.0009043 0.0025923 -0.0007460 0.0019114 -0.0003225 0.0009166 -0.0006393 0.0015053 -0.0005395 0.0019811 -0.0003626 0.0013811 0.0022271 -0.0033749
0.0000637 0.0002276 0.0035481 -0.0027609 0.0042608 0.0010693 -0.0009325 0.0024822 -0.0007426 0.0018136 -0.0003353 0.0007853 -0.0006859 0.0011910 -0.0005592 0.0016291 -0.0003772 0.0011012 0.0021475 -0.0036231
-0.0005956 -0.0003573 0.0074275 -0.0088703 0.0108614 -0.0131853 -0.0009043 0.0020391 -0.0007234 0.0013703 -0.0003321 0.0003630 -0.0006955 0.0007504 -0.0005420 0.0012805 -0.0003498 0.0008780 0.0019667 -0.0040931
-0.0000612 -0.0007491 0.0069985 -0.0090481 0.0082924 -0.0104752 -0.0008550 0.0019801 -0.0007046 0.0013182 -0.0003061 0.0003777 -0.0006467 0.0008777 -0.0005156 0.0013075 -0.0003136 0.0009905 0.0018564 -0.0042160
-0.0006323 -0.0000733 0.0048237 -0.0078054 0.0042457 -0.0024959 -0.0008300 0.0022071 -0.0007028 0.0015122 -0.0002932 0.0006040 -0.0005930 0.0012331 -0.0005133 0.0015174 -0.0003024 0.0012647 0.0018857 -0.0038455
-0.0013025 0.0008729 0.0038308 -0.0054098 0.0012554 0.0025713 -0.0008483 0.0026002 -0.0007252 0.0018828 -0.0003049 0.0009727 -0.0005722 0.0016802 -0.0005293 0.0018031 -0.0003263 0.0015202 0.0018824 -0.0035686
-0.0011852 0.0008516 0.0057174 -0.0066752 0.0039709 -0.0062470 -0.0008780 0.0025740 -0.0007350 0.0017890 -0.0003337 0.0008514 -0.0006054 0.0015031 -0.0005240 0.0016482 -0.0003496 0.0012770 0.0018649 -0.0035778
0.0000273 -0.0007319 0.0016210 -0.0081169 -0.0034345 -0.0056836 -0.0008874 0.0021591 -0.0007151 0.0014346 -0.0003536 0.0004021 -0.0006263 0.0010801 -0.0004906 0.0013546 -0.0003373 0.0009302 0.0018541 -0.0036255
0.0005830 -0.0004116 -0.0079950 0.0027617 -0.0104115 0.0123677 -0.0008700 0.0020722 -0.0007037 0.0014352 -0.0003465 0.0003711 -0.0005744 0.0012202 -0.0004695 0.0014889 -0.0002933 0.0011216 0.0018457 -0.0034486
0.0012559 -0.0000917 -0.0046713 0.0012277 -0.0048694 0.0057800 -0.0008596 0.0023144 -0.0007210 0.0016154 -0.0003150 0.0007008 -0.0005170 0.0015823 -0.0004741 0.0017467 -0.0002655 0.0014743 0.0018410 -0.0031741
0.0022553 -0.0008653 -0.0041104 -0.0008432 -0.0038473 -0.0056408 -0.0008889 0.0027091 -0.0007463 0.0019574 -0.0003024 0.0011362 -0.0005115 0.0019250 -0.0004871 0.0019294 -0.0002888 0.0015871 0.0018398 -0.0030357
0.0020813 -0.0007931 -0.0073853 0.0036012 -0.0066939 0.0026814 -0.0009053 0.0026363 -0.0007454 0.0018503 -0.0003159 0.0010225 -0.0005547 0.0016762 -0.0004895 0.0017661 -0.0003115 0.0013254 0.0018459 -0.0030774
0.0014693 -0.0009849 0.0014804 -0.0052655 0.0003749 -0.0035274 -0.0008951 0.0022662 -0.0007152 0.0015750 -0.0003082 0.0006951 -0.0005861 0.0012691 -0.0004423 0.0017003 -0.0003064 0.0011305 0.0018464 -0.0030644
0.0011906 -0.0005824 0.0052088 -0.0065549 0.0070187 -0.0085469 -0.0008982 0.0022581 -0.0006915 0.0017308 -0.0002703 0.0008005 -0.0005807 0.0013393 -0.0003914 0.0019884 -0.0002972 0.0012732 0.0018358 -0.0029095
0.0016516 -0.0006262 0.0039184 -0.0047583 0.0073119 -0.0127272 -0.0009180 0.0024382 -0.0007022 0.0019562 -0.0002410 0.0011040 -0.0005768 0.0015973 -0.0003954 0.0022537 -0.0002947 0.0015585 0.0018248 -0.0027129
0.0006657 -0.0004157 0.0076955 -0.0108391 0.0112643 -0.0199701 -0.0009338 0.0024171 -0.0007195 0.0018542 -0.0002471 0.0010517 -0.0006128 0.0014382 -0.0004074 0.0020901 -0.0002987 0.0014125 0.0018209 -0.0027431
-0.0007635 0.0009555 0.0072715 -0.0064811 0.0095115 -0.0078288 -0.0009344 0.0021086 -0.0007147 0.0015099 -0.0002518 0.0007156 -0.0006414 0.0010310 -0.0004110 0.0017097 -0.0002863 0.0010560 0.0018261 -0.0028864
-0.0003977 0.0005473 0.0069708 -0.0056773 0.0065265 -0.0031770 -0.0009072 0.0019874 -0.0006970 0.0014638 -0.0002397 0.0006834 -0.0006325 0.0010370 -0.0004121 0.0016609 -0.0002689 0.0010433 0.0018240 -0.0028272
-0.0007432 0.0006968 0.0056358 -0.0059860 0.0016290 0.0025801 -0.0008886 0.0021811 -0.0006912 0.0016953 -0.0002356 0.0009133 -0.0006325 0.0012790 -0.0004213 0.0018110 -0.0002682 0.0012079 0.0018139 -0.0026344
-0.0012475 0.0014283 0.0040045 -0.0039808 0.0011644 -0.0023746 -0.0009122 0.0024664 -0.0007010 0.0019171 -0.0002495 0.0010937 -0.0006528 0.0013683 -0.0004389 0.0017892 -0.0002861 0.0011325 0.0018123 -0.0026186
-0.0000009 -0.0001620 0.0046092 -0.0035824 0.0060622 -0.0065900 -0.0009261 0.0022552 -0.0007021 0.0016969 -0.0002703 0.0008007 -0.0006937 0.0009865 -0.0004450 0.0014438 -0.0002822 0.0007524 0.0018112 -0.0028291
0.0004205 -0.0004782 -0.0019268 0.0020545 -0.0015996 0.0053680 -0.0009041 0.0017880 -0.0006875 0.0013443 -0.0002631 0.0004604 -0.0006880 0.0007045 -0.0004308 0.0012277 -0.0002341 0.0006296 0.0018091 -0.0029182
0.0002506 -0.0002742 -0.0064815 0.0016442 -0.0082511 0.0054536 -0.0008710 0.0017213 -0.0006719 0.0013619 -0.0002391 0.0005158 -0.0006416 0.0008431 -0.0004160 0.0013010 -0.0001940 0.0007800 0.0018039 -0.0028081
0.0013014 -0.0011474 -0.0043742 -0.0021758 0.0019639 -0.0101145 -0.0008737 0.0019062 -0.0006721 0.0015675 -0.0002290 0.0007387 -0.0006196 0.0010972 -0.0004258 0.0014910 -0.0001837 0.0010150 0.0017939 -0.0026008
0.0018789 -0.0006856 -0.0079658 0.0023031 -0.0047027 -0.0070808 -0.0009043 0.0020786 -0.0006725 0.0016746 -0.0002429 0.0008008 -0.0006461 0.0010517 -0.0004328 0.0014061 -0.0002009 0.0008762 0.0017910 -0.0026190
0.0016443 -0.0005570 -0.0095991 0.0046789 -0.0163493 0.0096719 -0.0009115 0.0018446 -0.0006642 0.0014488 -0.0002567 0.0004949 -0.0006795 0.0006559 -0.0004146 0.0010668 -0.0001942 0.0004923 0.0017900 -0.0028073
0.0013736 -0.0006526 -0.0025335 0.0008555 -0.0053645 0.0099559 -0.0008910 0.0015281 -0.0006502 0.0012488 -0.0002389 0.0002909 -0.0006495 0.0005197 -0.0003860 0.0009703 -0.0001484 0.0004419 0.0017916 -0.0028137
0.0017323 -0.0011963 0.0035666 -0.0052687 -0.0002534 0.0031071 -0.0008705 0.0015472 -0.0006420 0.0013180 -0.0002152 0.0003949 -0.0006066 0.0007011 -0.0003692 0.0010941 -0.0001175 0.0006053 0.0017977 -0.0026723
0.0017262 -0.0006430 0.0016989 -0.0029930 -0.0031617 0.0044783 -0.0008718 0.0017286 -0.0006496 0.0014939 -0.0002104 0.0005948 -0.0005945 0.0009474 -0.0003767 0.0012691 -0.0001174 0.0008127 0.0017973 -0.0024600
0.0005281 0.0008544 0.0036226 -0.0016997 0.0019926 0.0007374 -0.0008969 0.0019926 -0.0006712 0.0017341 -0.0002222 0.0007942 -0.0006036 0.0010865 -0.0003891 0.0012901 -0.0001473 0.0007524 0.0017925 -0.0024076
0.0000263 0.0003594 0.0080293 -0.0067482 0.0066491 -0.0052044 -0.0009196 0.0018153 -0.0006761 0.0015577 -0.0002408 0.0005452 -0.0006393 0.0007590 -0.0003785 0.0010037 -0.0001486 0.0004104 0.0017966 -0.0025487
-0.0007102 0.0002687 0.0068412 -0.0039612 0.0050217 0.0035451 -0.0008934 0.0013785 -0.0006497 0.0011847 -0.0002324 0.0001606 -0.0006338 0.0004010 -0.0003432 0.0007702 -0.0001048 0.0002378 0.0018029 -0.0026056
-0.0012821 0.0004382 0.0063881 -0.0049215 0.0068779 0.0002676 -0.0008411 0.0013001 -0.0006254 0.0011669 -0.0002052 0.0001798 -0.0005772 0.0004821 -0.0003157 0.0008233 -0.0000644 0.0003661 0.0018031 -0.0024981
-0.0007774 0.0006320 0.0051909 -0.0053496 0.0060859 -0.0017352 -0.0008055 0.0014666 -0.0006096 0.0013329 -0.0001936 0.0003666 -0.0005439 0.0006942 -0.0003104 0.0009823 -0.0000432 0.0005919 0.0018125 -0.0022927
-0.0002482 0.0009456 -0.0013878 0.0010178 -0.0077415 0.0104651 -0.0007819 0.0015803 -0.0005936 0.0013697 -0.0001974 0.0003233 -0.0005528 0.0005488 -0.0002980 0.0008353 -0.0000443 0.0004003 0.0018211 -0.0022987
0.0002831 -0.0000789 -0.0037154 -0.0001371 -0.0165514 0.0104213 -0.0007470 0.0012897 -0.0005654 0.0010837 -0.0001870 -0.0000249 -0.0005470 0.0001142 -0.0002555 0.0004719 -0.0000161 0.0000147 0.0018214 -0.0024670
0.0000613 -0.0003416 -0.0008820 -0.0019901 -0.0019510 -0.0016922 -0.0006764 0.0009963 -0.0005177 0.0009015 -0.0001390 -0.0001823 -0.0004832 0.0000224 -0.0001989 0.0003802 0.0000425 -0.0000016 0.0018237 -0.0024690
0.0010028 -0.0008587 -0.0050166 0.0008831 -0.0123588 0.0052070 -0.0006042 0.0010332 -0.0004736 0.0009898 -0.0000880 -0.0000567 -0.0004150 0.0002297 -0.0001638 0.0005099 0.0000842 0.0001987 0.0018256 -0.0023376
0.0017700 -0.0009771 -0.0108935 0.0059395 -0.0344154 0.0245611 -0.0005679 0.0012141 -0.0004610 0.0011430 -0.0000823 0.0000933 -0.0003915 0.0004800 -0.0001728 0.0006697 0.0000990 0.0004506 0.0018344 -0.0021427
0.0017781 -0.0001817 -0.0110269 0.0054013 -0.0168209 0.0110380 -0.0005753 0.0012255 -0.0004781 0.0009932 -0.0001288 -0.0001382 -0.0004200 0.0002787 -0.0001844 0.0004604 0.0000925 0.0002697 0.0019546 -0.0019852
0.0029919 -0.0007781 -0.0010032 -0.0010024 0.0023076 -0.0131772 -0.0005843 0.0008377 -0.0004927 0.0004538 -0.0001738 -0.0006883 -0.0004390 -0.0002132 -0.0001619 0.0000618 0.0000346 -0.0003219 0.0023636 -0.0018428
0.0035167 0.0000256 0.0017614 0.0039985 0.0029108 -0.0048603 -0.0005655 0.0005382 -0.0005560 -0.0001570 -0.0002388 -0.0010609 -0.0003935 -0.0002263 -0.0001341 0.0000071 -0.0000362 -0.0005331 0.0027607 -0.0014835
0.0025225 0.0016253 0.0044424 0.0034901 0.0028866 0.0016402 -0.0005102 0.0006202 -0.0005889 -0.0003520 -0.0002709 -0.0010571 -0.0003294 0.0000291 -0.0001221 0.0001723 -0.0000430 -0.0003240 0.0031757 -0.0003028
0.0022446 0.0024211 0.0079210 0.0013992 0.0038264 0.0048239 -0.0004795 0.0008505 -0.0005455 -0.0000422 -0.0001940 -0.0006661 -0.0002914 0.0002910 -0.0001140 0.0004918 -0.0000094 0.0000155 0.0035710 0.0011738
0.0029669 0.0025979 0.0071403 0.0030613 0.0024333 0.0066148 -0.0005014 0.0011426 -0.0005233 0.0003556 -0.0001472 -0.0002843 -0.0002888 0.0004340 -0.0001174 0.0006049 0.0000171 0.0001021 0.0034658 0.0014935
0.0020458 0.0022426 0.0083761 -0.0001019 0.0074586 -0.0071441 -0.0005092 0.0009945 -0.0004957 0.0003131 -0.0001647 -0.0004795 -0.0003245 0.0001243 -0.0001240 0.0003280 0.0000424 -0.0001376 0.0030355 0.0007664
0.0003586 0.0023958 0.0080171 0.0003201 0.0063617 -0.0036553 -0.0004833 0.0006226 -0.0004544 0.0000907 -0.0001584 -0.0007986 -0.0003260 -0.0001463 -0.0001113 0.0001972 0.0000920 -0.0001977 0.0026134 -0.0001066
0.0003348 0.0012754 0.0074963 -0.0017608 0.0046027 0.0013393 -0.0004587 0.0006567 -0.0004295 0.0001624 -0.0001404 -0.0007193 -0.0002823 0.0000177 -0.0001040 0.0003621 0.0001396 0.0000739 0.0021487 -0.0010772
-0.0003789 0.0009099 0.0054664 -0.0036974 0.0083526 -0.0066679 -0.0004672 0.0008484 -0.0004392 0.0002966 -0.0001325 -0.0004553 -0.0002603 0.0002770 -0.0001179 0.0005681 0.0001568 0.0003977 0.0017925 -0.0017662
-0.0013251 0.0016637 0.0034210 -0.0020049 0.0080878 -0.0083441 -0.0005032 0.0010809 -0.0004654 0.0004898 -0.0001351 -0.0002044 -0.0002687 0.0004070 -0.0001410 0.0005871 0.0001448 0.0004258 0.0016926 -0.0019727
-0.0000077 -0.0000320 0.0044247 -0.0015107 0.0079319 -0.0077087 -0.0005446 0.0009413 -0.0004829 0.0003084 -0.0001545 -0.0003938 -0.0002987 0.0001449 -0.0001545 0.0003494 0.0001426 0.0002059 0.0017310 -0.0019696
0.0004293 -0.0000650 -0.0017893 0.0042245 -0.0022418 0.0072463 -0.0005330 0.0005877 -0.0004716 -0.0000048 -0.0001429 -0.0006622 -0.0003002 -0.0000968 -0.0001299 0.0002385 0.0001578 0.0001263 0.0019467 -0.0014638
0.0001676 0.0005074 -0.0062340 0.0037725 -0.0094780 0.0034815 -0.0004764 0.0006072 -0.0004250 0.0001414 -0.0000990 -0.0005409 -0.0002664 0.0000166 -0.0001008 0.0003991 0.0001688 0.0002700 0.0021591 -0.0008322
0.0016811 -0.0006862 -0.0049052 -0.0000580 0.0030546 -0.0174738 -0.0004472 0.0008466 -0.0003873 0.0004775 -0.0000731 -0.0002853 -0.0002559 0.0002384 -0.0001058 0.0006137 0.0001656 0.0004862 0.0022730 -0.0003747
0.0024968 -0.0005024 -0.0110006 0.0058110 -0.0106766 0.0066158 -0.0004417 0.0009290 -0.0003637 0.0005753 -0.0000735 -0.0002985 -0.0002778 0.0001229 -0.0000973 0.0005359 0.0001457 0.0003333 0.0023851 -0.0001742
0.0020118 0.0000416 -0.0141703 0.0102894 -0.0353332 0.0253885 -0.0004176 0.0006587 -0.0003255 0.0003826 -0.0000607 -0.0005815 -0.0002780 -0.0002505 -0.0000603 0.0002625 0.0001576 -0.0000102 0.0023928 -0.0003009
0.0018288 0.0002078 -0.0031988 0.0046214 -0.0105056 0.0115059 -0.0003759 0.0004761 -0.0002858 0.0003064 -0.0000192 -0.0006290 -0.0002223 -0.0002773 -0.0000228 0.0002467 0.0001981 0.0000016 0.0023010 -0.0004222
0.0024472 -0.0006231 0.0035622 -0.0027880 -0.0016360 0.0047418 -0.0003337 0.0005814 -0.0002634 0.0004446 0.0000168 -0.0004209 -0.0001788 -0.0000479 -0.0000114 0.0004104 0.0002143 0.0001974 0.0022385 -0.0003832
0.0023495 0.0000857 0.0002116 0.0000539 -0.0114656 0.0118277 -0.0003288 0.0007988 -0.0002669 0.0006816 0.0000259 -0.0001435 -0.0001758 0.0002202 -0.0000209 0.0005927 0.0002040 0.0003667 0.0021843 -0.0003735
0.0010546 0.0012638 0.0034534 -0.0004399 0.0003089 0.0036241 -0.0003400 0.0007078 -0.0002604 0.0005564 0.0000182 -0.0003074 -0.0001889 -0.0000453 -0.0000117 0.0003428 0.0002001 0.0000757 0.0019493 -0.0011093
0.0005318 0.0004209 0.0081620 -0.0054564 0.0084171 -0.0040534 -0.0002888 0.0002535 -0.0002116 0.0001122 0.0000443 -0.0007669 -0.0001538 -0.0005455 0.0000325 -0.0000643 0.0002410 -0.0002955 0.0017186 -0.0019090
-0.0010106 0.0012023 0.0071291 -0.0019809 0.0049036 0.0035936 -0.0001878 0.0000668 -0.0001452 -0.0000151 0.0001042 -0.0008327 -0.0000517 -0.0005406 0.0000872 -0.0000723 0.0002918 -0.0002435 0.0017314 -0.0018334
-0.0019567 0.0014500 0.0091353 -0.0066710 0.0119098 -0.0102311 -0.0001107 0.0001952 -0.0000986 0.0001311 0.0001500 -0.0006392 0.0000312 -0.0002952 0.0001171 0.0001063 0.0003139 -0.0000326 0.0018205 -0.0014341
-0.0011325 0.0015758 0.0087452 -0.0067200 0.0076609 -0.0038885 -0.0000824 0.0004240 -0.0000804 0.0003685 0.0001691 -0.0004114 0.0000666 -0.0000942 0.0001258 0.0002047 0.0003004 -0.0000112 0.0019801 -0.0009978
-0.0011647 0.0021083 0.0027074 -0.0005033 -0.0012424 0.0067205 -0.0000634 0.0002691 -0.0000669 0.0001912 0.0001725 -0.0006127 0.0000634 -0.0003964 0.0001423 -0.0000287 0.0002937 -0.0003126 0.0022914 -0.0004431
-0.0009267 0.0012299 0.0010594 -0.0010529 -0.0011409 0.0012426 -0.0000085 -0.0001662 -0.0000297 -0.0002325 0.0001982 -0.0009893 0.0000979 -0.0007780 0.0001816 -0.0002370 0.0003259 -0.0004826 0.0026822 0.0003571
-0.0008879 0.0012091 0.0050786 -0.0030022 -0.0023304 0.0043658 0.0000641 -0.0002394 0.0000201 -0.0002723 0.0002407 -0.0009727 0.0001785 -0.0006971 0.0002181 -0.0001393 0.0003560 -0.0003585 0.0029476 0.0010232
0.0004051 0.0003994 0.0000936 -0.0012833 -0.0091474 0.0069653 0.0001095 -0.0000423 0.0000442 -0.0000892 0.0002660 -0.0007546 0.0002353 -0.0004537 0.0002239 0.0000835 0.0003570 -0.0001241 0.0030868 0.0014942
0.0011686 0.0009175 -0.0087346 0.0090002 -0.0105462 0.0105696 0.0001190 0.0001653 0.0000581 0.0000413 0.0002600 -0.0006773 0.0002391 -0.0004757 0.0002228 0.0000736 0.0003185 -0.0002752 0.0031944 0.0017126
0.0017356 0.0009546 -0.0044217 0.0064985 -0.0039469 0.0034559 0.0001358 -0.0000379 0.0000861 -0.0001592 0.0002555 -0.0009360 0.0002295 -0.0008338 0.0002450 -0.0001766 0.0003006 -0.0006704 0.0032428 0.0016279
0.0027299 -0.0005328 -0.0056436 0.0048019 -0.0133864 0.0088643 0.0001874 -0.0003337 0.0001258 -0.0003668 0.0002873 -0.0010818 0.0002766 -0.0009251 0.0002752 -0.0001947 0.0003258 -0.0006820 0.0032562 0.0017011
0.0025850 -0.0005550 -0.0105142 0.0093753 -0.0276240 0.0184470 0.0002379 -0.0002337 0.0001596 -0.0002498 0.0003201 -0.0009049 0.0003352 -0.0006804 0.0002844 0.0000054 0.0003393 -0.0004492 0.0032720 0.0019949
0.0023928 -0.0006450 0.0005575 -0.0011319 -0.0011784 -0.0039506 0.0002519 0.0000247 0.0001604 0.0000103 0.0003290 -0.0006196 0.0003560 -0.0003682 0.0002642 0.0002623 0.0003277 -0.0001721 0.0032498 0.0022655
0.0020880 0.0006150 0.0033940 0.0000978 -0.0036063 0.0094529 0.0002149 0.0003641 0.0001354 0.0003411 0.0003140 -0.0003043 0.0003356 -0.0001027 0.0002403 0.0004315 0.0002900 -0.0000902 0.0032115 0.0023168
0.0023916 0.0005161 0.0007064 0.0029071 -0.0081358 0.0124666 0.0001821 0.0002457 0.0001326 0.0002034 0.0002887 -0.0004852 0.0002863 -0.0003875 0.0002332 0.0002325 0.0002623 -0.0003745 0.0031207 0.0020262
0.0015050 0.0001707 0.0058700 -0.0036845 0.0040632 -0.0045937 0.0002021 -0.0001671 0.0001614 -0.0001665 0.0002919 -0.0008593 0.0002791 -0.0007667 0.0002376 0.0000225 0.0002814 -0.0005469 0.0029740 0.0016997
0.0003818 0.0013898 0.0072731 -0.0022140 0.0091368 -0.0062873 0.0002377 -0.0001881 0.0001833 -0.0001471 0.0003165 -0.0008136 0.0003131 -0.0006427 0.0002398 0.0001212 0.0003042 -0.0003796 0.0028814 0.0016617
0.0007903 0.0015471 0.0052123 0.0007140 0.0040235 0.0045391 0.0002471 0.0000175 0.0001821 0.0000423 0.0003198 -0.0006103 0.0003259 -0.0003874 0.0002213 0.0003183 0.0002943 -0.0001367 0.0028430 0.0018201
-0.0001837 0.0026524 0.0045448 0.0021211 0.0008129 0.0108622 0.0002141 0.0002902 0.0001519 0.0003023 0.0003022 -0.0003534 0.0003119 -0.0001392 0.0001920 0.0004658 0.0002576 -0.0000395 0.0028151 0.0018991
-0.0007671 0.0026318 0.0059302 -0.0004711 0.0081680 -0.0023115 0.0001819 0.0001620 0.0001390 0.0001452 0.0002789 -0.0005527 0.0002666 -0.0004153 0.0001798 0.0002587 0.0002313 -0.0003023 0.0027729 0.0017326
-0.0003915 0.0016145 0.0055045 0.0004062 0.0083724 0.0002102 0.0001990 -0.0002533 0.0001620 -0.0002347 0.0002824 -0.0009396 0.0002485 -0.0008012 0.0001915 0.0000301 0.0002466 -0.0005019 0.0026793 0.0015205
-0.0006016 0.0019375 0.0028056 0.0026614 0.0050797 0.0038494 0.0002476 -0.0003201 0.0001823 -0.0002442 0.0003071 -0.0009088 0.0002828 -0.0006882 0.0001991 0.0001293 0.0002650 -0.0003703 0.0025526 0.0014124
-0.0007382 0.0025181 0.0017183 0.0017781 -0.0001800 0.0043798 0.0002687 -0.0001174 0.0001788 -0.0000485 0.0003169 -0.0006810 0.0003053 -0.0004116 0.0001833 0.0003409 0.0002583 -0.0001259 0.0024417 0.0014041
-0.0001138 0.0025739 -0.0036750 0.0058385 -0.0131936 0.0167842 0.0002321 0.0001713 0.0001441 0.0002316 0.0003073 -0.0003792 0.0002968 -0.0001141 0.0001549 0.0005195 0.0002266 0.0000061 0.0023315 0.0012892
0.0006202 0.0016820 -0.0078292 0.0059616 -0.0170903 0.0072259 0.0001947 0.0000362 0.0001286 0.0000746 0.0002826 -0.0005707 0.0002456 -0.0003935 0.0001397 0.0003105 0.0002000 -0.0002836 0.0021894 0.0008404
0.0001888 0.0015152 -0.0048953 0.0039519 -0.0105855 0.0045891 0.0002063 -0.0004156 0.0001561 -0.0003605 0.0002830 -0.0010015 0.0002306 -0.0008427 0.0001459 0.0000169 0.0002303 -0.0005406 0.0017654 -0.0003818
0.0003824 0.0010811 -0.0062421 0.0050797 -0.0169916 0.0180518 0.0002408 -0.0005059 0.0001674 -0.0004854 0.0002936 -0.0010448 0.0002786 -0.0007604 0.0001526 0.0000600 0.0002764 -0.0003955 0.0013314 -0.0014526
0.0009973 0.0002647 -0.0073320 0.0038715 -0.0140812 0.0121139 0.0002473 -0.0003514 0.0001384 -0.0004643 0.0002926 -0.0008692 0.0003016 -0.0005022 0.0001347 0.0002673 0.0002805 -0.0001361 0.0013403 -0.0012063
0.0007625 0.0011463 -0.0076776 0.0044196 -0.0153267 0.0125518 0.0002205 -0.0001290 0.0000874 -0.0003500 0.0002848 -0.0005563 0.0002834 -0.0001947 0.0000880 0.0005466 0.0002475 0.0001486 0.0015821 -0.0002920
0.0008079 0.0012715 -0.0020438 0.0007082 -0.0088543 0.0053975 0.0001620 0.0001895 0.0000424 -0.0001476 0.0002543 -0.0002904 0.0002330 -0.0000280 0.0000444 0.0006207 0.0001841 0.0000880 0.0017988 0.0003096
0.0007723 0.0010898 0.0004976 0.0012804 -0.0032778 0.0040881 0.0001134 -0.0000105 0.0000349 -0.0003684 0.0002192 -0.0005708 0.0001612 -0.0004158 0.0000268 0.0003294 0.0001467 -0.0003273 0.0018891 0.0003318
-0.0002980 0.0016023 0.0016487 0.0015209 0.0030755 -0.0001719 0.0001282 -0.0005548 0.0000611 -0.0007890 0.0002161 -0.0010106 0.0001407 -0.0008302 0.0000304 0.0001168 0.0001625 -0.0005034 0.0019328 0.0003429
-0.0005937 0.0014157 0.0042927 -0.0015077 0.0098503 -0.0073113 0.0001634 -0.0006373 0.0000822 -0.0007832 0.0002367 -0.0009878 0.0001709 -0.0007193 0.0000278 0.0002345 0.0001784 -0.0003501 0.0019497 0.0004842
0.0000021 0.0011995 0.0040278 -0.0015351 0.0063368 -0.0008516 0.0001777 -0.0004407 0.0000825 -0.0005694 0.0002407 -0.0007585 0.0001825 -0.0004186 0.0000025 0.0004753 0.0001709 -0.0000777 0.0019475 0.0006847
-0.0006358 0.0017334 0.0036735 -0.0020894 0.0040392 -0.0033462 0.0001503 -0.0001498 0.0000522 -0.0002730 0.0002245 -0.0004363 0.0001616 -0.0000372 -0.0000444 0.0007691 0.0001411 0.0002413 0.0019300 0.0009247
-0.0013403 0.0027776 0.0030747 0.0004045 0.0051585 -0.0015681 0.0000855 0.0002157 -0.0000022 0.0000968 0.0001941 -0.0000639 0.0001181 0.0003618 -0.0000993 0.0010405 0.0000923 0.0004557 0.0019056 0.0010470
-0.0011486 0.0027026 0.0035653 0.0001490 0.0076534 -0.0055087 0.0000271 0.0001442 -0.0000305 -0.0000083 0.0001479 -0.0002369 0.0000377 0.0000819 -0.0001351 0.0008151 0.0000490 0.0001392 0.0018864 0.0009032
-0.0009998 0.0018765 0.0017745 -0.0008295 0.0041330 -0.0069694 0.0000221 -0.0003272 -0.0000226 -0.0004552 0.0001299 -0.0007243 -0.0000200 -0.0004669 -0.0001409 0.0004300 0.0000468 -0.0002461 0.0018669 0.0007514
-0.0011660 0.0019339 -0.0005218 0.0016529 -0.0006053 0.0033535 0.0000458 -0.0004739 -0.0000161 -0.0005223 0.0001422 -0.0007431 -0.0000041 -0.0004024 -0.0001412 0.0004852 0.0000608 -0.0001497 0.0018415 0.0008025
-0.0005380 0.0014376 0.0003343 0.0019245 0.0035648 0.0004393 0.0000471 -0.0002876 -0.0000321 -0.0003150 0.0001384 -0.0004891 0.0000099 -0.0000810 -0.0001647 0.0007207 0.0000549 0.0001170 0.0018179 0.0009810
-0.0001745 0.0016530 -0.0042363 0.0060321 -0.0034158 0.0061965 0.0000171 0.0000308 -0.0000644 0.0000122 0.0001255 -0.0001176 -0.0000039 0.0003401 -0.0002039 0.0010440 0.0000287 0.0004514 0.0018032 0.0012537
-0.0004254 0.0022034 -0.0071913 0.0067711 -0.0126800 0.0123326 -0.0000425 0.0004567 -0.0001029 0.0004601 0.0001036 0.0003143 -0.0000407 0.0008033 -0.0002589 0.0014256 -0.0000185 0.0008198 0.0017847 0.0015688
0.0001757 0.0018355 -0.0047380 0.0034078 0.0019800 -0.0098853 -0.0001165 0.0007676 -0.0001441 0.0006850 0.0000591 0.0004809 -0.0001123 0.0008808 -0.0003049 0.0014128 -0.0000823 0.0006735 0.0017600 0.0015616
0.0006192 0.0016717 -0.0065604 0.0057005 -0.0044207 -0.0126235 -0.0001688 0.0004806 -0.0001665 0.0004053 0.0000148 0.0001436 -0.0001929 0.0004540 -0.0003170 0.0010374 -0.0001104 0.0001830 0.0017365 0.0013302
0.0004115 0.0014612 -0.0081675 0.0076200 -0.0316320 0.0211652 -0.0001669 0.0000658 -0.0001635 0.0001677 0.0000029 -0.0001173 -0.0002205 0.0002620 -0.0003185 0.0009307 -0.0001021 0.0001084 0.0017029 0.0012911
0.0001760 0.0016510 -0.0034875 0.0052934 -0.0064893 0.0101121 -0.0001512 0.0001195 -0.0001674 0.0003069 -0.0000006 0.0000378 -0.0002150 0.0005141 -0.0003318 0.0011062 -0.0001053 0.0003213 0.0016684 0.0014114
0.0003985 0.0015500 0.0006135 0.0013752 0.0051349 -0.0055799 -0.0001713 0.0003972 -0.0002021 0.0006070 -0.0000199 0.0003358 -0.0002330 0.0008878 -0.0003677 0.0013667 -0.0001276 0.0006040 0.0016379 0.0016076
0.0003615 0.0021659 -0.0011087 0.0032122 -0.0006646 0.0015555 -0.0002289 0.0007690 -0.0002543 0.0009863 -0.0000532 0.0006804 -0.0002764 0.0012976 -0.0004197 0.0016713 -0.0001704 0.0009040 0.0016021 0.0018163
-0.0003373 0.0030682 0.0007853 0.0033821 0.0021089 0.0048475 -0.0002968 0.0008962 -0.0002903 0.0010458 -0.0001039 0.0006717 -0.0003539 0.0012085 -0.0004513 0.0015692 -0.0002147 0.0007029 0.0015721 0.0017427
-0.0006155 0.0026732 0.0040930 0.0001834 0.0074366 -0.0025637 -0.0003294 0.0005789 -0.0003047 0.0007455 -0.0001404 0.0003366 -0.0004336 0.0007998 -0.0004537 0.0012191 -0.0002241 0.0002858 0.0015483 0.0015357
-0.0015325 0.0029548 0.0036549 0.0018686 0.0061669 0.0020158 -0.0003210 0.0003317 -0.0003158 0.0006381 -0.0001495 0.0002413 -0.0004564 0.0007665 -0.0004513 0.0011791 -0.0002144 0.0002680 0.0015245 0.0015211
-0.0019787 0.0029897 0.0045570 -0.0002079 0.0079677 -0.0008634 -0.0003147 0.0004460 -0.0003389 0.0008026 -0.0001584 0.0004239 -0.0004607 0.0009952 -0.0004598 0.0013273 -0.0002188 0.0004055 0.0014744 0.0015510
-0.0015239 0.0030738 0.0042236 -0.0008278 0.0063546 -0.0019045 -0.0003469 0.0007100 -0.0003837 0.0010719 -0.0001793 0.0007156 -0.0004850 0.0013245 -0.0004925 0.0015596 -0.0002351 0.0006204 0.0012372 0.0011002
-0.0017483 0.0032546 -0.0001287 0.0016333 0.0001332 0.0016267 -0.0003912 0.0007225 -0.0004190 0.0010119 -0.0002216 0.0006285 -0.0005527 0.0011471 -0.0005145 0.0013665 -0.0002451 0.0003905 0.0009425 0.0002091
-0.0018226 0.0023649 -0.0021560 0.0008529 -0.0024486 0.0040575 -0.0004012 0.0003387 -0.0004419 0.0006074 -0.0002538 0.0002231 -0.0006137 0.0006790 -0.0005011 0.0009662 -0.0002246 0.0000172 0.0009059 -0.0000677
-0.0017632 0.0018304 0.0000907 -0.0007283 0.0056895 -0.0054073 -0.0004016 0.0000956 -0.0004778 0.0004181 -0.0002597 0.0001240 -0.0006313 0.0006334 -0.0004820 0.0009210 -0.0001948 0.0000658 0.0009966 0.0002419
-0.0011208 0.0013791 -0.0025117 0.0004974 -0.0015141 -0.0057360 -0.0004070 0.0001664 -0.0005166 0.0005015 -0.0002665 0.0002927 -0.0006423 0.0008477 -0.0004841 0.0010368 -0.0001825 0.0002590 0.0010345 0.0005391
-0.0008503 0.0018641 -0.0059661 0.0051235 -0.0215156 0.0149574 -0.0004111 0.0003793 -0.0005564 0.0007040 -0.0002805 0.0005476 -0.0006537 0.0011746 -0.0005104 0.0012289 -0.0001907 0.0005103 0.0010339 0.0007860
-0.0004714 0.0020320 -0.0039773 0.0040871 -0.0066263 0.0036376 -0.0004236 0.0004443 -0.0005778 0.0006481 -0.0003062 0.0004547 -0.0006985 0.0010049 -0.0005121 0.0010204 -0.0002081 0.0002470 0.0010364 0.0007328
0.0000399 0.0012786 -0.0055599 0.0040880 -0.0078781 0.0045314 -0.0004140 0.0000571 -0.0005669 0.0002408 -0.0003203 0.0000349 -0.0007277 0.0004727 -0.0004688 0.0005541 -0.0001868 -0.0002781 0.0010419 0.0004973
-0.0000651 0.0008356 -0.0079448 0.0053520 -0.0173304 0.0095007 -0.0003500 -0.0003005 -0.0005448 -0.0000032 -0.0003008 -0.0001321 -0.0007017 0.0003612 -0.0004157 0.0004341 -0.0001343 -0.0003483 0.0010340 0.0004577
0.0001033 0.0004008 -0.0033707 0.0004003 0.0050107 -0.0153204 -0.0002905 -0.0002558 -0.0005305 0.0000630 -0.0002779 -0.0000095 -0.0006621 0.0005695 -0.0003843 0.0005651 -0.0000969 -0.0001722 0.0010271 0.0005636
0.0001425 0.0009441 -0.0024851 0.0019672 0.0062636 -0.0070504 -0.0002876 -0.0000236 -0.0005319 0.0002543 -0.0002742 0.0002356 -0.0006403 0.0008717 -0.0003828 0.0007922 -0.0000863 0.0000891 0.0010180 0.0007446
0.0002381 0.0012873 -0.0042934 0.0045298 -0.0031289 0.0005208 -0.0003167 0.0002809 -0.0005588 0.0005162 -0.0002859 0.0005233 -0.0006415 0.0011403 -0.0003844 0.0009188 -0.0001098 0.0001433 0.0010052 0.0007945
-0.0000959 0.0012485 -0.0007862 0.0012809 0.0009390 -0.0028063 -0.0003433 0.0001239 -0.0005673 0.0003291 -0.0003082 0.0002968 -0.0006761 0.0008068 -0.0003711 0.0006348 -0.0001171 -0.0002176 0.0010043 0.0006162
-0.0003703 0.0010079 0.0021309 -0.0012599 0.0024824 0.0026603 -0.0003131 -0.0003951 -0.0005329 -0.0001417 -0.0003019 -0.0001762 -0.0006840 0.0002904 -0.0003332 0.0003010 -0.0000758 -0.0005035 0.0010093 0.0004697
-0.0001918 0.0008438 0.0004480 0.0004813 -0.0012943 0.0044512 -0.0002477 -0.0005454 -0.0004956 -0.0002281 -0.0002702 -0.0002015 -0.0006261 0.0003063 -0.0002975 0.0003324 -0.0000332 -0.0004148 0.0010067 0.0005063
-0.0007997 0.0016032 0.0007704 0.0015918 0.0012245 0.0046817 -0.0002047 -0.0003904 -0.0004799 -0.0000741 -0.0002550 0.0000018 -0.0005768 0.0005504 -0.0002886 0.0005297 -0.0000159 -0.0001837 0.0009977 0.0006553
-0.0010936 0.0017219 0.0031848 -0.0009415 0.0073820 -0.0019181 -0.0002113 -0.0001304 -0.0004963 0.0001550 -0.0002570 0.0002959 -0.0005610 0.0008906 -0.0003068 0.0007902 -0.0000227 0.0001143 0.0009883 0.0008665
-0.0013550 0.0021024 0.0024420 0.0014784 0.0059224 0.0019020 -0.0002665 0.0002248 -0.0005387 0.0004343 -0.0002780 0.0006242 -0.0005694 0.0011975 -0.0003300 0.0009567 -0.0000528 0.0002187 0.0009772 0.0009354
-0.0016918 0.0022264 0.0018061 0.0012684 0.0040089 0.0008846 -0.0002912 0.0000946 -0.0005588 0.0002482 -0.0003117 0.0004243 -0.0006112 0.0008778 -0.0003271 0.0006862 -0.0000691 -0.0001337 0.0009702 0.0007805
-0.0016217 0.0019224 0.0016652 -0.0002239 0.0040424 -0.0012137 -0.0002565 -0.0004155 -0.0005400 -0.0002266 -0.0003201 -0.0000280 -0.0006306 0.0003715 -0.0003019 0.0003405 -0.0000414 -0.0004394 0.0009718 0.0006644
-0.0013112 0.0018148 -0.0026136 0.0035859 -0.0020587 0.0042347 -0.0002117 -0.0005189 -0.0005180 -0.0002765 -0.0003028 -0.0000369 -0.0005880 0.0004350 -0.0002741 0.0004062 -0.0000049 -0.0003443 0.0009738 0.0007112
-0.0009406 0.0015236 -0.0040275 0.0035444 -0.0051989 0.0033167 -0.0001837 -0.0002911 -0.0005068 -0.0000273 -0.0002851 0.0002347 -0.0005240 0.0007609 -0.0002553 0.0007029 0.0000148 -0.0000697 0.0009659 0.0008715
-0.0011034 0.0019934 -0.0012576 0.0022238 0.0032099 -0.0004331 -0.0002012 0.0000493 -0.0005207 0.0003446 -0.0002783 0.0006113 -0.0004811 0.0011906 -0.0002307 0.0011602 0.0000166 0.0002810 0.0009574 0.0011132
-0.0005811 0.0020447 -0.0035364 0.0040276 -0.0002594 -0.0068810 -0.0002612 0.0004586 -0.0005526 0.0007786 -0.0002817 0.0010314 -0.0004766 0.0016336 -0.0002134 0.0015700 -0.0000015 0.0005127 0.0009406 0.0012231
-0.0002400 0.0020339 -0.0067289 0.0069642 -0.0184687 0.0123831 -0.0003116 0.0003807 -0.0005523 0.0007689 -0.0003104 0.0008420 -0.0005065 0.0013968 -0.0001965 0.0014236 -0.0000132 0.0001905 0.0009039 0.0009983
0.0002447 0.0017771 -0.0068113 0.0056933 -0.0188304 0.0174039 -0.0002969 -0.0000592 -0.0005094 0.0004809 -0.0002983 0.0004297 -0.0005083 0.0009114 -0.0001494 0.0011491 0.0000410 -0.0000428 0.0008631 0.0007806
0.0012729 0.0007998 -0.0076967 0.0052782 -0.0127834 0.0061377 -0.0002620 -0.0000996 -0.0004892 0.0005173 -0.0002390 0.0006413 -0.0004574 0.0010751 -0.0001161 0.0012910 0.0001181 0.0002618 0.0008317 0.0008175
0.0013451 0.0009402 -0.0107130 0.0093451 -0.0159388 0.0128514 -0.0002651 0.0001710 -0.0004909 0.0007981 -0.0002272 0.0009982 -0.0004195 0.0014394 -0.0001192 0.0015466 0.0001412 0.0005563 0.0008113 0.0009843
0.0010411 0.0012519 -0.0023871 0.0018214 -0.0055946 0.0042293 -0.0002831 0.0005306 -0.0005059 0.0011813 -0.0002365 0.0013767 -0.0004183 0.0018169 -0.0001554 0.0018115 0.0001141 0.0008600 0.0007879 0.0012243
0.0007774 0.0020649 0.0008861 0.0013522 0.0023697 -0.0014302 -0.0003191 0.0006989 -0.0005292 0.0012134 -0.0002563 0.0014365 -0.0004794 0.0017069 -0.0001985 0.0015845 0.0000515 0.0005552 0.0007725 0.0011882
0.0008598 0.0018078 -0.0021416 0.0039940 -0.0005425 0.0017599 -0.0003600 0.0003926 -0.0005374 0.0009066 -0.0003070 0.0009979 -0.0005601 0.0011586 -0.0002131 0.0010530 0.0000040 -0.0000662 0.0007811 0.0010087
0.0001858 0.0014240 0.0020940 -0.0007875 0.0056519 -0.0058079 -0.0003693 0.0000854 -0.0005486 0.0007478 -0.0003307 0.0007466 -0.0005850 0.0009645 -0.0002103 0.0008938 0.0000046 -0.0001488 0.0007873 0.0010483
-0.0004973 0.0022770 0.0042213 -0.0004295 0.0105362 -0.0093720 -0.0003687 0.0001721 -0.0005701 0.0008468 -0.0003237 0.0009223 -0.0005755 0.0011660 -0.0002160 0.0010027 0.0000190 0.0000587 0.0007762 0.0011828
-0.0002531 0.0025512 0.0025871 0.0020939 0.0057799 -0.0048748 -0.0003863 0.0004387 -0.0005945 0.0011006 -0.0003353 0.0012039 -0.0005774 0.0014758 -0.0002436 0.0012157 0.0000097 0.0003362 0.0007593 0.0013282
-0.0012173 0.0034999 0.0024500 0.0029534 0.0016865 0.0042884 -0.0004106 0.0005012 -0.0006069 0.0010635 -0.0003662 0.0011103 -0.0006230 0.0012759 -0.0002491 0.0010202 -0.0000077 0.0000846 0.0007467 0.0012295
-0.0017486 0.0030694 0.0043899 -0.0003557 0.0072559 -0.0014943 -0.0004109 0.0001335 -0.0006007 0.0006844 -0.0003865 0.0006990 -0.0006589 0.0007641 -0.0002201 0.0005925 0.0000118 -0.0003699 0.0007390 0.0010290
-0.0016519 0.0022194 0.0037136 0.0011289 0.0077964 0.0004496 -0.0003829 -0.0001179 -0.0005873 0.0005188 -0.0003758 0.0005763 -0.0006437 0.0006825 -0.0001895 0.0005098 0.0000507 -0.0003747 0.0007283 0.0010363
-0.0019489 0.0026416 0.0019412 0.0023694 0.0069119 0.0002931 -0.0003673 -0.0000061 -0.0005981 0.0006020 -0.0003709 0.0007205 -0.0006195 0.0008892 -0.0001834 0.0006297 0.0000749 -0.0001603 0.0007219 0.0011710
-0.0020062 0.0033045 0.0012693 0.0020377 0.0066512 -0.0134657 -0.0003824 0.0002577 -0.0006386 0.0007538 -0.0003896 0.0009629 -0.0006192 0.0011992 -0.0002141 0.0008239 0.0000730 0.0001438 0.0007107 0.0013683
-0.0014635 0.0034247 -0.0040560 0.0066077 -0.0044007 -0.0020238 -0.0004085 0.0004210 -0.0006569 0.0007370 -0.0004200 0.0009638 -0.0006543 0.0010992 -0.0002269 0.0006600 0.0000491 -0.0000709 0.0006926 0.0013027
