-0.0000000 -0.0000000 -0.0000000 -0.0000000 -0.0000000 -0.0000000 -0.0000000 -0.0000000 -0.0000000 -0.0000000 -0.0000000 -0.0000000 -0.0000000 -0.0000000 -0.0000000 -0.0000000 -0.0000000 -0.0000000 -0.0000000 -0.0000000
-0.0000000 -0.0000000 -0.0000000 -0.0000000 -0.0000000 -0.0000000 -0.0000000 -0.0000000 -0.0000000 -0.0000000 -0.0000000 -0.0000000 -0.0000000 -0.0000000 -0.0000000 -0.0000000 -0.0000000 -0.0000000 -0.0000000 -0.0000000
-0.0002201 0.0055560 0.0003934 -0.0000695 -0.0103297 0.0131900 0.0004455 -0.0010693 -0.0040204 0.0106751 0.0005504 -0.0014675 0.0000756 -0.0000074 0.0000012 0.0000022 -0.0000059 -0.0000116 0.0000034 0.0000196
-0.0032392 -0.0038216 -0.0024847 0.0101970 -0.0032267 0.0079323 0.0016080 -0.0042268 -0.0017891 0.0047058 -0.0002818 0.0007115 -0.0000107 0.0000036 0.0000063 -0.0000302 -0.0000102 -0.0001147 -0.0000044 -0.0001017
-0.0069822 0.0002700 0.0002849 0.0088164 -0.0000311 0.0127466 -0.0017974 0.0046332 0.0012767 -0.0034147 -0.0045795 0.0120336 -0.0002016 0.0001392 0.0000006 -0.0000409 -0.0000081 -0.0000853 0.0000011 -0.0000520
-0.0068006 0.0010168 -0.0014930 0.0121280 0.0054339 0.0074327 -0.0045990 0.0121873 -0.0087968 0.0233000 -0.0081191 0.0213505 -0.0000633 0.0000369 0.0000029 -0.0000053 -0.0000137 -0.0000317 0.0000205 0.0000723
0.0072919 -0.0080737 -0.0034122 -0.0004395 -0.0023708 0.0115003 0.0000565 -0.0000101 -0.0098869 0.0261934 -0.0041358 0.0108097 -0.0000916 0.0000728 0.0000061 0.0000252 -0.0000173 -0.0000289 0.0000150 0.0000624
0.0064347 -0.0052757 -0.0111725 0.0070782 -0.0150091 0.0163016 -0.0106879 0.0281775 -0.0063388 0.0167648 0.0013883 -0.0037717 -0.0002525 0.0001781 0.0000090 -0.0000010 -0.0000185 -0.0001036 0.0000057 -0.0000629
0.0030277 -0.0116806 -0.0061484 0.0033636 -0.0053334 0.0015593 -0.0126536 0.0333421 -0.0062074 0.0163951 0.0010164 -0.0028245 0.0000179 -0.0000903 0.0000100 -0.0000206 -0.0000201 -0.0001212 0.0000409 -0.0000633
0.0063219 -0.0010032 0.0182612 -0.0184384 0.0110484 0.0195801 -0.0118441 0.0315162 0.0120752 -0.0318569 0.0079254 -0.0210940 0.0001921 -0.0001201 0.0000042 0.0000028 -0.0000204 -0.0000574 0.0000381 0.0000477
0.0061433 -0.0002202 0.0173911 -0.0172080 0.0118434 0.0204556 -0.0119258 0.0318404 0.0166368 -0.0438569 0.0095906 -0.0255093 0.0000178 0.0001239 0.0000020 0.0000484 -0.0000248 0.0000093 0.0000073 0.0001490
-0.0000569 -0.0113190 0.0000623 -0.0092121 -0.0048833 -0.0161826 0.0132064 -0.0348286 0.0086890 -0.0229344 0.0064189 -0.0171398 -0.0001987 0.0002064 0.0000024 0.0000295 -0.0000283 -0.0000457 0.0000408 -0.0000313
-0.0007662 -0.0032624 -0.0146703 0.0094922 -0.0067688 0.0131305 -0.0025852 0.0066664 -0.0020319 0.0052799 -0.0110709 0.0290639 -0.0005102 0.0002710 -0.0000039 -0.0000285 -0.0000260 -0.0001067 0.0000289 -0.0001187
-0.0026324 0.0033810 -0.0183767 0.0141330 -0.0066688 0.0128684 -0.0024494 0.0062779 -0.0048956 0.0128300 -0.0159987 0.0421076 0.0001773 -0.0005594 -0.0000203 -0.0000275 -0.0000240 -0.0000422 -0.0000261 0.0000472
-0.0009210 -0.0024867 -0.0019695 -0.0046460 0.0113553 -0.0520885 0.0169401 -0.0448785 0.0006179 -0.0016938 -0.0080146 0.0210419 0.0006129 -0.0007333 -0.0000312 0.0000087 -0.0000235 0.0000604 -0.0000291 0.0002063
0.0009823 0.0047649 0.0039561 -0.0188469 0.0096064 -0.0516374 0.0208774 -0.0552022 0.0027902 -0.0073802 0.0145096 -0.0384562 0.0000878 0.0001417 -0.0000172 0.0000249 -0.0000256 0.0000265 -0.0000301 0.0001635
-0.0020138 0.0101921 -0.0006712 -0.0042152 -0.0105050 -0.0077947 0.0189717 -0.0501320 0.0017328 -0.0045933 0.0142610 -0.0377785 0.0002640 0.0000129 -0.0000091 0.0000023 -0.0000280 -0.0000666 -0.0000429 0.0000082
-0.0041780 -0.0036080 -0.0028567 0.0050541 -0.0067083 -0.0101122 0.0153282 -0.0406761 0.0037079 -0.0098976 0.0153547 -0.0406358 0.0001536 0.0000696 -0.0000205 -0.0000183 -0.0000124 -0.0000070 -0.0000481 0.0000088
-0.0068015 0.0004054 -0.0006754 0.0102870 -0.0013189 -0.0127010 0.0192447 -0.0511094 0.0036991 -0.0098981 0.0067691 -0.0178922 -0.0000120 0.0001920 -0.0000345 -0.0000118 0.0000012 0.0000812 -0.0000522 0.0000764
-0.0074431 0.0041064 -0.0040169 0.0147645 -0.0012966 -0.0097881 0.0130355 -0.0346483 0.0030067 -0.0080352 0.0034085 -0.0089685 -0.0000925 0.0002776 -0.0000354 -0.0000183 0.0000000 0.0000358 -0.0000577 -0.0000022
0.0045392 -0.0062797 -0.0072076 0.0002180 -0.0017996 -0.0209163 0.0124987 -0.0330943 0.0064849 -0.0171287 0.0011047 -0.0029306 -0.0002219 0.0003218 -0.0000179 -0.0000393 -0.0000219 -0.0001396 -0.0000152 -0.0000572
0.0047646 -0.0083219 -0.0145194 0.0096126 -0.0108417 -0.0053502 0.0063592 -0.0166922 0.0060554 -0.0159631 -0.0046079 0.0119922 -0.0002842 0.0001807 -0.0000022 -0.0000212 -0.0000518 -0.0002316 0.0000289 0.0000515
-0.0001181 -0.0094721 -0.0089638 0.0080773 -0.0034547 -0.0138738 -0.0001959 0.0006869 0.0085683 -0.0226495 -0.0053125 0.0137648 -0.0000780 -0.0000258 -0.0000068 0.0000051 -0.0000557 -0.0001823 0.0000374 0.0001738
-0.0003828 -0.0131386 0.0053640 -0.0019867 0.0014891 -0.0092158 0.0035610 -0.0092546 0.0172851 -0.0456529 0.0005800 -0.0017722 0.0001292 -0.0000702 -0.0000100 0.0000118 -0.0000464 -0.0001724 0.0000434 0.0001523
-0.0003131 -0.0166250 0.0036735 -0.0010882 -0.0097408 0.0036280 0.0025967 -0.0068429 0.0251983 -0.0666289 0.0042195 -0.0113880 0.0000498 -0.0000829 -0.0000035 -0.0000351 -0.0000386 -0.0002954 0.0000480 -0.0000703
0.0004081 -0.0121583 0.0008951 -0.0087200 -0.0116505 -0.0100502 0.0018338 -0.0049852 0.0157488 -0.0417902 0.0014481 -0.0041138 -0.0000844 -0.0001501 -0.0000003 -0.0000868 -0.0000384 -0.0003909 0.0000623 -0.0001169
0.0072715 -0.0266823 -0.0015484 -0.0068253 -0.0035775 -0.0120626 0.0051079 -0.0134988 0.0158997 -0.0423780 -0.0014224 0.0034054 -0.0002453 0.0000007 -0.0000025 -0.0001000 -0.0000416 -0.0004130 0.0000717 -0.0000560
0.0056183 -0.0155560 -0.0030893 -0.0048225 -0.0114857 -0.0017813 0.0040584 -0.0104447 0.0122971 -0.0329671 0.0028420 -0.0079364 -0.0003365 0.0002154 -0.0000041 -0.0000599 -0.0000317 -0.0003439 0.0000988 0.0000078
0.0013382 -0.0015628 -0.0000778 -0.0061054 -0.0097547 -0.0044409 0.0024139 -0.0060780 0.0043013 -0.0119012 0.0113096 -0.0303171 -0.0002056 0.0001479 0.0000164 -0.0000280 -0.0000212 -0.0004162 0.0001276 -0.0000988
0.0016475 0.0074575 0.0039638 -0.0186279 -0.0057584 -0.0136323 -0.0017033 0.0046900 0.0012097 -0.0038498 -0.0123246 0.0321262 -0.0000177 0.0000486 0.0000436 -0.0000237 -0.0000146 -0.0005467 0.0001497 -0.0001936
-0.0018415 0.0124368 0.0003424 -0.0041447 -0.0095944 -0.0101309 0.0032925 -0.0085321 0.0005195 -0.0020927 -0.0133374 0.0347020 0.0003215 -0.0001147 0.0000546 -0.0000008 -0.0000076 -0.0005214 0.0001625 -0.0001037
-0.0058043 0.0018000 -0.0024262 0.0065085 -0.0089258 -0.0005352 0.0180434 -0.0474706 -0.0022917 0.0052902 -0.0092196 0.0236837 -0.0010321 0.0010145 0.0000534 0.0000397 -0.0000062 -0.0004347 0.0001657 0.0000324
-0.0068876 0.0050450 0.0000783 0.0134462 0.0040902 -0.0126571 0.0083610 -0.0218314 -0.0019271 0.0043121 -0.0090866 0.0232202 -0.0012952 0.0012388 0.0000572 0.0000872 -0.0000091 -0.0004052 0.0001800 0.0000135
-0.0048044 0.0063689 -0.0024420 0.0170858 -0.0027678 -0.0024877 0.0013564 -0.0034188 0.0063288 -0.0175810 -0.0144698 0.0373601 -0.0006283 0.0003390 0.0000691 0.0000869 -0.0000088 -0.0004873 0.0001822 -0.0001312
0.0068789 -0.0031092 -0.0068137 0.0061298 -0.0223172 0.0076801 0.0017987 -0.0047286 0.0157708 -0.0426394 -0.0145623 0.0375114 0.0036008 -0.0009910 0.0000729 0.0000744 -0.0000008 -0.0004991 0.0001992 -0.0001405
0.0057133 -0.0040630 -0.0113298 0.0131209 -0.0124731 -0.0006275 -0.0031423 0.0083521 0.0246835 -0.0662230 0.0036630 -0.0107228 0.0034576 -0.0002652 0.0000706 0.0000971 0.0000088 -0.0004095 0.0002160 -0.0000311
-0.0005510 -0.0054256 -0.0079538 0.0118279 -0.0091431 0.0043268 -0.0021979 0.0059081 0.0120628 -0.0328671 -0.0050909 0.0123754 0.0015446 -0.0007331 0.0000646 0.0001458 0.0000123 -0.0002720 0.0002061 0.0001438
0.0011289 -0.0109504 0.0059230 0.0015639 0.0014046 -0.0074478 0.0048905 -0.0127511 0.0012163 -0.0041570 -0.0058185 0.0143700 0.0027389 -0.0005182 0.0000671 0.0001817 0.0000069 -0.0002574 0.0001980 0.0001109
-0.0011283 -0.0122496 0.0059040 -0.0013237 0.0040043 -0.0133420 -0.0020211 0.0054846 0.0032333 -0.0094725 -0.0154897 0.0399941 0.0001514 0.0014677 0.0000751 0.0001871 0.0000014 -0.0003229 0.0001898 -0.0000068
0.0007815 -0.0102665 0.0027192 -0.0097205 0.0048905 -0.0259418 0.0030133 -0.0079066 0.0119001 -0.0323847 -0.0184781 0.0479267 -0.0005478 0.0004034 0.0000784 0.0002037 0.0000040 -0.0002855 0.0001926 0.0000281
0.0100289 -0.0267633 0.0005197 -0.0084735 0.0128698 -0.0444595 0.0120229 -0.0316835 0.0077966 -0.0215130 -0.0069722 0.0176015 -0.0006807 0.0005469 0.0000750 0.0002384 0.0000087 -0.0001964 0.0002012 0.0001100
0.0080178 -0.0176199 -0.0022308 -0.0055227 -0.0077538 0.0015893 0.0126816 -0.0333555 0.0063767 -0.0177067 0.0076192 -0.0208969 -0.0005400 0.0006637 0.0000665 0.0002898 0.0000084 -0.0000754 0.0002015 0.0002104
0.0030898 -0.0047439 0.0002955 -0.0057489 -0.0101548 0.0085820 0.0031478 -0.0081783 0.0086171 -0.0236099 0.0094123 -0.0254991 -0.0004261 0.0005511 0.0000692 0.0002926 0.0000085 -0.0001130 0.0001837 0.0000889
0.0031978 0.0027510 0.0087822 -0.0246363 -0.0008825 -0.0187200 -0.0016492 0.0043979 0.0018028 -0.0056287 0.0143667 -0.0384793 -0.0002842 0.0004463 0.0000730 0.0002768 0.0000199 -0.0001756 0.0001686 -0.0000393
-0.0011964 0.0096885 0.0052532 -0.0113732 -0.0048134 -0.0113190 0.0095894 -0.0253378 -0.0013616 0.0027137 0.0119417 -0.0322029 0.0000606 0.0002986 0.0000656 0.0003004 0.0000350 -0.0000906 0.0001705 0.0000100
-0.0048096 0.0024921 0.0002339 0.0017407 0.0004066 -0.0130934 0.0107624 -0.0284124 -0.0052100 0.0128813 0.0108604 -0.0295902 0.0002497 0.0002171 0.0000569 0.0003359 0.0000370 0.0000158 0.0001650 0.0001358
-0.0048023 0.0054344 0.0015510 0.0090071 0.0015315 -0.0036998 0.0111285 -0.0293254 -0.0077278 0.0195822 0.0110495 -0.0301851 0.0000723 0.0004251 0.0000550 0.0003882 0.0000305 0.0000821 0.0001610 0.0001768
-0.0034622 0.0052780 -0.0021134 0.0146289 -0.0042158 0.0107685 0.0119014 -0.0314227 -0.0071141 0.0179834 0.0169790 -0.0458392 -0.0001366 0.0005006 0.0000617 0.0004003 0.0000286 0.0000124 0.0001526 0.0000248
0.0069785 -0.0060126 -0.0062730 0.0039335 -0.0049517 -0.0020538 0.0042385 -0.0113014 -0.0049806 0.0124114 0.0169207 -0.0455328 -0.0003760 0.0005713 0.0000674 0.0003929 0.0000416 -0.0000186 0.0001489 -0.0000428
0.0051550 -0.0051293 -0.0067027 0.0085741 -0.0008141 -0.0119143 0.0004989 -0.0014035 0.0012333 -0.0038617 0.0099703 -0.0267652 -0.0003612 0.0005877 0.0000661 0.0004102 0.0000599 0.0000692 0.0001553 0.0000207
-0.0000644 -0.0064016 -0.0047910 0.0090394 -0.0080377 0.0033752 0.0035956 -0.0095021 0.0034838 -0.0096743 0.0102282 -0.0270070 -0.0000887 0.0005230 0.0000560 0.0004381 0.0000657 0.0001912 0.0001522 0.0001645
0.0024055 -0.0159282 0.0054167 -0.0007856 -0.0078231 0.0116541 0.0036085 -0.0094644 0.0031580 -0.0086906 0.0037458 -0.0095081 0.0001443 0.0005353 0.0000528 0.0004761 0.0000635 0.0002470 0.0001460 0.0001685
-0.0010047 -0.0162261 0.0036086 0.0010264 -0.0053736 0.0110110 -0.0009031 0.0024095 0.0068998 -0.0185085 0.0022310 -0.0051714 0.0001360 0.0005111 0.0000617 0.0004724 0.0000621 0.0001800 0.0001375 0.0000288
-0.0009469 -0.0097672 -0.0001812 -0.0036285 0.0015433 -0.0054159 -0.0005660 0.0014593 0.0019837 -0.0053334 0.0036376 -0.0086295 -0.0000491 0.0006369 0.0000782 0.0005021 0.0000733 0.0001800 0.0001726 0.0001400
0.0071142 -0.0243390 0.0014785 -0.0150632 0.0012731 -0.0113463 -0.0024728 0.0068244 0.0017419 -0.0041296 0.0074865 -0.0185588 -0.0002646 0.0009226 0.0000914 0.0005945 0.0000931 0.0003032 0.0002263 0.0003717
0.0088390 -0.0237469 -0.0019546 -0.0154455 -0.0015426 -0.0126005 -0.0008848 0.0030042 0.0068775 -0.0172654 0.0123446 -0.0312696 -0.0002875 0.0010145 0.0000840 0.0006526 0.0001015 0.0004612 0.0002096 0.0005214
0.0028997 -0.0072434 -0.0013007 -0.0070025 0.0002217 -0.0092201 0.0018360 -0.0040880 0.0040470 -0.0097439 0.0141955 -0.0361402 -0.0002503 0.0010389 0.0000788 0.0006666 0.0000987 0.0005103 0.0001641 0.0004403
0.0038816 -0.0036772 0.0070955 -0.0230880 -0.0035250 -0.0061430 0.0056430 -0.0143281 -0.0037080 0.0106091 0.0252493 -0.0653788 -0.0002496 0.0010157 0.0000770 0.0006121 0.0000969 0.0004315 0.0001280 0.0001897
0.0018871 0.0000927 0.0081044 -0.0188138 -0.0026263 -0.0004239 0.0125587 -0.0328882 -0.0055241 0.0152335 0.0230908 -0.0597518 0.0001004 0.0007263 0.0000660 0.0005448 0.0000994 0.0004102 0.0001033 0.0001193
-0.0015178 0.0002079 0.0038385 -0.0034921 -0.0039262 0.0060673 0.0063211 -0.0164596 0.0045903 -0.0115242 0.0171608 -0.0441970 0.0002269 0.0005744 0.0000502 0.0005245 0.0000965 0.0004632 0.0000991 0.0002087
-0.0006617 0.0035745 0.0031690 0.0088941 -0.0035113 0.0012417 0.0082791 -0.0215794 0.0076652 -0.0196409 0.0075885 -0.0190456 0.0001159 0.0007095 0.0000298 0.0005319 0.0000851 0.0005596 0.0000829 0.0003868
-0.0000350 0.0049558 -0.0006527 0.0154248 -0.0011847 -0.0064149 0.0179777 -0.0471571 0.0009009 -0.0017719 0.0046853 -0.0114246 -0.0000083 0.0008651 0.0000247 0.0005358 0.0000739 0.0005593 0.0000585 0.0003608
0.0086318 -0.0047395 -0.0030920 0.0056923 0.0016972 -0.0262312 -0.0004724 0.0014741 0.0047340 -0.0119831 0.0078447 -0.0198111 -0.0002652 0.0008760 0.0000285 0.0005033 0.0000663 0.0004676 0.0000509 0.0002031
0.0070442 -0.0029932 -0.0028360 0.0092574 0.0016628 -0.0103644 -0.0015755 0.0042527 -0.0015276 0.0044683 0.0086360 -0.0219769 -0.0004508 0.0009504 0.0000218 0.0004779 0.0000638 0.0004611 0.0000600 0.0002094
0.0004641 0.0000113 -0.0025569 0.0123790 -0.0029471 -0.0030381 0.0066016 -0.0173417 -0.0043365 0.0118511 0.0052486 -0.0130935 -0.0002584 0.0008581 0.0000104 0.0004800 0.0000633 0.0005110 0.0000676 0.0002923
0.0054610 -0.0136733 0.0079708 -0.0006284 0.0067381 -0.0205705 0.0043550 -0.0113550 -0.0002073 0.0009392 0.0040265 -0.0099248 0.0000879 0.0006278 -0.0000005 0.0004975 0.0000575 0.0005779 0.0000716 0.0003350
0.0035634 -0.0162808 0.0071924 -0.0023763 0.0070565 -0.0165747 0.0026002 -0.0067671 0.0024799 -0.0061984 0.0041357 -0.0102366 0.0000922 0.0005863 -0.0000022 0.0004579 0.0000512 0.0004975 0.0000530 0.0002033
0.0008205 -0.0065044 0.0006879 0.0002721 -0.0113342 0.0001518 0.0051975 -0.0137823 0.0081757 -0.0213277 0.0025922 -0.0061891 0.0000061 0.0005537 -0.0000017 0.0003932 0.0000523 0.0003908 0.0000307 0.0001131
0.0067504 -0.0088718 0.0047512 -0.0115092 -0.0137178 -0.0010413 0.0017064 -0.0045886 0.0033940 -0.0087224 0.0056817 -0.0144084 -0.0000602 0.0005341 -0.0000090 0.0003750 0.0000565 0.0004165 0.0000396 0.0001664
0.0103460 -0.0143498 0.0031759 -0.0174274 -0.0077336 -0.0163187 0.0009888 -0.0026262 0.0003618 -0.0006840 0.0096518 -0.0249339 -0.0001891 0.0006486 -0.0000210 0.0003752 0.0000559 0.0004874 0.0000342 0.0002907
0.0073535 -0.0122437 0.0005003 -0.0069469 -0.0059931 -0.0244338 0.0112931 -0.0297868 -0.0045427 0.0123082 0.0063202 -0.0160936 -0.0004242 0.0008130 -0.0000184 0.0003454 0.0000544 0.0004123 0.0000387 0.0001640
0.0068251 -0.0095614 0.0075298 -0.0124210 -0.0062224 -0.0180587 0.0148401 -0.0391992 -0.0035610 0.0096926 0.0103136 -0.0265941 -0.0004399 0.0006848 -0.0000092 0.0002799 0.0000570 0.0002555 0.0000661 -0.0000778
0.0056617 -0.0071155 0.0091097 -0.0117166 -0.0080854 0.0029338 0.0128231 -0.0339008 0.0035104 -0.0089966 0.0205892 -0.0537356 -0.0000385 0.0003047 -0.0000091 0.0002424 0.0000637 0.0002379 0.0000874 -0.0000784
0.0016275 -0.0017378 0.0045212 -0.0030279 -0.0015785 -0.0001867 0.0004781 -0.0012096 0.0002917 -0.0004371 0.0149427 -0.0388135 0.0001555 0.0001681 -0.0000138 0.0002370 0.0000685 0.0002842 0.0000919 0.0000261
0.0037687 -0.0051417 0.0041909 0.0015360 0.0012393 -0.0068288 0.0016358 -0.0041302 -0.0015229 0.0044538 0.0045086 -0.0112143 0.0001360 0.0002071 -0.0000116 0.0002451 0.0000694 0.0002892 0.0000941 0.0000352
0.0033862 -0.0057770 0.0013597 0.0056978 -0.0060817 0.0043235 0.0082599 -0.0216506 0.0046914 -0.0119499 0.0064824 -0.0164210 0.0000642 0.0001774 -0.0000013 0.0001939 0.0000722 0.0001657 0.0000952 -0.0001336
0.0066540 -0.0075371 -0.0010154 0.0020726 -0.0094417 0.0108763 0.0027015 -0.0070961 -0.0012401 0.0036902 0.0140905 -0.0365636 -0.0001900 0.0001872 0.0000036 0.0001258 0.0000796 0.0000813 0.0001140 -0.0002167
0.0060687 -0.0073451 0.0012692 0.0008316 -0.0070495 0.0029124 -0.0009740 0.0026628 -0.0061915 0.0168198 0.0104879 -0.0270867 -0.0003971 0.0003306 0.0000028 0.0001087 0.0000855 0.0001121 0.0001374 -0.0001537
0.0009001 -0.0025117 0.0007527 0.0029845 -0.0168799 0.0042759 0.0009121 -0.0021961 0.0003288 -0.0003462 0.0095351 -0.0246137 -0.0002938 0.0003519 -0.0000043 0.0001184 0.0000872 0.0001937 0.0001331 0.0000029
0.0070238 -0.0176699 0.0063426 -0.0028951 -0.0003485 -0.0126478 0.0059197 -0.0153267 0.0089805 -0.0231600 0.0078441 -0.0201480 -0.0000582 0.0001228 -0.0000010 0.0001064 0.0000851 0.0001441 0.0001294 -0.0000677
0.0047697 -0.0176514 0.0057491 -0.0040934 0.0087954 -0.0294180 0.0037354 -0.0095845 0.0053105 -0.0134667 0.0081268 -0.0209146 -0.0000243 0.0000226 0.0000099 0.0000572 0.0000837 0.0000207 0.0001244 -0.0002354
-0.0002398 -0.0025664 0.0008047 -0.0021950 -0.0077741 -0.0016491 0.0007026 -0.0016373 0.0042110 -0.0105949 0.0102405 -0.0265607 -0.0000145 -0.0000048 0.0000112 0.0000328 0.0000922 0.0000282 0.0001347 -0.0002112
0.0021157 0.0077506 0.0050804 -0.0133739 0.0008128 -0.0119661 0.0016063 -0.0040670 0.0034037 -0.0085150 0.0115282 -0.0300024 0.0000431 -0.0001097 0.0000069 0.0000389 0.0001035 0.0001042 0.0001445 -0.0001203
0.0061017 0.0003143 0.0046244 -0.0194417 0.0068990 -0.0266569 0.0020175 -0.0052528 0.0055805 -0.0143697 0.0155843 -0.0407475 0.0000297 -0.0001014 -0.0000098 0.0000562 0.0001130 0.0002580 0.0001342 0.0000032
0.0067748 -0.0111817 0.0011312 -0.0070292 -0.0042039 -0.0094622 0.0030431 -0.0080783 0.0057362 -0.0148732 0.0172485 -0.0451339 -0.0003008 0.0001784 -0.0000144 0.0000340 0.0001184 0.0002443 0.0001185 -0.0001058
0.0037820 -0.0087856 0.0039622 -0.0019048 0.0055249 -0.0221919 0.0080026 -0.0212148 0.0051636 -0.0133764 0.0033201 -0.0083070 -0.0004199 0.0002251 -0.0000028 0.0000003 0.0001208 0.0001409 0.0001162 -0.0002408
0.0100707 -0.0247090 0.0074496 -0.0094407 0.0102598 -0.0255743 0.0086399 -0.0228353 0.0121123 -0.0316868 0.0010978 -0.0024372 -0.0000253 -0.0001020 -0.0000026 0.0000071 0.0001238 0.0001775 0.0001249 -0.0001811
0.0038756 -0.0058988 0.0056449 -0.0122806 0.0016911 -0.0096054 0.0053371 -0.0140816 0.0117427 -0.0306749 0.0072180 -0.0185976 0.0001792 -0.0001657 -0.0000101 0.0000323 0.0001295 0.0002650 0.0001104 -0.0000824
0.0027852 -0.0039384 0.0060681 -0.0126448 -0.0008577 -0.0129589 -0.0005497 0.0015699 0.0109436 -0.0285186 0.0051533 -0.0130837 0.0000975 -0.0000406 -0.0000089 0.0000455 0.0001360 0.0002747 0.0000908 -0.0001581
0.0047719 -0.0130962 0.0078523 -0.0178041 0.0006939 -0.0164779 0.0025786 -0.0067057 0.0029475 -0.0073752 0.0061118 -0.0155732 0.0001203 -0.0001267 0.0000003 0.0000211 0.0001458 0.0002116 0.0000809 -0.0003250
0.0048615 -0.0104532 0.0014515 -0.0043555 -0.0102169 0.0061497 0.0118852 -0.0313922 0.0012710 -0.0029550 0.0066605 -0.0170066 0.0000096 -0.0000798 0.0000006 0.0000084 0.0001616 0.0002464 0.0000808 -0.0003475
0.0032757 -0.0069991 0.0018615 -0.0011430 -0.0098714 0.0106678 0.0177103 -0.0467599 0.0043108 -0.0109608 0.0049954 -0.0125827 -0.0002280 0.0001423 -0.0000041 0.0000313 0.0001767 0.0003434 0.0000818 -0.0002678
-0.0004748 0.0000833 0.0022416 -0.0021486 0.0045129 -0.0088006 0.0265996 -0.0702120 0.0004899 -0.0008384 0.0149811 -0.0389575 -0.0002125 0.0002012 -0.0000061 0.0000735 0.0001837 0.0004132 0.0000835 -0.0002370
0.0041667 -0.0098143 0.0086099 -0.0108174 0.0043653 -0.0073247 0.0156417 -0.0413311 -0.0032998 0.0091329 0.0081858 -0.0209965 -0.0001307 0.0000610 -0.0000022 0.0000562 0.0001822 0.0003329 0.0000862 -0.0003975
0.0025779 -0.0087165 0.0068477 -0.0074679 0.0011077 -0.0083064 0.0077808 -0.0206536 -0.0019381 0.0054839 0.0015703 -0.0035253 -0.0000481 -0.0001117 0.0000006 0.0000154 0.0001854 0.0002466 0.0000762 -0.0004745
-0.0005794 0.0006582 -0.0002572 0.0014961 -0.0070654 -0.0023121 0.0011189 -0.0029831 0.0026252 -0.0065303 0.0041981 -0.0104945 0.0000898 -0.0001683 -0.0000006 0.0000275 0.0001877 0.0002685 0.0000835 -0.0003826
0.0023410 0.0095176 0.0056980 -0.0138766 0.0016276 -0.0087191 0.0048632 -0.0127642 -0.0006447 0.0021794 0.0027725 -0.0067601 0.0002125 -0.0001903 -0.0000041 0.0000592 0.0001839 0.0003377 0.0000835 -0.0002254
0.0041274 0.0047090 0.0014788 -0.0113280 0.0092639 -0.0261076 0.0087464 -0.0229787 -0.0043325 0.0119386 0.0022902 -0.0054715 0.0000467 -0.0000774 -0.0000037 0.0000653 0.0001780 0.0002980 0.0000673 -0.0002881
0.0046375 -0.0098493 -0.0007911 -0.0019695 0.0004380 -0.0035570 0.0023151 -0.0060777 -0.0026658 0.0074651 0.0028687 -0.0069853 -0.0003138 0.0001123 0.0000010 0.0000405 0.0001800 0.0001937 0.0000722 -0.0004555
0.0003901 -0.0031528 0.0045444 0.0015498 0.0044379 -0.0038468 0.0063388 -0.0167843 0.0023405 -0.0058119 0.0040754 -0.0101898 -0.0003099 0.0000649 0.0000011 0.0000397 0.0001888 0.0002102 0.0000857 -0.0004308
0.0041678 -0.0101394 0.0079595 -0.0047129 0.0000583 -0.0041961 0.0075179 -0.0198897 0.0024591 -0.0061643 0.0039925 -0.0099841 0.0001222 -0.0002834 -0.0000057 0.0000692 0.0001882 0.0002907 0.0001027 -0.0003279
0.0045022 -0.0002231 0.0068322 -0.0104749 -0.0014087 -0.0001008 0.0014198 -0.0037474 0.0004833 -0.0009824 0.0027579 -0.0067259 0.0002358 -0.0002545 -0.0000126 0.0001268 0.0001816 0.0003798 0.0001107 -0.0002412
0.0052333 -0.0020219 0.0054039 -0.0072702 0.0019375 -0.0092495 -0.0005018 0.0013172 -0.0013829 0.0039191 0.0061262 -0.0156055 0.0002020 -0.0001833 -0.0000139 0.0001297 0.0001745 0.0003257 0.0001009 -0.0003161
0.0058950 -0.0101182 0.0082156 -0.0139081 -0.0007121 -0.0131204 0.0058264 -0.0154789 -0.0029497 0.0079860 0.0049242 -0.0123699 0.0002731 -0.0002837 -0.0000115 0.0001179 0.0001696 0.0002630 0.0000924 -0.0003484
0.0042622 -0.0047411 0.0033906 -0.0015551 0.0001806 -0.0120325 0.0076866 -0.0203881 -0.0074053 0.0197649 0.0070929 -0.0180468 -0.0000222 -0.0000280 -0.0000110 0.0001562 0.0001695 0.0003181 0.0000924 -0.0002440
0.0030646 -0.0026079 0.0033334 0.0004746 -0.0013277 -0.0132304 0.0057876 -0.0152465 -0.0061677 0.0166007 0.0107421 -0.0276647 -0.0003014 0.0002684 -0.0000185 0.0002053 0.0001664 0.0004093 0.0000784 -0.0000969
0.0001422 0.0012839 0.0030420 -0.0016988 -0.0070161 -0.0057532 0.0030218 -0.0078434 -0.0013896 0.0040342 0.0041261 -0.0101253 -0.0003205 0.0003587 -0.0000199 0.0002430 0.0001577 0.0004087 0.0000723 -0.0001392
0.0051578 -0.0128113 0.0064317 -0.0045199 0.0018158 -0.0123567 0.0001304 -0.0002236 0.0012135 -0.0028424 0.0040352 -0.0098359 -0.0002489 0.0002565 -0.0000151 0.0002566 0.0001495 0.0003440 0.0000858 -0.0002432
0.0017801 -0.0077446 0.0067856 -0.0061664 0.0130471 -0.0363210 -0.0001177 0.0004268 0.0042565 -0.0108664 0.0071576 -0.0180644 -0.0000642 0.0001524 -0.0000162 0.0002834 0.0001445 0.0003601 0.0000929 -0.0001569
-0.0004749 0.0024117 0.0009322 -0.0000663 0.0036289 -0.0157878 -0.0051263 0.0137431 0.0027973 -0.0069678 0.0093536 -0.0238410 0.0001179 0.0001699 -0.0000231 0.0003290 0.0001394 0.0004322 0.0000960 -0.0000547
0.0021494 0.0121835 0.0043259 -0.0109808 -0.0042521 0.0010153 -0.0034565 0.0094322 0.0048976 -0.0124578 0.0100966 -0.0257598 0.0002035 0.0001898 -0.0000262 0.0003861 0.0001357 0.0004908 0.0000754 -0.0000303
0.0026093 0.0111377 0.0017125 -0.0114917 -0.0118519 0.0076439 -0.0001644 0.0007398 0.0005061 -0.0008293 0.0132773 -0.0341282 0.0002016 0.0001495 -0.0000209 0.0003974 0.0001310 0.0004343 0.0000420 -0.0001243
0.0019991 -0.0020236 -0.0018270 0.0021228 -0.0171024 0.0107862 0.0009592 -0.0022389 -0.0018107 0.0053184 0.0066820 -0.0166842 -0.0001300 0.0004007 -0.0000174 0.0003899 0.0001292 0.0003911 0.0000479 -0.0001734
-0.0008947 0.0010152 0.0030485 0.0058941 -0.0001538 -0.0044196 0.0067490 -0.0174539 0.0001150 0.0002915 0.0042806 -0.0103197 -0.0002902 0.0005333 -0.0000166 0.0004216 0.0001298 0.0004457 0.0000703 -0.0000993
0.0060410 -0.0123871 0.0073084 -0.0023572 0.0104439 -0.0198385 0.0050169 -0.0127203 0.0073339 -0.0187032 0.0119939 -0.0306878 0.0000497 0.0003024 -0.0000214 0.0004752 0.0001217 0.0005339 0.0000704 0.0000544
0.0053984 -0.0006404 0.0057607 -0.0071109 -0.0052332 -0.0004193 -0.0004083 0.0017879 0.0101986 -0.0261831 0.0084751 -0.0213453 0.0002220 0.0002762 -0.0000195 0.0005166 0.0001047 0.0004848 0.0000728 0.0000642
0.0044816 0.0022053 0.0067910 -0.0078580 -0.0054641 -0.0018424 0.0031960 -0.0077323 0.0083905 -0.0214001 0.0044555 -0.0107154 0.0001159 0.0003450 -0.0000077 0.0005262 0.0000830 0.0003240 0.0000779 -0.0000174
0.0063510 -0.0087744 0.0102269 -0.0149235 0.0169530 -0.0434162 0.0065209 -0.0165778 0.0165841 -0.0430632 0.0098365 -0.0249585 0.0001198 0.0003006 0.0000046 0.0005493 0.0000692 0.0002674 0.0000973 0.0000438
0.0066137 -0.0056371 0.0034808 0.0007592 0.0082415 -0.0195888 -0.0037783 0.0106057 0.0113808 -0.0293191 0.0149372 -0.0384531 0.0000566 0.0003611 0.0000109 0.0005882 0.0000658 0.0003041 0.0001165 0.0001571
0.0040871 0.0002268 0.0022793 0.0046831 0.0066901 -0.0225070 -0.0033925 0.0095720 0.0057978 -0.0145386 0.0033752 -0.0079067 -0.0001971 0.0005751 0.0000053 0.0006366 0.0000603 0.0003898 0.0001057 0.0002957
-0.0005507 0.0067733 0.0020724 0.0027603 0.0176816 -0.0512094 0.0077126 -0.0198894 -0.0032035 0.0091980 0.0015775 -0.0030834 -0.0002358 0.0006680 0.0000035 0.0006579 0.0000718 0.0004247 0.0000796 0.0001674
0.0046038 -0.0070681 0.0070869 -0.0017449 0.0083299 -0.0209666 0.0004891 -0.0013309 -0.0001454 0.0008439 0.0060738 -0.0148888 0.0000002 0.0004492 0.0000006 0.0006271 0.0000941 0.0004033 0.0000637 -0.0000600
0.0002882 -0.0005789 0.0068171 -0.0009234 0.0008106 -0.0151522 -0.0034042 0.0084904 0.0199441 -0.0524339 0.0080147 -0.0199759 0.0002027 0.0002764 0.0000051 0.0006360 0.0000803 0.0003440 0.0001013 0.0000830
-0.0014280 0.0082176 0.0011700 0.0044847 -0.0104190 0.0040388 0.0050768 -0.0137201 0.0068667 -0.0177956 0.0066885 -0.0165779 0.0001950 0.0002544 0.0000232 0.0006969 0.0000204 0.0002315 0.0001377 0.0003952
0.0026431 0.0143476 0.0038061 -0.0035849 -0.0046229 0.0052614 -0.0015320 0.0039218 0.0081007 -0.0210485 0.0044212 -0.0106955 0.0001430 0.0001943 0.0000164 0.0007266 -0.0000123 0.0002587 0.0001300 0.0006006
0.0044021 0.0107255 0.0025148 -0.0076341 0.0021650 -0.0210423 -0.0041787 0.0107674 0.0029390 -0.0075695 0.0125958 -0.0321555 0.0000933 0.0003357 0.0000074 0.0007261 0.0000003 0.0002947 0.0001061 0.0005160
0.0049143 -0.0028548 0.0006985 0.0016386 0.0030263 -0.0311930 0.0007453 -0.0023763 -0.0032130 0.0085758 0.0147895 -0.0378808 -0.0001919 0.0005234 0.0000109 0.0007206 0.0000007 0.0002293 0.0000813 0.0003446
0.0038039 -0.0035419 0.0036240 0.0072692 0.0067295 -0.0261863 0.0021863 -0.0062719 0.0016736 -0.0044708 0.0075447 -0.0187144 -0.0003049 0.0005502 0.0000186 0.0007289 0.0000226 0.0002787 0.0000693 0.0002989
0.0094792 -0.0165506 0.0078933 -0.0034741 0.0131404 -0.0355176 -0.0013458 0.0033023 0.0043659 -0.0116117 0.0079237 -0.0196507 0.0000947 0.0004061 0.0000253 0.0007492 0.0000384 0.0003606 0.0000719 0.0003841
0.0044398 0.0012521 0.0067882 -0.0089887 0.0091240 -0.0269907 -0.0009616 0.0025739 0.0065548 -0.0172928 0.0060168 -0.0145931 0.0003195 0.0003165 0.0000167 0.0007548 0.0000288 0.0003808 0.0000586 0.0004030
0.0039740 0.0031889 0.0052643 -0.0005421 -0.0056491 0.0037896 0.0026381 -0.0071422 0.0068177 -0.0180759 0.0045715 -0.0106944 0.0002612 0.0003940 0.0000112 0.0007097 0.0000558 0.0003938 0.0000154 0.0001532
0.0057508 -0.0053469 0.0053196 0.0005521 -0.0119198 0.0095527 0.0057724 -0.0157127 0.0077614 -0.0207483 0.0073498 -0.0180126 0.0001239 0.0003640 0.0000137 0.0006531 0.0000443 0.0002851 0.0000220 0.0001791
0.0064318 -0.0019514 0.0010779 0.0060889 -0.0009744 -0.0203297 0.0131442 -0.0353043 0.0008952 -0.0027610 0.0110926 -0.0279710 -0.0001463 0.0004375 0.0000195 0.0006625 0.0000087 0.0002069 0.0000347 0.0003869
0.0040766 0.0031552 0.0009051 0.0077704 0.0040861 -0.0178724 -0.0033658 0.0082712 -0.0030405 0.0075372 0.0046141 -0.0109007 -0.0003716 0.0006818 0.0000114 0.0006722 0.0000190 0.0003259 0.0000231 0.0004215
-0.0017356 0.0101939 0.0006790 0.0088729 -0.0059511 0.0090298 -0.0079924 0.0204479 0.0002935 -0.0013209 0.0018853 -0.0036815 -0.0003373 0.0007257 0.0000067 0.0006343 0.0000309 0.0003198 0.0000275 0.0002649
0.0033182 -0.0038495 0.0054393 0.0061749 -0.0046702 0.0075836 -0.0062488 0.0156690 -0.0013521 0.0029034 0.0084642 -0.0210832 -0.0000357 0.0004017 0.0000164 0.0005838 0.0000434 0.0002312 0.0000166 0.0000563
0.0052065 -0.0141199 0.0044802 0.0068016 -0.0016739 0.0023194 -0.0035965 0.0086321 -0.0017268 0.0038526 0.0075807 -0.0187872 0.0001890 0.0001494 0.0000100 0.0005336 0.0000594 0.0002767 0.0000007 0.0000359
0.0011777 0.0014506 -0.0008188 0.0089207 -0.0103360 0.0072402 0.0031741 -0.0092559 -0.0027761 0.0065788 0.0029234 -0.0064635 0.0002198 0.0002351 -0.0000102 0.0005012 0.0000817 0.0004210 -0.0000394 0.0000814
0.0030989 0.0095570 0.0025119 -0.0016994 -0.0106805 -0.0046236 0.0058202 -0.0161594 0.0026002 -0.0076605 0.0046909 -0.0109370 0.0001969 0.0004075 -0.0000244 0.0005188 0.0001227 0.0006327 -0.0000873 0.0001210
0.0077331 -0.0004522 0.0010812 -0.0075377 -0.0210854 0.0123319 0.0058415 -0.0159052 0.0090597 -0.0245969 0.0114803 -0.0286486 0.0001089 0.0004609 -0.0000240 0.0005110 0.0001387 0.0006524 -0.0001120 0.0000380
0.0077251 -0.0083058 -0.0001525 0.0014986 -0.0097007 0.0142551 0.0067660 -0.0181564 -0.0007418 0.0014152 0.0166524 -0.0422594 -0.0001398 0.0005340 -0.0000208 0.0004807 0.0001302 0.0005664 -0.0001088 -0.0000303
0.0053552 -0.0004070 0.0060929 -0.0043566 -0.0019436 0.0052094 0.0052956 -0.0141161 -0.0062859 0.0161940 0.0184076 -0.0468989 -0.0001834 0.0006039 -0.0000154 0.0004963 0.0001213 0.0005816 -0.0000801 0.0000703
0.0048386 0.0010634 0.0079620 -0.0046212 -0.0047980 0.0017170 0.0063289 -0.0167379 -0.0029676 0.0075355 0.0144515 -0.0365341 0.0000656 0.0004608 -0.0000128 0.0005429 0.0000854 0.0005826 -0.0000666 0.0003083
0.0009161 0.0073815 0.0043634 0.0036173 -0.0025971 -0.0144250 0.0092177 -0.0244540 0.0107136 -0.0286819 0.0048271 -0.0112125 0.0001833 0.0002585 -0.0000058 0.0005634 0.0000448 0.0004664 -0.0000625 0.0003232
0.0014712 0.0083536 0.0037844 0.0122788 0.0053555 -0.0112916 0.0106586 -0.0284639 0.0006934 -0.0023269 0.0005936 -0.0000969 0.0001344 0.0001776 0.0000049 0.0005463 0.0000263 0.0003457 -0.0000580 0.0002070
0.0012421 0.0095593 0.0001341 0.0187520 0.0003229 0.0059989 0.0015711 -0.0045222 -0.0014674 0.0033717 0.0008239 -0.0007611 0.0000128 0.0002743 0.0000042 0.0005512 0.0000251 0.0003686 -0.0000515 0.0002598
0.0074403 0.0033180 -0.0028102 0.0133462 -0.0086990 0.0082062 0.0018428 -0.0051960 0.0114242 -0.0306558 0.0033694 -0.0075265 -0.0001462 0.0003572 -0.0000050 0.0005767 0.0000237 0.0004558 -0.0000536 0.0003835
0.0065058 0.0027056 -0.0031111 0.0164645 -0.0056428 -0.0070784 -0.0045002 0.0116207 0.0095842 -0.0257707 0.0047377 -0.0111515 -0.0003100 0.0005315 -0.0000123 0.0006165 0.0000152 0.0005154 -0.0000576 0.0004220
-0.0014048 0.0089419 -0.0038639 0.0194269 -0.0125433 0.0037827 -0.0066870 0.0173375 0.0052838 -0.0144509 0.0093441 -0.0233369 -0.0001833 0.0004441 -0.0000123 0.0006059 0.0000056 0.0004319 -0.0000555 0.0002967
0.0026950 -0.0024713 0.0057903 0.0100995 -0.0091535 0.0129186 0.0007077 -0.0023576 0.0086190 -0.0233462 0.0119932 -0.0303662 0.0000293 0.0002137 -0.0000172 0.0005766 0.0000052 0.0003623 -0.0000549 0.0002658
0.0021869 -0.0095655 0.0045406 0.0106517 -0.0002486 0.0025423 -0.0007492 0.0014130 0.0040716 -0.0113795 0.0074622 -0.0184077 -0.0000440 0.0002942 -0.0000292 0.0005900 0.0000089 0.0004198 -0.0000511 0.0003491
-0.0002586 0.0004080 -0.0019584 0.0106274 0.0057337 -0.0066932 -0.0013686 0.0029782 -0.0004534 0.0005314 0.0097429 -0.0244546 -0.0001004 0.0003307 -0.0000452 0.0006179 0.0000134 0.0005327 -0.0000546 0.0004867
0.0070177 -0.0072887 0.0005054 0.0007850 0.0068755 -0.0090960 -0.0013568 0.0029211 -0.0039277 0.0096927 0.0110334 -0.0278368 -0.0001334 0.0003736 -0.0000491 0.0006396 0.0000157 0.0005371 -0.0000750 0.0004557
0.0086291 -0.0066890 -0.0018194 -0.0009121 0.0091900 -0.0226712 0.0017806 -0.0054315 -0.0058979 0.0148647 0.0024055 -0.0050213 -0.0002622 0.0004357 -0.0000476 0.0006285 0.0000126 0.0004483 -0.0000714 0.0003244
0.0031399 0.0040713 -0.0015792 0.0048002 0.0076774 -0.0303142 -0.0044723 0.0111384 -0.0041727 0.0103513 0.0019054 -0.0037357 -0.0003997 0.0005099 -0.0000532 0.0006308 0.0000065 0.0004388 -0.0000308 0.0004015
0.0020815 0.0131848 0.0080112 -0.0148454 0.0087936 -0.0237300 -0.0030178 0.0076615 -0.0045781 0.0116415 0.0101322 -0.0255648 -0.0003397 0.0005267 -0.0000533 0.0006812 -0.0000166 0.0004483 0.0000149 0.0006184
-0.0005319 0.0174667 0.0071632 -0.0074719 0.0036912 -0.0052233 0.0128974 -0.0339931 -0.0026992 0.0068858 0.0071206 -0.0177444 -0.0000337 0.0003316 -0.0000582 0.0007469 -0.0000459 0.0004997 0.0000174 0.0008595
-0.0034229 0.0120982 0.0015041 0.0086832 -0.0068699 0.0076227 0.0121332 -0.0319400 0.0003936 -0.0013137 0.0075559 -0.0189093 0.0001578 0.0001377 -0.0000671 0.0007475 -0.0000485 0.0004977 -0.0000234 0.0007330
-0.0044411 0.0167900 0.0013154 0.0193253 -0.0050220 0.0142836 0.0028412 -0.0077946 -0.0046584 0.0118118 0.0076374 -0.0189973 -0.0000298 0.0003238 -0.0000793 0.0007085 -0.0000074 0.0005322 -0.0000648 0.0005110
-0.0051561 0.0193087 -0.0032298 0.0258048 -0.0095525 0.0203214 0.0011651 -0.0035171 -0.0063915 0.0164079 0.0094100 -0.0235384 -0.0001413 0.0005532 -0.0000902 0.0007135 0.0000380 0.0006762 -0.0000877 0.0005561
0.0037362 0.0106771 -0.0064711 0.0141678 -0.0189978 0.0181845 0.0076226 -0.0203809 -0.0014253 0.0034690 0.0086144 -0.0213697 -0.0002243 0.0006533 -0.0000958 0.0007511 0.0000486 0.0007773 -0.0000708 0.0006716
0.0035096 0.0083925 -0.0085810 0.0185331 -0.0099409 0.0074456 -0.0010135 0.0025810 0.0082304 -0.0219972 0.0039362 -0.0089580 -0.0003603 0.0007654 -0.0000958 0.0007752 0.0000427 0.0007621 -0.0000628 0.0006251
-0.0021236 0.0075058 -0.0082176 0.0207496 -0.0050848 -0.0008060 -0.0055826 0.0146174 0.0141522 -0.0376585 0.0051870 -0.0122355 -0.0002435 0.0007213 -0.0000876 0.0007677 0.0000421 0.0006807 -0.0000658 0.0004884
-0.0004726 0.0009636 0.0034454 0.0114224 0.0049207 -0.0148806 0.0037083 -0.0099194 0.0053934 -0.0144661 0.0056105 -0.0133755 -0.0000319 0.0006122 -0.0000891 0.0007775 0.0000473 0.0006913 -0.0000578 0.0005152
-0.0024422 -0.0014800 0.0029979 0.0105156 -0.0020298 -0.0059769 0.0057990 -0.0152886 0.0055333 -0.0147544 0.0050648 -0.0119420 -0.0000739 0.0006761 -0.0000972 0.0008079 0.0000525 0.0007687 -0.0000600 0.0006183
-0.0016682 0.0026310 -0.0005782 0.0051873 0.0027143 -0.0072398 0.0027290 -0.0071079 -0.0037984 0.0099651 0.0014816 -0.0024796 -0.0002737 0.0008385 -0.0000971 0.0008459 0.0000550 0.0008365 -0.0000550 0.0006475
0.0084268 -0.0175860 -0.0016799 0.0016650 0.0058797 -0.0145337 0.0014769 -0.0038020 -0.0085053 0.0224397 0.0057173 -0.0136877 -0.0004125 0.0009061 -0.0000858 0.0008442 0.0000464 0.0007485 -0.0000389 0.0005162
0.0060702 -0.0046453 -0.0037407 0.0021094 -0.0094352 -0.0046681 0.0035199 -0.0092381 -0.0038758 0.0102111 0.0113105 -0.0285067 -0.0004476 0.0008432 -0.0000725 0.0008280 0.0000249 0.0005916 -0.0000193 0.0005101
0.0010640 0.0102422 -0.0000242 0.0025805 -0.0104079 0.0094225 0.0064176 -0.0169069 -0.0030601 0.0080116 0.0070566 -0.0173318 -0.0004090 0.0006655 -0.0000657 0.0008567 0.0000069 0.0005375 0.0000101 0.0006417
0.0007986 0.0206422 0.0079223 -0.0146653 -0.0075494 0.0080894 -0.0005534 0.0015046 -0.0024284 0.0062865 0.0027062 -0.0059027 -0.0003179 0.0005872 -0.0000702 0.0008907 0.0000026 0.0006008 0.0000275 0.0007534
-0.0037718 0.0277381 0.0038328 0.0012221 -0.0045812 0.0048956 0.0037256 -0.0097853 0.0024804 -0.0066770 0.0006791 -0.0005516 -0.0000519 0.0004921 -0.0000672 0.0008958 0.0000023 0.0005894 0.0000198 0.0006819
-0.0060495 0.0156954 -0.0001754 0.0135750 -0.0000081 0.0023193 0.0091987 -0.0243195 0.0034969 -0.0093931 0.0019065 -0.0038245 0.0000614 0.0003091 -0.0000591 0.0008554 -0.0000041 0.0004782 0.0000206 0.0005643
-0.0076569 0.0207554 0.0005631 0.0239682 0.0048650 0.0032017 0.0090682 -0.0239919 -0.0006266 0.0015153 0.0033987 -0.0078401 -0.0001298 0.0003688 -0.0000563 0.0008396 -0.0000139 0.0004517 0.0000397 0.0006191
-0.0070462 0.0234455 -0.0030124 0.0289737 -0.0062349 0.0189206 0.0032190 -0.0085171 0.0029451 -0.0079117 0.0026912 -0.0060285 -0.0002639 0.0005265 -0.0000576 0.0008614 -0.0000101 0.0005392 0.0000414 0.0006897
0.0045280 0.0144707 -0.0053517 0.0145716 -0.0100156 0.0038293 0.0046605 -0.0123999 -0.0011711 0.0029181 0.0051003 -0.0124140 -0.0003171 0.0006350 -0.0000724 0.0008795 0.0000143 0.0007265 0.0000303 0.0007004
0.0039790 0.0138155 -0.0124795 0.0226285 -0.0035417 -0.0024939 0.0026292 -0.0072910 -0.0041995 0.0107705 0.0153929 -0.0394976 -0.0002757 0.0005935 -0.0000806 0.0008486 0.0000519 0.0007859 -0.0000146 0.0004805
0.0000020 0.0074109 -0.0079885 0.0193257 -0.0051047 0.0076625 -0.0033203 0.0080959 0.0022100 -0.0063355 0.0107755 -0.0271412 -0.0000604 0.0004298 -0.0000786 0.0008095 0.0000819 0.0007666 -0.0000550 0.0002807
-0.0009024 0.0042128 0.0054670 0.0124091 -0.0025255 0.0069010 0.0029033 -0.0084344 0.0034583 -0.0096518 0.0083810 -0.0207402 0.0001069 0.0003934 -0.0000811 0.0008109 0.0000970 0.0008177 -0.0000587 0.0002879
-0.0038943 0.0074936 0.0043088 0.0134424 -0.0064066 0.0136363 0.0033462 -0.0095487 0.0050178 -0.0137254 0.0084388 -0.0208633 -0.0000515 0.0005312 -0.0000882 0.0008223 0.0001061 0.0009043 -0.0000608 0.0003586
-0.0016476 0.0076103 0.0035468 0.0011244 0.0035141 -0.0086572 0.0003605 -0.0015989 -0.0022748 0.0055823 0.0053083 -0.0125282 -0.0002691 0.0006587 -0.0000888 0.0008177 0.0001098 0.0008974 -0.0000612 0.0002477
0.0075025 -0.0126492 0.0004258 0.0028463 0.0054830 -0.0203397 -0.0069536 0.0176579 -0.0032656 0.0081725 0.0005542 0.0001050 -0.0003314 0.0006764 -0.0000862 0.0007820 0.0001213 0.0008271 -0.0000819 0.0000516
0.0040003 0.0016596 -0.0026821 0.0079712 -0.0082962 -0.0009250 -0.0063855 0.0161132 0.0012357 -0.0037292 0.0027771 -0.0057132 -0.0002557 0.0006414 -0.0000891 0.0007651 0.0001354 0.0008556 -0.0000832 0.0000266
-0.0008168 0.0152811 0.0000712 0.0064513 -0.0093412 0.0003741 0.0105778 -0.0286146 -0.0026672 0.0066311 0.0130748 -0.0328680 -0.0001206 0.0005763 -0.0000956 0.0007717 0.0001438 0.0009374 -0.0000798 0.0000762
0.0005640 0.0247254 0.0063729 -0.0104775 -0.0034729 -0.0193678 0.0065207 -0.0177986 0.0042708 -0.0116430 0.0010163 -0.0009301 0.0000277 0.0004962 -0.0000999 0.0007942 0.0001517 0.0010114 -0.0000949 0.0000724
-0.0030510 0.0302601 0.0012045 0.0046473 0.0071336 -0.0342540 -0.0016810 0.0037937 0.0077986 -0.0209911 -0.0014747 0.0057637 0.0001884 0.0003789 -0.0000976 0.0007692 0.0001599 0.0009571 -0.0001228 -0.0000809
-0.0049184 0.0152526 -0.0002269 0.0126621 -0.0059196 -0.0036237 0.0041312 -0.0117505 0.0000522 -0.0006003 0.0041410 -0.0089821 0.0000849 0.0004241 -0.0000933 0.0007199 0.0001708 0.0008919 -0.0001329 -0.0001641
-0.0101825 0.0203567 0.0019294 0.0209098 -0.0087202 0.0091000 0.0077542 -0.0213793 0.0052252 -0.0142748 0.0017354 -0.0025787 -0.0000977 0.0005634 -0.0000944 0.0007159 0.0001786 0.0009174 -0.0001135 -0.0001021
-0.0094412 0.0218467 -0.0010121 0.0248882 -0.0060495 0.0088067 -0.0045239 0.0110692 0.0062096 -0.0168533 0.0008676 -0.0002703 -0.0001333 0.0006111 -0.0001066 0.0007304 0.0001810 0.0009913 -0.0001045 0.0000450
0.0046856 0.0123051 -0.0019954 0.0082155 -0.0081625 0.0105684 -0.0024486 0.0055964 0.0009081 -0.0028282 0.0058998 -0.0135137 -0.0001741 0.0006642 -0.0001058 0.0007288 0.0001768 0.0009571 -0.0000988 -0.0000036
0.0045902 0.0101541 -0.0094276 0.0158909 -0.0102759 0.0139118 0.0021263 -0.0065264 -0.0008174 0.0017279 0.0009043 -0.0002916 -0.0001695 0.0006275 -0.0000957 0.0007012 0.0001735 0.0008515 -0.0000878 -0.0001493
0.0021198 0.0016221 -0.0060047 0.0135246 -0.0090086 0.0077970 0.0027629 -0.0082011 -0.0013670 0.0032085 -0.0026667 0.0091131 0.0000371 0.0004270 -0.0000931 0.0006956 0.0001741 0.0008561 -0.0000810 -0.0000829
-0.0007761 0.0029636 0.0048838 0.0089550 0.0070988 -0.0082655 0.0021540 -0.0065267 -0.0009665 0.0021955 0.0052932 -0.0119509 0.0001401 0.0004366 -0.0000972 0.0007124 0.0001703 0.0009257 -0.0000947 0.0000564
-0.0041060 0.0070141 0.0047118 0.0074088 0.0089364 -0.0123493 0.0001212 -0.0011230 0.0012406 -0.0036204 0.0074087 -0.0175828 -0.0000912 0.0007074 -0.0001061 0.0007472 0.0001663 0.0010273 -0.0001119 0.0001757
-0.0007362 0.0060626 0.0050279 -0.0047259 -0.0116376 0.0074446 0.0028147 -0.0082804 0.0062498 -0.0168608 0.0012873 -0.0013948 -0.0002881 0.0007594 -0.0001002 0.0007519 0.0001606 0.0009829 -0.0001075 0.0001002
0.0071295 -0.0138951 0.0016615 -0.0004364 -0.0131281 0.0075598 0.0027517 -0.0081576 -0.0012938 0.0030907 0.0042092 -0.0090843 -0.0003109 0.0006744 -0.0000878 0.0007418 0.0001556 0.0009015 -0.0000896 0.0000203
0.0030464 -0.0004690 -0.0002862 0.0026412 -0.0120429 0.0092359 0.0026820 -0.0079087 -0.0060824 0.0157910 0.0101770 -0.0248543 -0.0002681 0.0006942 -0.0000874 0.0007574 0.0001531 0.0009372 -0.0001015 0.0001096
-0.0005373 0.0118993 0.0003273 0.0040746 -0.0157562 0.0150607 0.0054180 -0.0150479 0.0032851 -0.0089271 0.0116239 -0.0286985 -0.0001527 0.0006562 -0.0000968 0.0007761 0.0001485 0.0010103 -0.0001251 0.0002510
0.0006660 0.0230943 0.0057589 -0.0102012 0.0000663 -0.0118139 0.0022238 -0.0065667 -0.0017849 0.0044852 0.0019854 -0.0032085 -0.0000128 0.0005845 -0.0000972 0.0007762 0.0001422 0.0009828 -0.0001296 0.0001892
-0.0022597 0.0270869 0.0014591 0.0009426 0.0019989 -0.0031130 0.0018969 -0.0057860 -0.0091137 0.0238269 -0.0007386 0.0040018 0.0000753 0.0005329 -0.0000918 0.0007491 0.0001376 0.0008943 -0.0001377 0.0000566
-0.0036550 0.0109204 -0.0012064 0.0111375 -0.0062685 0.0143676 0.0033352 -0.0096231 -0.0046504 0.0120443 0.0086183 -0.0207626 -0.0000397 0.0005792 -0.0000933 0.0007398 0.0001368 0.0009029 -0.0001350 0.0001120
-0.0134993 0.0221357 0.0018575 0.0197781 -0.0016584 0.0125358 0.0031857 -0.0091631 -0.0014879 0.0037532 0.0080563 -0.0193105 -0.0001757 0.0006566 -0.0000970 0.0007568 0.0001337 0.0009622 -0.0001340 0.0002428
-0.0090203 0.0187105 0.0006073 0.0216138 0.0023914 0.0113849 0.0096523 -0.0261953 -0.0012415 0.0031703 0.0015598 -0.0021613 0.0000106 0.0005323 -0.0000948 0.0007900 0.0001254 0.0009922 -0.0001279 0.0002931
0.0055551 0.0102618 -0.0010001 0.0077023 0.0014128 -0.0025245 0.0109285 -0.0295755 0.0014143 -0.0038348 0.0029820 -0.0059361 -0.0000273 0.0005861 -0.0000879 0.0007774 0.0001162 0.0008889 -0.0001100 0.0001662
0.0047144 0.0092245 -0.0069625 0.0131522 0.0055609 -0.0142180 0.0050931 -0.0141827 0.0099118 -0.0262899 0.0052131 -0.0118729 -0.0000933 0.0005171 -0.0000848 0.0007423 0.0001124 0.0008020 -0.0001178 0.0001194
0.0052826 -0.0059647 -0.0008539 0.0032008 0.0055051 -0.0083448 0.0021285 -0.0062992 0.0068086 -0.0180413 -0.0021816 0.0076231 0.0000619 0.0003221 -0.0000852 0.0007402 0.0001134 0.0008224 -0.0001127 0.0002010
0.0017750 0.0001997 0.0051091 0.0072850 0.0030968 -0.0006972 0.0043168 -0.0120095 -0.0027886 0.0073660 -0.0027279 0.0090109 0.0000479 0.0004215 -0.0000930 0.0007578 0.0001098 0.0008923 -0.0001096 0.0003505
-0.0019938 0.0077167 0.0040773 0.0085785 -0.0036038 0.0065958 0.0025097 -0.0072109 0.0002009 -0.0005374 0.0051840 -0.0119319 -0.0001742 0.0005813 -0.0000900 0.0007541 0.0000955 0.0008240 -0.0001254 0.0003365
0.0001292 0.0058696 0.0058765 -0.0064104 -0.0059427 -0.0029438 -0.0010558 0.0020980 0.0040832 -0.0108618 0.0064817 -0.0154250 -0.0004102 0.0006333 -0.0000818 0.0007207 0.0000811 0.0006728 -0.0001038 0.0002312
0.0069376 -0.0121754 0.0032937 -0.0010959 -0.0056682 -0.0004006 0.0017144 -0.0053014 -0.0032285 0.0084189 0.0069571 -0.0167908 -0.0004099 0.0005196 -0.0000844 0.0007117 0.0000706 0.0006481 -0.0000854 0.0003134
0.0014275 0.0025650 0.0008589 0.0034447 -0.0042594 0.0076773 0.0067820 -0.0187153 -0.0067905 0.0177809 0.0033009 -0.0072138 -0.0002921 0.0004452 -0.0000950 0.0007179 0.0000604 0.0007004 -0.0001062 0.0004722
-0.0007374 0.0117049 -0.0004762 0.0059183 -0.0041403 0.0107283 -0.0008115 0.0012661 -0.0017995 0.0044884 0.0021898 -0.0043233 -0.0000806 0.0003617 -0.0001051 0.0007308 0.0000535 0.0007417 -0.0001193 0.0005033
0.0014587 0.0216982 0.0052341 -0.0084826 -0.0008485 -0.0094927 -0.0028290 0.0064487 0.0086761 -0.0233135 0.0016134 -0.0028237 0.0001345 0.0001900 -0.0001060 0.0007011 0.0000488 0.0006741 -0.0001230 0.0003964
-0.0013297 0.0258664 0.0009092 0.0012278 0.0004237 -0.0222725 0.0007426 -0.0030808 0.0035222 -0.0097561 0.0030298 -0.0065972 0.0001400 0.0000866 -0.0001068 0.0006574 0.0000466 0.0006287 -0.0001402 0.0003699
-0.0025924 0.0099790 -0.0012771 0.0100919 -0.0058856 -0.0015304 0.0043462 -0.0125944 0.0048450 -0.0132361 0.0052140 -0.0124105 -0.0001483 0.0002814 -0.0001146 0.0006473 0.0000496 0.0006879 -0.0001528 0.0004162
-0.0107898 0.0170441 0.0019403 0.0182347 0.0038761 -0.0088872 0.0062281 -0.0175322 0.0062712 -0.0169775 0.0008709 -0.0009670 -0.0003750 0.0004666 -0.0001271 0.0006502 0.0000529 0.0007968 -0.0001704 0.0005091
-0.0062175 0.0127710 0.0012093 0.0184126 0.0130849 -0.0229607 0.0043788 -0.0126622 -0.0006529 0.0013093 0.0053570 -0.0128240 -0.0001906 0.0002294 -0.0001267 0.0006231 0.0000489 0.0007552 -0.0001765 0.0004307
0.0054595 0.0083229 0.0007348 0.0033940 0.0005306 -0.0012578 0.0041207 -0.0120626 0.0003303 -0.0013482 0.0063801 -0.0155555 -0.0000617 0.0000998 -0.0001221 0.0005711 0.0000443 0.0006419 -0.0001655 0.0003086
0.0044224 0.0087266 -0.0034681 0.0082049 -0.0104371 0.0114336 0.0035754 -0.0105930 0.0062607 -0.0170236 0.0047452 -0.0112953 -0.0000954 0.0001369 -0.0001264 0.0005514 0.0000400 0.0006455 -0.0001563 0.0003678
0.0040806 -0.0025861 0.0015084 -0.0007824 -0.0021870 0.0029221 0.0042175 -0.0121685 0.0082162 -0.0221352 0.0063144 -0.0155112 -0.0000405 0.0000725 -0.0001343 0.0005559 0.0000317 0.0006945 -0.0001501 0.0004739
0.0000195 0.0016508 0.0055389 0.0029843 -0.0014949 0.0122173 0.0080074 -0.0220856 -0.0037011 0.0094009 0.0012019 -0.0020294 -0.0000507 0.0001532 -0.0001348 0.0005555 0.0000258 0.0006883 -0.0001772 0.0004582
-0.0022476 0.0056721 0.0057346 0.0018569 -0.0034659 0.0112499 0.0012378 -0.0042730 -0.0053303 0.0136524 -0.0007321 0.0030541 -0.0002848 0.0002356 -0.0001302 0.0005073 0.0000277 0.0005948 -0.0001999 0.0003089
-0.0013861 0.0072030 0.0059264 -0.0070813 0.0063506 -0.0186486 -0.0007511 0.0008246 0.0020729 -0.0059951 0.0036235 -0.0085196 -0.0004284 0.0002140 -0.0001328 0.0004539 0.0000327 0.0005587 -0.0001944 0.0002682
0.0040868 -0.0079470 0.0034504 -0.0003030 0.0054261 -0.0179677 0.0055789 -0.0159483 0.0030619 -0.0086259 0.0056297 -0.0138766 -0.0004967 0.0002774 -0.0001360 0.0004355 0.0000319 0.0006009 -0.0001799 0.0003280
0.0018431 0.0004065 0.0027089 0.0004897 -0.0071246 0.0050487 0.0091363 -0.0252754 0.0052684 -0.0144439 0.0039160 -0.0094212 -0.0004319 0.0002668 -0.0001443 0.0004408 0.0000276 0.0006788 -0.0001787 0.0004629
0.0001494 0.0090523 -0.0001321 0.0044164 -0.0186137 0.0166638 0.0074624 -0.0207666 0.0043210 -0.0119414 0.0035639 -0.0085241 -0.0000955 0.0000142 -0.0001438 0.0004246 0.0000202 0.0006260 -0.0001974 0.0004194
0.0021794 0.0191882 0.0049505 -0.0089458 -0.0189312 0.0099410 0.0041821 -0.0121483 0.0058616 -0.0160670 0.0014208 -0.0028989 0.0000487 -0.0001948 -0.0001342 0.0003803 0.0000137 0.0005063 -0.0002074 0.0003027
-0.0000283 0.0224750 0.0006141 0.0002162 0.0040179 -0.0141416 0.0088241 -0.0244692 0.0016294 -0.0049247 0.0081786 -0.0208390 -0.0000916 -0.0001366 -0.0001323 0.0003619 0.0000115 0.0004930 -0.0002068 0.0003644
-0.0012481 0.0071066 -0.0016898 0.0099961 0.0046840 -0.0090404 0.0086391 -0.0239615 -0.0043055 0.0107598 0.0040436 -0.0099861 -0.0003253 0.0000518 -0.0001359 0.0003677 0.0000076 0.0005469 -0.0001996 0.0004616
-0.0084357 0.0152384 0.0017771 0.0171031 0.0076669 -0.0096668 0.0045917 -0.0132281 -0.0031933 0.0078404 -0.0039140 0.0110073 -0.0003487 0.0000501 -0.0001375 0.0003846 0.0000050 0.0006009 -0.0001966 0.0004620
-0.0039136 0.0093187 0.0018936 0.0152322 0.0150333 -0.0254280 0.0062937 -0.0177802 0.0018624 -0.0055647 -0.0002192 0.0012372 -0.0001874 -0.0001694 -0.0001324 0.0003545 0.0000038 0.0005425 -0.0002039 0.0003439
0.0054567 0.0072106 0.0018957 0.0006131 0.0042964 -0.0252039 0.0017550 -0.0058821 0.0014243 -0.0044812 0.0042817 -0.0106769 -0.0002770 -0.0000782 -0.0001275 0.0003111 0.0000008 0.0004856 -0.0002089 0.0003114
0.0044476 0.0077609 -0.0039227 0.0076295 -0.0284513 0.0174431 -0.0015496 0.0028644 -0.0002690 -0.0000113 0.0005195 -0.0007697 -0.0003557 -0.0000339 -0.0001291 0.0003095 -0.0000023 0.0005195 -0.0002200 0.0003964
0.0056385 -0.0064536 0.0026741 -0.0040842 -0.0130952 0.0199199 -0.0007336 0.0007854 0.0039783 -0.0112075 -0.0012524 0.0038674 -0.0001677 -0.0002137 -0.0001363 0.0003261 -0.0000094 0.0006038 -0.0002263 0.0005354
0.0019965 -0.0018370 0.0062376 0.0017834 -0.0049676 0.0173835 -0.0007833 0.0009912 0.0014361 -0.0044590 0.0004316 -0.0005666 -0.0000704 -0.0001643 -0.0001329 0.0003350 -0.0000166 0.0005862 -0.0002384 0.0004943
-0.0023541 0.0061847 0.0050119 0.0032737 0.0034111 0.0008437 -0.0025283 0.0055366 -0.0023275 0.0054575 0.0055949 -0.0141981 -0.0002597 -0.0000534 -0.0001234 0.0003066 -0.0000180 0.0004779 -0.0002542 0.0003409
-0.0004980 0.0056051 0.0069418 -0.0098238 0.0139587 -0.0302260 -0.0010000 0.0013978 0.0003511 -0.0016607 0.0052932 -0.0134327 -0.0005169 0.0000324 -0.0001223 0.0002895 -0.0000168 0.0004627 -0.0002357 0.0003309
0.0048739 -0.0079744 0.0048836 -0.0031615 0.0012538 -0.0097103 0.0011936 -0.0043826 0.0075388 -0.0206416 0.0072026 -0.0185082 -0.0005637 0.0000627 -0.0001269 0.0003027 -0.0000185 0.0005164 -0.0002294 0.0004198
0.0004691 0.0048812 0.0018675 0.0028117 0.0001026 -0.0003305 0.0016911 -0.0056204 0.0059622 -0.0164511 0.0146789 -0.0383058 -0.0004541 0.0000708 -0.0001359 0.0003298 -0.0000248 0.0006095 -0.0002422 0.0005632
-0.0010669 0.0114427 -0.0011059 0.0060667 -0.0013301 0.0066453 0.0022574 -0.0070806 0.0071871 -0.0196896 0.0064247 -0.0164760 -0.0002601 -0.0000540 -0.0001346 0.0003336 -0.0000307 0.0005648 -0.0002423 0.0004742
0.0010605 0.0203389 0.0058805 -0.0109308 -0.0128939 0.0089678 -0.0029504 0.0066033 0.0140460 -0.0378512 0.0023819 -0.0057735 -0.0001527 -0.0002257 -0.0001265 0.0003100 -0.0000318 0.0004546 -0.0002555 0.0003214
-0.0003440 0.0215598 0.0036463 -0.0072015 -0.0190468 0.0098518 -0.0010751 0.0015821 0.0043471 -0.0122361 -0.0024340 0.0069380 -0.0001250 -0.0002149 -0.0001262 0.0003093 -0.0000312 0.0004645 -0.0002755 0.0003763
-0.0007656 0.0048717 -0.0005533 0.0053597 -0.0051869 0.0087252 0.0077792 -0.0217976 -0.0011060 0.0022070 -0.0001462 0.0008703 -0.0003441 0.0000285 -0.0001319 0.0003319 -0.0000344 0.0005256 -0.0002790 0.0004985
-0.0084166 0.0127591 0.0017063 0.0150171 -0.0010220 0.0134048 0.0093968 -0.0260007 0.0023801 -0.0069632 0.0053891 -0.0137917 -0.0005426 0.0002104 -0.0001413 0.0003694 -0.0000434 0.0006156 -0.0002661 0.0006170
-0.0045906 0.0072868 0.0026834 0.0126697 -0.0008468 0.0101844 0.0019566 -0.0063324 -0.0012786 0.0027001 0.0066590 -0.0171295 -0.0003444 0.0000044 -0.0001381 0.0003746 -0.0000529 0.0005532 -0.0002652 0.0005454
0.0050012 0.0055768 0.0029711 -0.0020757 0.0019694 -0.0111293 0.0001673 -0.0016525 -0.0006007 0.0008923 0.0070785 -0.0182252 -0.0002946 -0.0000632 -0.0001284 0.0003684 -0.0000598 0.0004466 -0.0002699 0.0004616
0.0050852 0.0041927 -0.0005607 0.0009443 -0.0079330 0.0001866 -0.0032349 0.0073860 0.0043762 -0.0122335 0.0028407 -0.0070580 -0.0003717 -0.0000003 -0.0001284 0.0003921 -0.0000662 0.0004553 -0.0002514 0.0005331
0.0066161 -0.0096400 0.0052439 -0.0110981 -0.0232418 0.0140966 -0.0050267 0.0121570 0.0016537 -0.0050165 0.0088983 -0.0231139 -0.0002650 -0.0001018 -0.0001329 0.0004298 -0.0000763 0.0005053 -0.0002554 0.0006665
0.0038246 -0.0054476 0.0047564 -0.0000308 -0.0064106 -0.0015744 -0.0015713 0.0030349 -0.0010794 0.0022215 -0.0001691 0.0008593 -0.0002457 -0.0000731 -0.0001277 0.0004680 -0.0000815 0.0005236 -0.0002809 0.0006599
0.0004114 0.0016631 0.0040481 0.0014932 0.0013253 -0.0081208 -0.0008632 0.0010983 -0.0014153 0.0030763 -0.0024995 0.0070645 -0.0004165 0.0000854 -0.0001199 0.0004673 -0.0000793 0.0004668 -0.0002885 0.0005274
-0.0014019 0.0061362 0.0059966 -0.0096864 -0.0132833 -0.0007421 0.0003500 -0.0022474 0.0078576 -0.0214957 0.0038002 -0.0095636 -0.0005566 0.0002059 -0.0001215 0.0004598 -0.0000701 0.0004702 -0.0002808 0.0004842
0.0045192 -0.0115528 0.0054264 -0.0058804 -0.0040247 -0.0078567 -0.0022279 0.0045997 0.0135035 -0.0363949 0.0071684 -0.0184275 -0.0005368 0.0002123 -0.0001257 0.0004742 -0.0000581 0.0005419 -0.0002791 0.0005411
0.0018576 -0.0046278 0.0034534 -0.0021899 -0.0023172 0.0043148 0.0007677 -0.0030913 0.0064305 -0.0176148 0.0034002 -0.0084670 -0.0003947 0.0002085 -0.0001346 0.0005057 -0.0000587 0.0006282 -0.0002718 0.0006552
-0.0012076 0.0076455 -0.0011629 0.0035461 -0.0096402 0.0086821 -0.0020291 0.0044195 0.0059936 -0.0164336 0.0008480 -0.0016984 -0.0002170 0.0001369 -0.0001304 0.0004995 -0.0000582 0.0005781 -0.0002917 0.0005348
0.0011524 0.0163555 0.0043311 -0.0116476 -0.0063919 -0.0021085 -0.0055232 0.0135561 -0.0000190 -0.0005866 0.0052240 -0.0132073 -0.0000836 -0.0000401 -0.0001178 0.0004680 -0.0000499 0.0004746 -0.0003028 0.0003632
0.0015086 0.0142998 0.0022515 -0.0106078 -0.0085736 0.0039000 -0.0016009 0.0030246 -0.0054011 0.0135424 0.0066395 -0.0169069 -0.0001107 -0.0000049 -0.0001154 0.0004688 -0.0000309 0.0005031 -0.0002911 0.0003804
0.0022642 -0.0031552 -0.0004323 0.0019606 -0.0115860 0.0135861 0.0073997 -0.0208432 -0.0065079 0.0163347 0.0080187 -0.0205153 -0.0004185 0.0003192 -0.0001155 0.0004925 -0.0000264 0.0005492 -0.0002774 0.0005208
-0.0024529 0.0014036 0.0028596 0.0085075 -0.0039443 0.0157504 0.0058153 -0.0167131 -0.0041776 0.0100086 0.0057604 -0.0145250 -0.0005905 0.0004890 -0.0001121 0.0005213 -0.0000397 0.0005182 -0.0002491 0.0005751
0.0033194 -0.0091031 0.0049723 0.0025051 -0.0005548 0.0070347 -0.0038498 0.0086777 0.0002058 -0.0017310 0.0075611 -0.0193028 -0.0002732 0.0001930 -0.0001000 0.0005140 -0.0000482 0.0003924 -0.0002404 0.0004889
0.0054311 -0.0010161 0.0057887 -0.0110420 -0.0042346 0.0114987 -0.0037567 0.0083886 0.0057359 -0.0163714 0.0103328 -0.0266760 -0.0001347 0.0000399 -0.0000867 0.0005055 -0.0000580 0.0003100 -0.0002396 0.0005046
0.0044326 0.0001719 0.0069850 -0.0142183 0.0010828 0.0056911 0.0010326 -0.0040905 0.0070987 -0.0198528 0.0107650 -0.0278920 -0.0001394 0.0000362 -0.0000758 0.0005350 -0.0000754 0.0003012 -0.0002212 0.0006214
0.0058734 -0.0117269 0.0099679 -0.0212054 0.0030493 -0.0030197 0.0036137 -0.0106226 0.0028268 -0.0084106 0.0096758 -0.0251197 -0.0001182 -0.0000187 -0.0000659 0.0005805 -0.0001001 0.0003181 -0.0001930 0.0007865
0.0049995 -0.0083439 0.0029342 -0.0018993 0.0005462 0.0013799 0.0022095 -0.0066794 0.0046266 -0.0130660 0.0047877 -0.0122247 -0.0003272 0.0001076 -0.0000564 0.0005940 -0.0001125 0.0002666 -0.0002035 0.0007641
0.0018843 -0.0012678 0.0019605 0.0011616 0.0075242 -0.0125402 0.0019837 -0.0061479 0.0028211 -0.0083061 0.0020158 -0.0048785 -0.0005405 0.0002745 -0.0000471 0.0005641 -0.0001094 0.0001776 -0.0002142 0.0006341
-0.0016808 0.0039981 0.0023009 -0.0026745 -0.0029558 0.0087594 0.0008369 -0.0032914 0.0020453 -0.0063026 0.0020924 -0.0050566 -0.0005454 0.0002998 -0.0000447 0.0005418 -0.0000986 0.0001929 -0.0002039 0.0006417
0.0045353 -0.0121427 0.0067656 -0.0069917 -0.0114428 0.0187675 -0.0071515 0.0177998 -0.0016377 0.0034639 0.0022442 -0.0054364 -0.0003624 0.0001375 -0.0000475 0.0005552 -0.0000934 0.0002656 -0.0001937 0.0007378
0.0016355 -0.0105777 0.0051730 -0.0043319 -0.0121171 0.0073203 -0.0057264 0.0140871 0.0003476 -0.0017275 0.0057659 -0.0147448 -0.0002168 0.0001178 -0.0000520 0.0005908 -0.0000983 0.0003613 -0.0001921 0.0008937
-0.0013297 0.0003944 -0.0017676 0.0025936 -0.0085707 0.0070746 0.0083887 -0.0230897 0.0024416 -0.0071863 0.0081235 -0.0210081 -0.0001450 0.0001274 -0.0000449 0.0005851 -0.0001130 0.0002742 -0.0002053 0.0008493
0.0019812 0.0074185 0.0037946 -0.0120468 -0.0048498 0.0021131 0.0125565 -0.0340547 -0.0021684 0.0050286 0.0031827 -0.0080232 -0.0001633 0.0000685 -0.0000351 0.0005490 -0.0001200 0.0001362 -0.0002020 0.0007094
0.0051891 0.0000433 0.0017864 -0.0146775 0.0004797 -0.0094795 -0.0002416 -0.0002515 -0.0021024 0.0048675 0.0034549 -0.0087730 -0.0002889 0.0001509 -0.0000379 0.0005327 -0.0001095 0.0001680 -0.0001995 0.0007250
0.0055821 -0.0120268 -0.0013091 -0.0032912 0.0032224 -0.0091183 -0.0000842 -0.0006403 0.0010404 -0.0034158 0.0072799 -0.0188826 -0.0005020 0.0003728 -0.0000451 0.0005417 -0.0001008 0.0002605 -0.0001998 0.0008014
0.0046351 -0.0099104 0.0036632 -0.0029528 0.0044779 -0.0128487 0.0113452 -0.0308329 0.0011461 -0.0036934 0.0087609 -0.0227607 -0.0004146 0.0003830 -0.0000486 0.0005650 -0.0000860 0.0003467 -0.0001914 0.0007735
0.0062792 -0.0132864 0.0064135 -0.0064804 0.0082945 -0.0191423 0.0015286 -0.0050251 0.0001139 -0.0009999 0.0064332 -0.0165432 0.0000479 0.0000455 -0.0000460 0.0005498 -0.0000686 0.0003121 -0.0001941 0.0006125
0.0020996 -0.0025628 0.0035709 -0.0044396 -0.0018578 -0.0038687 -0.0042121 0.0100089 0.0051748 -0.0143877 -0.0000109 0.0005298 0.0001492 -0.0000402 -0.0000430 0.0005371 -0.0000603 0.0002670 -0.0002004 0.0005681
0.0014948 0.0004936 0.0014486 0.0062820 -0.0036943 0.0074274 0.0025643 -0.0078377 0.0045349 -0.0126264 0.0000067 0.0004919 -0.0000091 0.0001706 -0.0000435 0.0005575 -0.0000578 0.0003087 -0.0001984 0.0006652
0.0004384 0.0014356 0.0000327 0.0081002 -0.0027444 0.0022082 0.0085946 -0.0236390 0.0033916 -0.0095225 0.0121862 -0.0317076 -0.0001986 0.0004059 -0.0000471 0.0005946 -0.0000579 0.0003962 -0.0001948 0.0008400
0.0050418 -0.0022666 -0.0010421 0.0024977 -0.0117709 0.0015876 -0.0031827 0.0076259 0.0025515 -0.0072292 0.0099568 -0.0257882 -0.0004111 0.0005418 -0.0000417 0.0006234 -0.0000649 0.0003895 -0.0002038 0.0008491
0.0044723 -0.0022276 -0.0025182 0.0085175 -0.0015940 0.0070209 -0.0067574 0.0170917 -0.0013625 0.0031127 -0.0002801 0.0012628 -0.0005091 0.0005370 -0.0000330 0.0006217 -0.0000799 0.0002825 -0.0001995 0.0007664
-0.0014450 0.0024928 -0.0036411 0.0121757 -0.0025643 0.0151684 -0.0020365 0.0045741 0.0008882 -0.0028628 -0.0020601 0.0059328 -0.0004374 0.0004646 -0.0000321 0.0006292 -0.0000832 0.0002723 -0.0001670 0.0008086
0.0026069 -0.0096146 0.0049376 0.0043001 -0.0021241 0.0128694 0.0035808 -0.0102119 0.0029456 -0.0082649 -0.0017429 0.0050942 -0.0002453 0.0003554 -0.0000319 0.0006594 -0.0000806 0.0003374 -0.0001536 0.0009212
0.0029756 -0.0191298 0.0043126 0.0033220 -0.0014290 0.0035750 -0.0020316 0.0047324 -0.0047014 0.0120118 -0.0031387 0.0087756 -0.0001332 0.0003727 -0.0000380 0.0006936 -0.0000844 0.0004356 -0.0001687 0.0010560
-0.0004295 -0.0045662 -0.0018146 0.0043208 -0.0058974 -0.0021884 -0.0004635 0.0006200 -0.0072502 0.0187713 -0.0005112 0.0018611 -0.0000775 0.0003498 -0.0000366 0.0006820 -0.0000866 0.0004038 -0.0001941 0.0009540
0.0050380 -0.0064940 0.0003067 -0.0053282 -0.0001307 -0.0122066 0.0056222 -0.0155519 -0.0058047 0.0149080 0.0057250 -0.0145794 -0.0001657 0.0003197 -0.0000269 0.0006551 -0.0000842 0.0003289 -0.0002194 0.0008253
0.0081974 -0.0103320 -0.0003520 -0.0117782 -0.0131800 0.0071308 0.0013664 -0.0043560 -0.0015790 0.0037220 -0.0014556 0.0044098 -0.0002513 0.0003503 -0.0000264 0.0006603 -0.0000793 0.0003713 -0.0002101 0.0008693
0.0038023 -0.0028782 -0.0004440 -0.0034955 -0.0048298 0.0073774 0.0009916 -0.0033384 0.0069572 -0.0188161 -0.0007942 0.0026671 -0.0003307 0.0004521 -0.0000315 0.0006866 -0.0000761 0.0004553 -0.0001905 0.0009617
0.0030120 0.0055735 0.0080489 -0.0194673 0.0008372 -0.0002947 0.0003958 -0.0016882 -0.0031949 0.0080366 0.0048894 -0.0123236 -0.0003687 0.0005489 -0.0000320 0.0007033 -0.0000760 0.0004762 -0.0001953 0.0009286
0.0009274 0.0088525 0.0066807 -0.0105774 -0.0067805 0.0160681 0.0009205 -0.0031823 -0.0074636 0.0192619 0.0042658 -0.0106511 -0.0000592 0.0002927 -0.0000302 0.0006599 -0.0000748 0.0003998 -0.0002163 0.0007660
-0.0013972 0.0041829 0.0012252 0.0042744 -0.0038807 0.0102414 0.0024715 -0.0074793 -0.0030003 0.0074003 0.0018550 -0.0042841 0.0001678 -0.0000025 -0.0000304 0.0006203 -0.0000701 0.0003788 -0.0002144 0.0007275
-0.0021576 0.0084503 0.0008907 0.0156493 0.0027108 0.0028119 0.0008874 -0.0033069 0.0017471 -0.0051311 0.0003214 -0.0002334 0.0000281 0.0000939 -0.0000304 0.0006286 -0.0000665 0.0004253 -0.0002053 0.0008163
-0.0034400 0.0121585 -0.0032029 0.0218927 -0.0031788 0.0144756 -0.0023583 0.0053406 -0.0010523 0.0023043 0.0070261 -0.0179676 -0.0001688 0.0003537 -0.0000352 0.0006584 -0.0000673 0.0005121 -0.0002173 0.0009875
0.0061598 0.0024147 -0.0057527 0.0111417 -0.0052825 0.0012713 -0.0042936 0.0105155 0.0003524 -0.0013705 0.0083905 -0.0215520 -0.0004429 0.0005447 -0.0000298 0.0006651 -0.0000725 0.0004797 -0.0002222 0.0009579
0.0048761 0.0030085 -0.0078435 0.0162233 -0.0004210 -0.0010477 -0.0053357 0.0132712 -0.0011914 0.0027127 0.0062654 -0.0159338 -0.0005083 0.0005221 -0.0000232 0.0006320 -0.0000753 0.0003850 -0.0002078 0.0008021
-0.0024338 0.0060604 -0.0069839 0.0162901 -0.0000349 0.0076408 -0.0071994 0.0181956 -0.0044125 0.0112230 0.0035991 -0.0089145 -0.0002216 0.0003074 -0.0000248 0.0006134 -0.0000718 0.0003982 -0.0001843 0.0008024
0.0014629 -0.0036152 0.0044997 0.0079707 0.0078076 -0.0031470 -0.0050158 0.0124757 0.0022688 -0.0064139 0.0018413 -0.0042835 -0.0000377 0.0001910 -0.0000289 0.0006242 -0.0000713 0.0004523 -0.0001914 0.0009074
-0.0003347 -0.0073991 0.0028398 0.0099474 -0.0036546 0.0166183 -0.0058275 0.0146995 0.0042833 -0.0116935 0.0091827 -0.0237126 -0.0000325 0.0002149 -0.0000351 0.0006530 -0.0000780 0.0005190 -0.0002084 0.0009951
-0.0002024 -0.0044581 -0.0008190 0.0040951 -0.0059785 0.0163238 -0.0080983 0.0207044 -0.0024484 0.0061012 0.0076794 -0.0197466 -0.0000701 0.0001696 -0.0000327 0.0006348 -0.0000848 0.0004578 -0.0002128 0.0009177
0.0096219 -0.0229835 -0.0007599 -0.0016719 0.0055324 -0.0111951 -0.0037022 0.0090614 -0.0004579 0.0008309 0.0011037 -0.0023709 -0.0002078 0.0002322 -0.0000268 0.0005972 -0.0000829 0.0003756 -0.0002230 0.0008543
0.0066730 -0.0101742 -0.0041067 0.0008130 0.0014971 -0.0262721 -0.0000715 -0.0004506 0.0080365 -0.0215684 0.0041640 -0.0104585 -0.0002988 0.0003337 -0.0000277 0.0005990 -0.0000814 0.0004078 -0.0002068 0.0009037
0.0011599 0.0043104 -0.0014320 0.0010632 0.0178339 -0.0650377 -0.0007873 0.0016033 0.0044566 -0.0120431 0.0100380 -0.0259813 -0.0002652 0.0003199 -0.0000322 0.0006176 -0.0000870 0.0004616 -0.0001882 0.0010304
0.0005400 0.0160917 0.0078996 -0.0210297 -0.0006012 -0.0104691 0.0017120 -0.0048178 -0.0035441 0.0091713 0.0078365 -0.0201345 -0.0000881 0.0002939 -0.0000240 0.0006291 -0.0000974 0.0004017 -0.0001825 0.0010137
-0.0039068 0.0229192 0.0023040 -0.0025404 -0.0038651 0.0037619 -0.0021919 0.0054966 -0.0039041 0.0101165 0.0042480 -0.0106487 0.0000983 0.0001184 -0.0000128 0.0005986 -0.0000979 0.0002822 -0.0001779 0.0008471
-0.0061954 0.0101641 -0.0021317 0.0109295 0.0094056 -0.0088820 -0.0034652 0.0087307 -0.0016424 0.0040933 0.0058844 -0.0150027 0.0000473 -0.0000195 -0.0000144 0.0005754 -0.0000872 0.0002845 -0.0001816 0.0008271
-0.0088750 0.0151961 -0.0002882 0.0187953 0.0058774 0.0094068 0.0060531 -0.0164169 -0.0017661 0.0044546 0.0031096 -0.0076701 -0.0000526 0.0000888 -0.0000145 0.0005966 -0.0000851 0.0003485 -0.0001745 0.0009329
-0.0077092 0.0169549 -0.0040977 0.0238052 -0.0066401 0.0234848 -0.0023675 0.0059125 -0.0039929 0.0103952 0.0018322 -0.0042988 -0.0000728 0.0001918 -0.0000165 0.0006400 -0.0000862 0.0004475 -0.0001622 0.0010690
0.0040846 0.0074039 -0.0067404 0.0090757 -0.0134821 0.0150103 -0.0076180 0.0197491 -0.0013829 0.0034622 0.0028618 -0.0070215 -0.0002419 0.0002637 -0.0000148 0.0006238 -0.0000902 0.0003819 -0.0001768 0.0009678
0.0039915 0.0048273 -0.0151966 0.0176585 -0.0083488 0.0011246 -0.0025313 0.0062229 0.0160608 -0.0427032 -0.0000210 0.0005815 -0.0003448 0.0002456 -0.0000090 0.0005762 -0.0000939 0.0002461 -0.0001806 0.0007962
0.0005032 -0.0019557 -0.0107570 0.0152279 -0.0075435 0.0024803 -0.0008378 0.0017308 0.0219015 -0.0581431 -0.0028165 0.0079518 -0.0000935 0.0000435 -0.0000119 0.0005722 -0.0000896 0.0002592 -0.0001654 0.0008212
-0.0024018 -0.0023550 0.0035620 0.0068027 0.0029678 0.0050547 0.0020545 -0.0058724 0.0029195 -0.0079550 0.0011659 -0.0026048 0.0001698 -0.0000333 -0.0000201 0.0005830 -0.0000881 0.0003241 -0.0001803 0.0009422
-0.0049172 0.0009359 0.0029804 0.0059991 0.0060594 -0.0026487 0.0036211 -0.0099529 -0.0003571 0.0007270 0.0008107 -0.0017099 -0.0000289 0.0002161 -0.0000279 0.0005991 -0.0000900 0.0003779 -0.0001948 0.0009744
-0.0020565 0.0017482 0.0023695 -0.0052458 0.0133610 -0.0258932 0.0036040 -0.0100085 0.0084330 -0.0225716 -0.0061283 0.0165951 -0.0002755 0.0002866 -0.0000283 0.0005662 -0.0000897 0.0003072 -0.0001816 0.0008430
0.0062660 -0.0202458 0.0002275 -0.0040569 0.0054721 -0.0099241 0.0144242 -0.0387329 -0.0001953 0.0001402 -0.0015980 0.0045972 -0.0002993 0.0001937 -0.0000284 0.0005308 -0.0000877 0.0002433 -0.0001825 0.0008140
0.0029350 -0.0067298 -0.0037272 0.0021989 -0.0036427 -0.0001938 0.0094019 -0.0254484 -0.0015769 0.0037863 0.0121082 -0.0316532 -0.0002719 0.0001994 -0.0000339 0.0005391 -0.0000829 0.0002909 -0.0001882 0.0008930
-0.0011295 0.0071923 -0.0040811 0.0053906 0.0030781 -0.0122022 0.0020920 -0.0060924 0.0027913 -0.0077583 0.0066273 -0.0172090 -0.0001745 0.0001947 -0.0000451 0.0005574 -0.0000777 0.0003906 -0.0001879 0.0009919
-0.0001500 0.0184500 0.0016504 -0.0097962 0.0076085 -0.0354074 0.0060051 -0.0164224 -0.0025387 0.0063212 0.0037358 -0.0095320 -0.0000586 0.0001855 -0.0000478 0.0005649 -0.0000731 0.0004146 -0.0002051 0.0009190
-0.0037123 0.0237497 0.0004603 -0.0043646 0.0013212 -0.0149010 0.0052345 -0.0145503 -0.0025426 0.0062677 0.0043058 -0.0109892 0.0000744 0.0000580 -0.0000435 0.0005375 -0.0000683 0.0003585 -0.0002343 0.0007721
-0.0059838 0.0094892 -0.0010890 0.0055247 -0.0024725 0.0051457 0.0078996 -0.0217721 -0.0017467 0.0041058 0.0040809 -0.0103464 -0.0001287 0.0002509 -0.0000377 0.0005355 -0.0000599 0.0003619 -0.0002466 0.0007592
-0.0138644 0.0165567 0.0002616 0.0171785 0.0032688 0.0110532 0.0111440 -0.0304301 -0.0027804 0.0068620 0.0036462 -0.0091173 -0.0003743 0.0004409 -0.0000344 0.0005714 -0.0000497 0.0004276 -0.0002437 0.0008262
-0.0088601 0.0112439 -0.0015822 0.0190132 0.0070411 0.0073662 -0.0019633 0.0041642 -0.0047048 0.0119917 0.0000620 0.0003694 -0.0002211 0.0002671 -0.0000433 0.0006081 -0.0000562 0.0005186 -0.0002476 0.0009840
0.0050760 0.0040639 -0.0027636 0.0043056 0.0030484 0.0029161 -0.0070907 0.0176760 -0.0054401 0.0138907 0.0032828 -0.0081636 -0.0001162 0.0002092 -0.0000484 0.0005809 -0.0000725 0.0004468 -0.0002650 0.0008854
0.0039192 0.0048809 -0.0068943 0.0072171 -0.0036604 0.0011054 -0.0061553 0.0151164 -0.0004521 0.0006049 0.0050247 -0.0128020 -0.0001756 0.0002126 -0.0000454 0.0005250 -0.0000754 0.0003288 -0.0002696 0.0007143
0.0042875 -0.0093927 -0.0012198 -0.0022348 -0.0019718 -0.0129126 -0.0002377 -0.0004785 0.0055354 -0.0152392 0.0021722 -0.0053107 -0.0000756 0.0000727 -0.0000434 0.0005043 -0.0000699 0.0003344 -0.0002542 0.0007487
0.0019728 -0.0087540 0.0039646 0.0016646 -0.0086855 0.0056615 0.0002075 -0.0015143 0.0104571 -0.0281979 0.0027714 -0.0069354 0.0000060 0.0000832 -0.0000452 0.0005108 -0.0000705 0.0003893 -0.0002599 0.0008852
-0.0022519 -0.0005228 0.0035702 0.0017484 -0.0079476 -0.0009971 -0.0054348 0.0136415 0.0127801 -0.0342219 0.0027495 -0.0068864 -0.0001735 0.0003354 -0.0000408 0.0005477 -0.0000798 0.0004081 -0.0002764 0.0009239
-0.0026579 0.0026715 0.0061843 -0.0127335 0.0078809 -0.0327801 -0.0043628 0.0108416 0.0038963 -0.0107459 0.0038232 -0.0096940 -0.0003532 0.0003947 -0.0000335 0.0005070 -0.0000777 0.0003192 -0.0002664 0.0007135
0.0037004 -0.0134092 0.0034169 -0.0060752 -0.0013905 -0.0100290 -0.0035846 0.0086514 -0.0008035 0.0016122 0.0000630 0.0002632 -0.0003744 0.0003228 -0.0000358 0.0004365 -0.0000590 0.0002775 -0.0002578 0.0005944
-0.0001829 -0.0012642 -0.0007433 0.0012482 -0.0032044 -0.0014900 -0.0000932 -0.0005175 0.0013772 -0.0041468 -0.0033087 0.0091415 -0.0002391 0.0002350 -0.0000414 0.0004294 -0.0000497 0.0003069 -0.0002519 0.0006798
-0.0025729 0.0084026 -0.0020923 0.0031650 -0.0010583 -0.0040617 -0.0033563 0.0081380 -0.0014970 0.0033983 0.0013064 -0.0030787 -0.0001629 0.0002201 -0.0000460 0.0004522 -0.0000424 0.0003909 -0.0002428 0.0007986
0.0003950 0.0174676 0.0050187 -0.0128536 -0.0060119 -0.0086181 -0.0028198 0.0066037 0.0002837 -0.0013783 0.0039977 -0.0101315 -0.0000556 0.0001268 -0.0000429 0.0004499 -0.0000270 0.0003831 -0.0002589 0.0006731
-0.0015721 0.0199725 0.0005791 -0.0058575 -0.0029135 -0.0067337 0.0061000 -0.0171875 0.0115015 -0.0311332 -0.0029881 0.0083550 0.0000048 -0.0000398 -0.0000366 0.0004005 -0.0000160 0.0002648 -0.0002766 0.0004872
-0.0023768 0.0041110 -0.0028971 0.0048010 0.0055707 -0.0134375 -0.0005530 0.0002758 0.0044464 -0.0125809 0.0001915 -0.0001036 -0.0002416 0.0000759 -0.0000344 0.0003562 -0.0000052 0.0002391 -0.0002758 0.0004660
-0.0078678 0.0083209 0.0016723 0.0108036 0.0014638 0.0045568 0.0031774 -0.0096098 0.0009069 -0.0032452 0.0101995 -0.0265901 -0.0004468 0.0001943 -0.0000346 0.0003472 0.0000220 0.0003368 -0.0002662 0.0004879
-0.0037490 0.0021660 0.0033196 0.0075026 0.0005125 0.0047936 0.0106002 -0.0290834 -0.0000524 -0.0006998 0.0079505 -0.0206680 -0.0002094 -0.0000184 -0.0000448 0.0003332 0.0000141 0.0003644 -0.0002423 0.0006524
0.0041092 0.0024503 0.0036285 -0.0069958 0.0060224 -0.0235312 0.0066445 -0.0184719 -0.0036299 0.0088730 0.0027379 -0.0069251 -0.0000460 -0.0001285 -0.0000285 0.0002995 -0.0000083 0.0002041 -0.0002168 0.0006186
0.0041702 0.0013802 0.0024236 -0.0082826 0.0027541 -0.0271629 -0.0006526 0.0010091 -0.0076997 0.0198425 0.0038116 -0.0098494 -0.0000328 -0.0002610 0.0000006 0.0002693 -0.0000299 0.0000099 -0.0001880 0.0005132
0.0049034 -0.0099581 0.0080419 -0.0201934 -0.0014450 -0.0077525 -0.0032929 0.0081964 -0.0030236 0.0075701 0.0030733 -0.0079977 0.0000471 -0.0004769 0.0000080 0.0002464 -0.0000434 -0.0000382 -0.0001737 0.0005737
0.0015337 -0.0041099 0.0045717 -0.0046904 0.0046993 -0.0073869 -0.0034399 0.0084866 0.0175776 -0.0469329 0.0002331 -0.0005164 -0.0000653 -0.0003231 0.0000006 0.0002271 -0.0000197 0.0000823 -0.0002042 0.0006144
0.0000769 -0.0013928 0.0038702 -0.0022299 0.0116660 -0.0279522 -0.0036256 0.0089721 0.0136877 -0.0366408 0.0062465 -0.0163819 -0.0003516 -0.0000227 -0.0000050 0.0002099 -0.0000105 0.0000994 -0.0002150 0.0005518
-0.0008535 0.0017464 0.0044758 -0.0083831 0.0115282 -0.0336410 -0.0022231 0.0053400 0.0030790 -0.0086270 0.0112779 -0.0297100 -0.0004668 -0.0000100 -0.0000010 0.0001706 -0.0000135 -0.0000057 -0.0002024 0.0004063
0.0037729 -0.0128424 0.0048025 -0.0056993 0.0079058 -0.0217161 -0.0036595 0.0090533 -0.0033101 0.0081284 0.0034754 -0.0091622 -0.0003072 -0.0002148 -0.0000055 0.0001261 -0.0000129 -0.0000172 -0.0001938 0.0004320
-0.0002704 -0.0053285 0.0035413 -0.0041980 0.0097836 -0.0155433 -0.0051680 0.0129577 -0.0010125 0.0020410 -0.0004788 0.0012618 -0.0001787 -0.0002660 -0.0000105 0.0001401 -0.0000074 0.0000812 -0.0001857 0.0005904
-0.0021278 0.0044926 -0.0018429 0.0024458 0.0136882 -0.0310295 0.0009236 -0.0030579 0.0096204 -0.0259465 0.0021804 -0.0057837 -0.0000996 -0.0002285 -0.0000086 0.0001965 -0.0000183 0.0001623 -0.0001653 0.0008072
0.0007499 0.0129527 0.0043909 -0.0137500 -0.0059170 -0.0015759 0.0130625 -0.0350135 0.0115386 -0.0309451 0.0025777 -0.0068188 0.0000314 -0.0003460 0.0000033 0.0001958 -0.0000380 0.0000571 -0.0001719 0.0007511
0.0018113 0.0106272 0.0021382 -0.0161569 -0.0175565 0.0187803 0.0085545 -0.0230817 0.0090232 -0.0242158 -0.0008349 0.0022054 0.0000104 -0.0004011 0.0000123 0.0001489 -0.0000440 -0.0000603 -0.0001878 0.0006267
0.0036109 -0.0083056 -0.0018149 -0.0023294 -0.0057289 0.0093983 0.0027097 -0.0074706 0.0058700 -0.0156513 0.0001435 -0.0004215 -0.0002697 -0.0001869 0.0000115 0.0001312 -0.0000453 -0.0000378 -0.0001659 0.0007092
0.0007535 -0.0065189 0.0026970 0.0016272 -0.0049272 0.0193935 0.0038261 -0.0101899 -0.0045612 0.0120682 0.0053623 -0.0142586 -0.0003406 -0.0000976 0.0000030 0.0001394 -0.0000514 0.0000462 -0.0001738 0.0009065
0.0051840 -0.0160067 0.0058127 -0.0041383 0.0004657 0.0060210 0.0060441 -0.0159491 -0.0065248 0.0172487 0.0039173 -0.0104138 -0.0000002 -0.0002773 0.0000059 0.0001613 -0.0000587 0.0000482 -0.0001849 0.0009325
0.0040407 -0.0037318 0.0053327 -0.0108818 0.0024889 -0.0073267 0.0115029 -0.0304808 -0.0035390 0.0092812 -0.0001708 0.0004428 0.0001575 -0.0003914 0.0000207 0.0001379 -0.0000697 -0.0000800 -0.0001645 0.0007812
0.0039268 -0.0027547 0.0064731 -0.0119624 0.0005994 -0.0004498 0.0081375 -0.0217705 0.0018608 -0.0050284 -0.0005279 0.0013883 0.0001193 -0.0003736 0.0000256 0.0001066 -0.0000800 -0.0001240 -0.0001500 0.0008009
0.0039614 -0.0091432 0.0068383 -0.0129145 0.0105156 -0.0180411 0.0034968 -0.0095608 0.0142557 -0.0377177 -0.0018552 0.0048698 0.0000927 -0.0003304 0.0000212 0.0001060 -0.0000828 -0.0000608 -0.0001617 0.0008955
0.0039443 -0.0054389 -0.0000843 0.0008879 0.0069627 -0.0148133 0.0010812 -0.0031832 0.0044784 -0.0118311 -0.0023630 0.0062114 -0.0000522 -0.0001591 0.0000251 0.0001040 -0.0000801 -0.0000587 -0.0001703 0.0008694
0.0027072 -0.0035484 -0.0002486 0.0029896 0.0026620 -0.0163434 -0.0007266 0.0015621 -0.0007196 0.0018952 -0.0000943 0.0002176 -0.0004022 0.0000719 0.0000329 0.0000743 -0.0000768 -0.0001396 -0.0001544 0.0007598
-0.0016430 0.0006696 -0.0002780 0.0010779 -0.0129369 0.0019679 0.0031038 -0.0085949 -0.0028782 0.0075916 0.0043954 -0.0116613 -0.0004313 0.0000479 0.0000362 0.0000459 -0.0000738 -0.0001549 -0.0001423 0.0007631
0.0042481 -0.0145101 0.0060543 -0.0063537 0.0000813 -0.0057142 0.0027877 -0.0077802 -0.0006604 0.0017376 0.0031599 -0.0083852 -0.0001333 -0.0001586 0.0000356 0.0000521 -0.0000708 -0.0000746 -0.0001445 0.0008617
0.0016524 -0.0151932 0.0052067 -0.0054214 0.0060717 -0.0103448 0.0096824 -0.0260068 -0.0005769 0.0015483 -0.0007687 0.0020136 -0.0000291 -0.0001655 0.0000330 0.0000770 -0.0000697 0.0000050 -0.0001533 0.0009110
-0.0018410 -0.0020746 -0.0020517 0.0019213 -0.0056377 0.0152026 0.0149508 -0.0399642 -0.0033196 0.0087881 0.0005398 -0.0014533 -0.0000004 -0.0001657 0.0000403 0.0000492 -0.0000703 -0.0000624 -0.0001630 0.0008017
0.0021448 0.0038018 0.0023159 -0.0088965 -0.0106094 0.0159489 0.0083599 -0.0226088 0.0053264 -0.0140873 0.0023065 -0.0061584 0.0000384 -0.0003150 0.0000495 0.0000003 -0.0000723 -0.0001371 -0.0001792 0.0007640
0.0064839 -0.0058175 0.0012906 -0.0153891 -0.0103533 -0.0055938 0.0113299 -0.0304023 0.0158503 -0.0418503 -0.0000306 -0.0000105 0.0000788 -0.0003527 0.0000503 0.0000009 -0.0000713 -0.0000897 -0.0001795 0.0008528
0.0068901 -0.0174491 -0.0005173 -0.0064116 -0.0092035 0.0065727 0.0029935 -0.0082646 0.0037382 -0.0097859 0.0011833 -0.0032492 -0.0001571 -0.0001082 0.0000456 0.0000221 -0.0000698 0.0000034 -0.0001528 0.0009434
0.0055027 -0.0134474 0.0043725 -0.0070339 -0.0033222 0.0118999 0.0011693 -0.0034251 -0.0010571 0.0028805 0.0076627 -0.0203635 -0.0003068 -0.0000047 0.0000538 -0.0000025 -0.0000708 -0.0000483 -0.0001497 0.0008334
0.0055031 -0.0129103 0.0070124 -0.0108706 -0.0013158 0.0033738 0.0015617 -0.0045554 0.0032096 -0.0084719 -0.0002583 0.0005859 0.0000585 -0.0003300 0.0000627 -0.0000540 -0.0000546 -0.0001049 -0.0001774 0.0006537
0.0007007 -0.0023683 0.0041277 -0.0068522 0.0000320 -0.0203865 0.0004529 -0.0017353 0.0103944 -0.0275326 -0.0032055 0.0084090 0.0003005 -0.0004738 0.0000606 -0.0000656 -0.0000273 -0.0000032 -0.0001885 0.0006442
0.0022241 -0.0028277 0.0024067 0.0044944 0.0042383 -0.0077430 0.0076025 -0.0207644 -0.0002749 0.0005620 -0.0015936 0.0042055 0.0002016 -0.0002811 0.0000510 -0.0000565 -0.0000073 0.0001045 -0.0001906 0.0007578
0.0024732 -0.0035886 0.0001230 0.0093352 0.0041692 0.0030936 0.0071584 -0.0197162 -0.0007151 0.0015820 -0.0031492 0.0083537 0.0001088 -0.0002395 0.0000528 -0.0000615 0.0000190 0.0001113 -0.0001952 0.0006587
0.0066407 -0.0052227 -0.0012507 0.0043528 0.0008613 -0.0032708 -0.0008165 0.0011936 0.0009131 -0.0028638 -0.0040878 0.0108182 -0.0000522 -0.0002537 0.0000645 -0.0000961 0.0000326 0.0000433 -0.0001802 0.0004796
0.0050114 -0.0029600 -0.0014542 0.0067413 -0.0022122 -0.0006067 -0.0054391 0.0133656 -0.0033672 0.0084419 -0.0037075 0.0097688 -0.0002630 -0.0001354 0.0000686 -0.0001144 0.0000289 0.0000549 -0.0001607 0.0005408
-0.0002021 -0.0006270 -0.0029726 0.0095952 -0.0016904 -0.0008160 -0.0001396 -0.0005040 -0.0033513 0.0085173 -0.0022966 0.0060420 -0.0001945 -0.0001088 0.0000720 -0.0000894 0.0000301 0.0001382 -0.0001587 0.0006527
0.0051364 -0.0156914 0.0054657 0.0007620 0.0102159 -0.0120658 0.0048091 -0.0132719 -0.0020155 0.0051639 -0.0040007 0.0105633 0.0000358 -0.0002111 0.0000765 -0.0000598 0.0000317 0.0001612 -0.0001554 0.0005922
0.0023423 -0.0189576 0.0047955 -0.0001290 0.0097523 -0.0114828 0.0025229 -0.0069871 -0.0069395 0.0182363 -0.0030946 0.0081505 0.0001498 -0.0003627 0.0000788 -0.0000927 0.0000318 0.0001014 -0.0001618 0.0004567
-0.0012351 -0.0044346 -0.0029260 0.0035926 0.0056927 -0.0120246 0.0078897 -0.0212308 -0.0053733 0.0140491 0.0025483 -0.0067835 0.0001504 -0.0003414 0.0000767 -0.0001227 0.0000325 0.0001001 -0.0001778 0.0005015
0.0030044 -0.0019157 -0.0003570 -0.0067970 0.0059628 -0.0197539 0.0048136 -0.0131389 0.0010258 -0.0028434 0.0016101 -0.0042946 0.0000468 -0.0001756 0.0000717 -0.0001091 0.0000408 0.0001854 -0.0001949 0.0005647
0.0073826 -0.0109389 0.0004811 -0.0167941 0.0015269 -0.0199996 0.0021064 -0.0060428 0.0028408 -0.0076182 -0.0013136 0.0035213 -0.0000104 -0.0000751 0.0000659 -0.0001024 0.0000620 0.0002643 -0.0001959 0.0004693
0.0049399 -0.0101980 -0.0010919 -0.0063685 0.0081027 -0.0278377 -0.0065519 0.0166625 -0.0017140 0.0043608 0.0038515 -0.0100485 -0.0001653 -0.0000077 0.0000619 -0.0001462 0.0000848 0.0002474 -0.0001951 0.0003151
0.0034624 -0.0032893 0.0048536 -0.0124243 -0.0018945 -0.0028703 -0.0041140 0.0101545 -0.0089414 0.0234095 0.0067308 -0.0176530 -0.0001684 -0.0000742 0.0000590 -0.0001894 0.0000989 0.0002500 -0.0002004 0.0002996
0.0042428 -0.0056049 0.0066970 -0.0113702 -0.0046116 0.0092403 0.0114215 -0.0308496 -0.0041698 0.0108479 0.0071497 -0.0187540 0.0002333 -0.0003055 0.0000517 -0.0001776 0.0001058 0.0003332 -0.0002003 0.0003812
0.0007966 -0.0027418 0.0033373 -0.0042622 -0.0048239 0.0096952 0.0016466 -0.0049636 0.0031166 -0.0083147 0.0177641 -0.0468059 0.0003890 -0.0003403 0.0000472 -0.0001366 0.0001118 0.0004283 -0.0002091 0.0004361
-0.0003824 0.0019937 0.0026249 0.0049034 0.0051677 -0.0002406 0.0002017 -0.0011356 -0.0022989 0.0060775 0.0064049 -0.0167732 0.0002757 -0.0002555 0.0000541 -0.0001405 0.0001139 0.0003861 -0.0002144 0.0003192
-0.0011740 0.0028158 -0.0011903 0.0118969 0.0089820 -0.0108497 0.0018000 -0.0053489 -0.0000883 0.0003003 0.0063286 -0.0165453 0.0001211 -0.0002203 0.0000610 -0.0001745 0.0001191 0.0003191 -0.0002089 0.0001952
0.0065677 -0.0065945 -0.0044668 0.0057417 -0.0028317 0.0066455 -0.0026143 0.0064253 0.0030327 -0.0078209 0.0163448 -0.0429796 -0.0001352 -0.0001144 0.0000647 -0.0001701 0.0001266 0.0003640 -0.0002030 0.0002335
0.0057669 -0.0066008 -0.0053494 0.0097811 -0.0088500 0.0229451 -0.0088298 0.0229910 -0.0061084 0.0164760 0.0036583 -0.0094272 -0.0002359 -0.0000132 0.0000691 -0.0001308 0.0001236 0.0004245 -0.0001914 0.0003424
-0.0018802 -0.0002656 -0.0055262 0.0121690 -0.0126363 0.0293268 -0.0083910 0.0218407 -0.0024891 0.0069333 -0.0021514 0.0059412 -0.0000516 -0.0001013 0.0000788 -0.0001357 0.0001240 0.0003622 -0.0001797 0.0002543
0.0020696 -0.0115488 0.0046301 0.0016750 -0.0025054 0.0181645 0.0013480 -0.0039981 0.0003971 -0.0007654 0.0018202 -0.0045612 0.0001653 -0.0003738 0.0000840 -0.0001916 0.0001325 0.0002704 -0.0001840 0.0000809
0.0009758 -0.0174711 0.0034855 0.0018606 -0.0015323 0.0082951 0.0039300 -0.0109545 -0.0048585 0.0130498 0.0025145 -0.0064044 0.0002503 -0.0004502 0.0000844 -0.0001992 0.0001523 0.0003324 -0.0001766 0.0000765
-0.0024011 -0.0039758 -0.0034574 0.0040626 -0.0034032 0.0003230 -0.0052290 0.0132216 -0.0009952 0.0028733 0.0015814 -0.0039680 0.0001420 -0.0003316 0.0000824 -0.0001750 0.0001677 0.0004403 -0.0001580 0.0001500
0.0026271 -0.0060235 -0.0010768 -0.0050325 0.0045138 -0.0012942 -0.0016417 0.0038463 0.0012368 -0.0029105 0.0096748 -0.0253421 -0.0000260 -0.0002967 0.0000889 -0.0001833 0.0001764 0.0004156 -0.0001738 0.0000605
0.0054774 -0.0095577 -0.0008587 -0.0132638 -0.0001033 -0.0038209 0.0218265 -0.0582096 0.0065419 -0.0169267 0.0098787 -0.0258363 -0.0000429 -0.0004064 0.0000998 -0.0002335 0.0001950 0.0003419 -0.0001824 -0.0001281
0.0027928 -0.0049698 -0.0010455 -0.0070973 0.0048905 -0.0269344 0.0121408 -0.0327051 0.0013525 -0.0032631 0.0005147 -0.0010923 -0.0001428 -0.0004114 0.0001008 -0.0002546 0.0002108 0.0003782 -0.0001387 -0.0001534
0.0030779 0.0004690 0.0056396 -0.0170470 0.0079621 -0.0166803 0.0086352 -0.0234035 -0.0058599 0.0157814 0.0008766 -0.0020490 -0.0001850 -0.0003391 0.0000999 -0.0002231 0.0002243 0.0004720 -0.0001064 -0.0000504
0.0005314 0.0048979 0.0065360 -0.0122366 0.0031279 -0.0039479 0.0185863 -0.0495939 -0.0024493 0.0067768 0.0078708 -0.0205185 0.0001369 -0.0005391 0.0001014 -0.0002007 0.0002326 0.0005157 -0.0001009 -0.0000484
-0.0024293 0.0031686 0.0023817 -0.0009687 0.0038312 -0.0116212 0.0132075 -0.0353976 -0.0020933 0.0057481 0.0054426 -0.0140991 0.0004018 -0.0008415 0.0001090 -0.0002172 0.0002350 0.0004558 -0.0000955 -0.0001764
-0.0023308 0.0078182 0.0010941 0.0111495 0.0089010 -0.0187466 0.0085609 -0.0231294 -0.0003525 0.0010822 -0.0010541 0.0030487 0.0002522 -0.0008064 0.0001192 -0.0002261 0.0002340 0.0004128 -0.0000863 -0.0001655
-0.0027469 0.0103832 -0.0027823 0.0182802 0.0062862 -0.0080965 0.0052443 -0.0143581 0.0017925 -0.0045850 0.0004659 -0.0009870 0.0001385 -0.0007600 0.0001233 -0.0002132 0.0002358 0.0004364 -0.0000803 -0.0000808
0.0046929 0.0023673 -0.0058742 0.0094379 -0.0008970 -0.0028926 -0.0009495 0.0018841 -0.0026502 0.0071317 0.0093444 -0.0244564 0.0000088 -0.0007144 0.0001183 -0.0001850 0.0002411 0.0005271 -0.0000752 0.0000098
0.0045818 -0.0001296 -0.0071903 0.0138464 -0.0072952 0.0021114 -0.0013084 0.0028386 -0.0016211 0.0043003 -0.0010470 0.0030264 -0.0002133 -0.0005803 0.0001231 -0.0002015 0.0002416 0.0004964 -0.0000676 -0.0000819
-0.0015720 0.0016721 -0.0064783 0.0159059 -0.0037717 -0.0043809 0.0001554 -0.0009844 0.0037641 -0.0100606 -0.0059304 0.0159406 -0.0000105 -0.0008244 0.0001338 -0.0002419 0.0002452 0.0004058 -0.0000575 -0.0002359
0.0012045 -0.0075813 0.0036532 0.0070448 0.0141041 -0.0295330 0.0057723 -0.0158546 0.0094173 -0.0250282 0.0012464 -0.0030375 0.0003350 -0.0011642 0.0001366 -0.0002455 0.0002491 0.0004209 -0.0000541 -0.0002092
0.0028108 -0.0196598 0.0028437 0.0059364 0.0035689 -0.0149735 0.0058162 -0.0158794 -0.0013742 0.0035223 0.0175299 -0.0460880 0.0003570 -0.0011691 0.0001355 -0.0002231 0.0002466 0.0004721 -0.0000560 -0.0000861
0.0016231 -0.0107156 -0.0025578 0.0039736 -0.0257806 0.0078483 -0.0004726 0.0009034 -0.0032248 0.0084925 0.0088779 -0.0232362 0.0002296 -0.0010030 0.0001370 -0.0001957 0.0002407 0.0004885 -0.0000500 -0.0000501
0.0059603 -0.0124173 -0.0013799 -0.0030584 -0.0055569 -0.0138069 0.0005159 -0.0016647 0.0012878 -0.0034304 0.0060151 -0.0156871 0.0001182 -0.0009740 0.0001437 -0.0002210 0.0002338 0.0004125 -0.0000493 -0.0001575
0.0070771 -0.0105349 -0.0032977 -0.0045436 -0.0012929 -0.0197818 0.0041911 -0.0113596 0.0018128 -0.0048333 0.0087878 -0.0230370 0.0000203 -0.0009614 0.0001491 -0.0002530 0.0002305 0.0003660 -0.0000496 -0.0001804
0.0037240 -0.0034833 -0.0015469 -0.0014146 0.0104437 -0.0346462 -0.0006841 0.0016060 0.0015465 -0.0041164 0.0034530 -0.0089506 -0.0001029 -0.0008976 0.0001483 -0.0002446 0.0002324 0.0004138 -0.0000381 -0.0000935
0.0024833 0.0064936 0.0090142 -0.0239228 0.0093916 -0.0222131 -0.0024185 0.0062536 -0.0029685 0.0078286 -0.0008847 0.0025037 -0.0001776 -0.0007844 0.0001422 -0.0002159 0.0002350 0.0005092 -0.0000380 0.0000472
-0.0008940 0.0123572 0.0071076 -0.0130886 0.0024613 -0.0071200 -0.0041462 0.0109152 -0.0022684 0.0060171 0.0039625 -0.0102692 0.0001789 -0.0009562 0.0001438 -0.0001886 0.0002306 0.0005235 -0.0000579 0.0000208
-0.0036550 0.0065574 0.0008300 0.0044195 0.0064383 -0.0118535 -0.0017210 0.0044564 0.0015197 -0.0040251 0.0024320 -0.0061967 0.0004024 -0.0012113 0.0001514 -0.0002045 0.0002250 0.0004401 -0.0000720 -0.0001405
-0.0032463 0.0091380 0.0007272 0.0146396 0.0003554 0.0111821 0.0069828 -0.0186707 0.0017107 -0.0045770 -0.0020185 0.0055594 0.0003021 -0.0012012 0.0001566 -0.0002284 0.0002250 0.0004047 -0.0000765 -0.0001534
-0.0036867 0.0114545 -0.0025799 0.0196055 -0.0103962 0.0255192 0.0000461 -0.0002478 0.0012547 -0.0032698 0.0066864 -0.0174549 0.0001896 -0.0010874 0.0001575 -0.0002148 0.0002188 0.0004425 -0.0000568 -0.0000197
0.0053230 0.0015513 -0.0046768 0.0075788 -0.0089851 0.0053559 -0.0019314 0.0053172 0.0000314 0.0001228 0.0030759 -0.0079421 -0.0000711 -0.0008364 0.0001557 -0.0001676 0.0002034 0.0005113 -0.0000353 0.0001873
0.0040615 0.0022212 -0.0058140 0.0116993 -0.0012179 -0.0008677 0.0003540 -0.0005192 0.0000723 0.0000497 -0.0012339 0.0034524 -0.0002360 -0.0006590 0.0001595 -0.0001409 0.0001909 0.0004866 -0.0000434 0.0001480
-0.0030324 0.0061991 -0.0058619 0.0142274 -0.0033304 0.0039238 0.0003367 -0.0007614 0.0000112 0.0000771 0.0016016 -0.0040208 -0.0000044 -0.0007738 0.0001620 -0.0001764 0.0001900 0.0004033 -0.0000491 -0.0000596
0.0008074 -0.0050574 0.0044763 0.0058521 0.0002772 -0.0110462 0.0054683 -0.0146211 0.0041517 -0.0109529 0.0056655 -0.0147444 0.0003661 -0.0010131 0.0001598 -0.0001977 0.0001951 0.0003934 -0.0000444 -0.0000721
0.0010126 -0.0125964 0.0027967 0.0078107 -0.0088562 0.0062534 0.0005936 -0.0017123 0.0107338 -0.0283057 0.0060283 -0.0156961 0.0003912 -0.0010351 0.0001572 -0.0001760 0.0001940 0.0004510 -0.0000464 0.0000465
-0.0000311 -0.0050039 -0.0017225 0.0040141 -0.0058373 0.0021884 -0.0052574 0.0138336 -0.0005226 0.0014731 0.0054738 -0.0142232 0.0002573 -0.0008849 0.0001505 -0.0001315 0.0001933 0.0005594 -0.0000639 0.0001882
0.0071800 -0.0142530 0.0014046 -0.0069042 0.0085193 -0.0318302 0.0013360 -0.0036082 -0.0023206 0.0062338 0.0156999 -0.0411646 0.0001294 -0.0007084 0.0001536 -0.0000987 0.0001957 0.0005667 -0.0000728 0.0001159
0.0081598 -0.0123009 -0.0019161 -0.0064690 0.0255033 -0.0706934 0.0041458 -0.0112300 0.0065718 -0.0173175 0.0101130 -0.0263353 0.0000488 -0.0006694 0.0001624 -0.0001178 0.0001968 0.0004780 -0.0000754 -0.0000663
0.0023454 -0.0001975 -0.0022683 -0.0013740 0.0075795 -0.0127224 0.0018969 -0.0054624 0.0038393 -0.0101388 0.0006440 -0.0012937 0.0000429 -0.0007318 0.0001660 -0.0001343 0.0002045 0.0004662 -0.0000751 -0.0000891
0.0012863 0.0084270 0.0077267 -0.0206324 -0.0126650 0.0166690 0.0006889 -0.0022675 -0.0016413 0.0043755 0.0061502 -0.0158268 0.0000870 -0.0007232 0.0001656 -0.0001162 0.0002133 0.0005284 -0.0000637 -0.0000129
-0.0006792 0.0110203 0.0061715 -0.0100078 -0.0097753 0.0087774 -0.0017681 0.0042601 0.0008383 -0.0021453 0.0160863 -0.0420932 0.0003115 -0.0007668 0.0001550 -0.0000820 0.0002133 0.0006206 -0.0000682 0.0001148
-0.0033813 0.0052220 0.0003863 0.0053726 0.0052504 -0.0074099 -0.0023722 0.0058847 0.0013033 -0.0033491 0.0139818 -0.0365122 0.0004351 -0.0007436 0.0001504 -0.0000503 0.0002127 0.0006624 -0.0000871 0.0001087
-0.0027087 0.0076951 0.0007245 0.0125530 0.0044116 0.0019637 0.0041102 -0.0113639 -0.0051491 0.0136579 0.0064322 -0.0165571 0.0003724 -0.0007252 0.0001543 -0.0000793 0.0002186 0.0005733 -0.0001035 -0.0000705
-0.0027949 0.0090600 -0.0030314 0.0181464 0.0065519 -0.0064167 0.0118722 -0.0320373 -0.0021522 0.0056577 0.0029644 -0.0074119 0.0002185 -0.0006942 0.0001569 -0.0001268 0.0002319 0.0004981 -0.0000932 -0.0001900
0.0045052 0.0024489 -0.0049721 0.0080626 0.0078488 -0.0185379 0.0010324 -0.0033786 0.0059952 -0.0158970 0.0091615 -0.0237852 -0.0000531 -0.0005117 0.0001554 -0.0001292 0.0002449 0.0005347 -0.0000884 -0.0001570
0.0037716 0.0023137 -0.0037098 0.0096005 -0.0038039 0.0036677 -0.0044490 0.0112321 -0.0023392 0.0061385 0.0025922 -0.0064291 -0.0002035 -0.0003574 0.0001450 -0.0001085 0.0002532 0.0006278 -0.0000878 -0.0000290
-0.0016723 0.0035963 -0.0046856 0.0139098 -0.0049752 0.0109610 -0.0020049 0.0048929 -0.0059363 0.0156708 -0.0027944 0.0078022 0.0000894 -0.0004245 0.0001336 -0.0000640 0.0002545 0.0007422 -0.0000695 0.0000848
0.0023816 -0.0096453 0.0042313 0.0068641 0.0080635 -0.0045407 0.0012587 -0.0037122 -0.0014429 0.0037932 0.0031893 -0.0079595 0.0003513 -0.0005834 0.0001349 -0.0000683 0.0002445 0.0006670 -0.0000812 -0.0000243
0.0019342 -0.0172506 0.0035562 0.0060281 0.0107049 -0.0206153 0.0023455 -0.0066391 0.0064590 -0.0171141 0.0112494 -0.0291862 0.0003016 -0.0005549 0.0001380 -0.0000942 0.0002432 0.0005463 -0.0000845 -0.0001543
-0.0000729 -0.0048662 -0.0010194 0.0027739 -0.0067629 -0.0004083 0.0057050 -0.0155802 0.0041379 -0.0109903 0.0043570 -0.0109389 0.0001638 -0.0003757 0.0001366 -0.0000870 0.0002506 0.0005768 -0.0000791 -0.0000977
0.0046487 -0.0075580 0.0012912 -0.0067341 -0.0079976 0.0014684 0.0023261 -0.0066847 0.0018377 -0.0049076 0.0032737 -0.0080666 0.0000401 -0.0002035 0.0001312 -0.0000650 0.0002512 0.0006533 -0.0000915 0.0000480
0.0069999 -0.0100790 -0.0019441 -0.0075551 -0.0090593 0.0045357 0.0074361 -0.0201371 0.0003770 -0.0010107 0.0134926 -0.0350789 0.0000288 -0.0001179 0.0001196 -0.0000164 0.0002438 0.0007686 -0.0000828 0.0002204
0.0025253 -0.0009026 -0.0016642 -0.0015206 -0.0024321 0.0031729 0.0179639 -0.0478718 -0.0024610 0.0065283 0.0107201 -0.0277292 -0.0000760 -0.0001384 0.0001243 -0.0000227 0.0002355 0.0007075 -0.0000747 0.0001155
0.0028246 0.0039997 0.0061698 -0.0146721 0.0049307 -0.0045651 0.0043538 -0.0118393 -0.0027348 0.0072693 0.0078466 -0.0201039 -0.0001106 -0.0001240 0.0001343 -0.0000451 0.0002367 0.0006003 -0.0000883 -0.0000148
0.0025343 0.0038647 0.0059122 -0.0087016 -0.0031481 0.0033072 0.0004303 -0.0013477 0.0053074 -0.0139450 0.0084433 -0.0216548 0.0001972 -0.0002523 0.0001346 -0.0000251 0.0002388 0.0006192 -0.0000985 0.0000480
0.0002719 0.0011495 0.0011347 0.0034715 -0.0060084 0.0053948 0.0014885 -0.0039812 0.0109477 -0.0287714 0.0034010 -0.0083052 0.0004675 -0.0004927 0.0001361 0.0000055 0.0002340 0.0006803 -0.0001092 0.0001766
-0.0000723 0.0044410 0.0010498 0.0118191 0.0022528 -0.0010581 0.0062215 -0.0163189 -0.0009164 0.0026403 -0.0004249 0.0018522 0.0003967 -0.0003294 0.0001424 0.0000193 0.0002294 0.0006626 -0.0001087 0.0001268
-0.0016570 0.0080338 -0.0025745 0.0181682 -0.0000471 -0.0087252 0.0011645 -0.0030033 -0.0038595 0.0103683 0.0038587 -0.0094513 0.0002074 -0.0001378 0.0001492 -0.0000297 0.0002309 0.0005335 -0.0001068 -0.0000901
0.0056468 0.0001946 -0.0044302 0.0086469 -0.0021287 -0.0145960 -0.0012745 0.0032792 0.0037483 -0.0098146 0.0097875 -0.0251370 0.0000090 -0.0001740 0.0001508 -0.0000722 0.0002382 0.0004916 -0.0001065 -0.0001273
0.0048605 -0.0002290 -0.0036924 0.0097424 0.0004490 -0.0006417 -0.0001326 0.0001996 -0.0010972 0.0029738 0.0049911 -0.0124424 -0.0001127 -0.0001024 0.0001496 -0.0000681 0.0002467 0.0005472 -0.0000920 -0.0000347
-0.0013801 0.0039368 -0.0049438 0.0138130 0.0007540 -0.0030170 -0.0048516 0.0126862 -0.0058214 0.0154827 0.0078700 -0.0200691 0.0000363 -0.0001117 0.0001414 -0.0000377 0.0002479 0.0006518 -0.0000745 0.0000898
0.0027617 -0.0067311 0.0052308 0.0038605 0.0126700 -0.0219525 -0.0031455 0.0082022 0.0021068 -0.0054986 0.0008799 -0.0016322 0.0002765 -0.0003455 0.0001428 -0.0000715 0.0002454 0.0005587 -0.0000743 -0.0000819
0.0011411 -0.0124075 0.0046211 0.0028800 0.0161595 -0.0276455 -0.0032105 0.0082612 0.0026756 -0.0071087 0.0001327 0.0003016 0.0003047 -0.0004950 0.0001520 -0.0001524 0.0002450 0.0003710 -0.0000745 -0.0003062
-0.0010854 -0.0035369 -0.0011826 0.0023777 0.0025387 -0.0128888 -0.0044737 0.0115109 -0.0004955 0.0012099 0.0014062 -0.0031190 0.0002106 -0.0004495 0.0001524 -0.0001790 0.0002442 0.0003274 -0.0000607 -0.0002591
0.0048634 -0.0051603 0.0031852 -0.0097240 -0.0078802 0.0032300 -0.0002632 0.0004009 -0.0007215 0.0018000 -0.0013204 0.0040462 0.0001829 -0.0004402 0.0001482 -0.0001652 0.0002415 0.0003526 -0.0000592 -0.0000994
0.0083329 -0.0113018 -0.0016487 -0.0076267 -0.0152790 0.0037323 -0.0065772 0.0171576 0.0020996 -0.0056288 0.0017539 -0.0040848 0.0000972 -0.0003924 0.0001481 -0.0001448 0.0002362 0.0003437 -0.0000473 -0.0000944
0.0044711 -0.0067211 -0.0034243 0.0008019 -0.0088098 -0.0022787 -0.0032401 0.0082803 -0.0018584 0.0047719 0.0041223 -0.0103786 -0.0001138 -0.0003064 0.0001523 -0.0001946 0.0002307 0.0002108 -0.0000249 -0.0002839
0.0040121 -0.0019939 0.0061024 -0.0125567 0.0077863 -0.0187675 0.0147712 -0.0394512 -0.0057328 0.0149283 0.0084401 -0.0218289 -0.0001726 -0.0003571 0.0001518 -0.0002493 0.0002286 0.0001292 -0.0000101 -0.0003187
0.0034125 -0.0015215 0.0077707 -0.0117927 0.0049284 -0.0171062 0.0151387 -0.0404347 -0.0019378 0.0049268 0.0115077 -0.0299450 0.0001631 -0.0006169 0.0001492 -0.0002397 0.0002330 0.0001842 -0.0000169 -0.0002093
0.0000575 0.0007404 0.0025695 -0.0007997 -0.0095829 0.0080379 0.0051180 -0.0138052 0.0035112 -0.0094204 0.0012415 -0.0028750 0.0003844 -0.0007925 0.0001408 -0.0001985 0.0002374 0.0003051 -0.0000214 -0.0000676
0.0020377 -0.0005939 0.0023140 0.0065283 -0.0004411 0.0070037 0.0017423 -0.0047423 -0.0000645 0.0000211 -0.0031760 0.0087375 0.0002954 -0.0007488 0.0001425 -0.0002048 0.0002306 0.0002233 -0.0000193 -0.0001587
0.0003565 0.0019306 0.0000385 0.0106425 0.0077245 -0.0056761 0.0094240 -0.0250932 -0.0021995 0.0055936 0.0014029 -0.0034159 0.0002247 -0.0007709 0.0001514 -0.0002479 0.0002230 0.0000620 -0.0000136 -0.0003173
0.0024836 0.0032318 -0.0029228 0.0058928 0.0115897 -0.0251667 0.0061496 -0.0164922 0.0004154 -0.0013459 0.0016804 -0.0041997 -0.0000196 -0.0006755 0.0001510 -0.0002526 0.0002248 0.0000649 0.0000063 -0.0002883
0.0022162 0.0020614 -0.0024548 0.0081344 0.0036871 -0.0081912 0.0069847 -0.0186415 -0.0000210 -0.0001531 0.0032606 -0.0084073 -0.0002718 -0.0004817 0.0001448 -0.0002330 0.0002286 0.0001328 0.0000123 -0.0001828
-0.0019448 0.0030785 -0.0033748 0.0102805 -0.0022868 0.0062149 0.0089242 -0.0236729 0.0018134 -0.0049262 0.0067581 -0.0176452 -0.0001500 -0.0004814 0.0001449 -0.0002068 0.0002272 0.0001470 0.0000272 -0.0002361
0.0033329 -0.0112025 0.0052216 0.0005664 0.0027765 0.0012505 0.0024303 -0.0065471 -0.0000798 0.0000755 0.0033724 -0.0087040 0.0000224 -0.0006434 0.0001486 -0.0002235 0.0002267 0.0000514 0.0000412 -0.0004218
0.0026199 -0.0163522 0.0053089 -0.0012596 0.0001175 0.0008805 -0.0024475 0.0062621 -0.0038456 0.0100161 0.0064865 -0.0169510 0.0001288 -0.0008098 0.0001469 -0.0002374 0.0002308 0.0000138 0.0000389 -0.0004322
-0.0014174 -0.0010044 -0.0014422 0.0021592 0.0019248 -0.0090028 -0.0036129 0.0093833 -0.0001417 0.0002936 0.0025522 -0.0065591 0.0002495 -0.0008204 0.0001442 -0.0002133 0.0002382 0.0000733 0.0000314 -0.0003402
0.0017721 0.0063444 0.0038742 -0.0137705 0.0064804 -0.0275206 0.0034482 -0.0092126 0.0054469 -0.0144010 0.0006484 -0.0015432 0.0002286 -0.0007076 0.0001392 -0.0001683 0.0002437 0.0001825 0.0000237 -0.0002408
0.0056740 -0.0020787 0.0048960 -0.0239100 0.0025641 -0.0385255 0.0123909 -0.0328466 0.0030086 -0.0079231 0.0018775 -0.0047634 0.0001930 -0.0007585 0.0001415 -0.0001635 0.0002449 0.0001174 0.0000159 -0.0003683
0.0054760 -0.0104401 0.0001919 -0.0057269 -0.0028792 -0.0073045 0.0032706 -0.0088151 0.0055801 -0.0147154 0.0051101 -0.0132794 -0.0000361 -0.0006841 0.0001485 -0.0001852 0.0002510 0.0000061 0.0000188 -0.0005300
0.0048551 -0.0100847 0.0035570 -0.0014753 -0.0026405 0.0016447 0.0017010 -0.0046931 -0.0018632 0.0049781 0.0059391 -0.0154714 -0.0002176 -0.0005397 0.0001485 -0.0001694 0.0002606 0.0000560 0.0000283 -0.0004857
0.0090693 -0.0197007 0.0082588 -0.0102259 0.0007964 -0.0045060 0.0073685 -0.0196766 -0.0010341 0.0028091 -0.0004362 0.0013654 0.0001107 -0.0007773 0.0001391 -0.0001489 0.0002672 0.0001566 0.0000269 -0.0003598
0.0024728 -0.0006377 0.0056940 -0.0093113 0.0047046 -0.0160766 0.0092706 -0.0247115 0.0055952 -0.0146929 0.0011001 -0.0026574 0.0002988 -0.0009003 0.0001371 -0.0001412 0.0002702 0.0001283 0.0000247 -0.0004363
0.0027600 0.0003821 0.0045869 -0.0040241 0.0199903 -0.0395703 0.0151837 -0.0403601 -0.0016241 0.0044060 -0.0002331 0.0008942 0.0001844 -0.0007731 0.0001429 -0.0001490 0.0002776 0.0000290 0.0000287 -0.0005837
0.0029061 -0.0034082 0.0049337 -0.0039867 0.0132963 -0.0174401 0.0205098 -0.0544255 -0.0004858 0.0014619 0.0027794 -0.0070750 0.0002501 -0.0008700 0.0001448 -0.0001401 0.0002857 0.0000518 0.0000376 -0.0005467
0.0050149 -0.0045667 0.0008653 0.0012457 0.0069919 -0.0125604 0.0162710 -0.0431415 0.0049501 -0.0128189 0.0064874 -0.0168667 0.0001099 -0.0008163 0.0001417 -0.0001067 0.0002918 0.0001312 0.0000312 -0.0004579
0.0048618 -0.0054278 0.0016305 0.0014799 0.0053818 -0.0068729 0.0121755 -0.0322511 0.0068903 -0.0178908 0.0043387 -0.0111286 -0.0002629 -0.0004690 0.0001419 -0.0000873 0.0002973 0.0001301 0.0000309 -0.0005262
-0.0006987 0.0018766 0.0006703 0.0026103 -0.0039628 0.0093464 0.0035688 -0.0095487 0.0063934 -0.0165745 0.0049140 -0.0125949 -0.0002487 -0.0004817 0.0001445 -0.0001033 0.0003045 0.0000565 0.0000521 -0.0006994
0.0043258 -0.0108054 0.0061891 -0.0039613 -0.0013726 0.0063309 0.0086481 -0.0229948 0.0007456 -0.0016462 -0.0007023 0.0022633 -0.0000408 -0.0006974 0.0001429 -0.0001138 0.0003169 0.0000670 0.0000671 -0.0007272
0.0011284 -0.0062987 0.0054716 -0.0042561 0.0039729 -0.0131822 0.0013247 -0.0035543 -0.0009439 0.0028686 -0.0009867 0.0030636 0.0000814 -0.0006591 0.0001406 -0.0000956 0.0003315 0.0001561 0.0000487 -0.0006611
-0.0002632 0.0012429 -0.0003557 0.0003425 -0.0086222 0.0008806 -0.0076409 0.0201874 0.0004806 -0.0008690 0.0044806 -0.0112803 0.0002131 -0.0005823 0.0001437 -0.0000810 0.0003569 0.0001913 0.0000156 -0.0007553
0.0028000 0.0101241 0.0052419 -0.0135974 -0.0128595 0.0194142 -0.0077486 0.0203504 0.0007007 -0.0014962 0.0061293 -0.0155321 0.0002560 -0.0006659 0.0001503 -0.0001074 0.0003861 0.0001285 0.0000144 -0.0009884
0.0022850 0.0106771 0.0027237 -0.0117646 -0.0213860 0.0202736 -0.0044779 0.0116010 -0.0011607 0.0033994 0.0061989 -0.0156639 0.0003048 -0.0008176 0.0001524 -0.0001306 0.0004038 0.0001014 0.0000303 -0.0010492
0.0018015 -0.0021292 -0.0008396 0.0007543 -0.0089462 0.0103692 -0.0011005 0.0027277 -0.0011204 0.0033327 0.0026239 -0.0061690 0.0000963 -0.0006600 0.0001547 -0.0001244 0.0004165 0.0001447 0.0000387 -0.0009907
-0.0031695 0.0029818 0.0020613 0.0093622 -0.0046603 0.0133850 -0.0002485 0.0005353 -0.0040293 0.0110563 0.0014989 -0.0031458 -0.0001084 -0.0005092 0.0001601 -0.0001093 0.0004263 0.0001519 0.0000586 -0.0010323
0.0024740 -0.0064634 0.0057378 0.0013477 -0.0026013 0.0093498 0.0027628 -0.0074526 -0.0072905 0.0196520 0.0007588 -0.0011717 0.0001840 -0.0008537 0.0001677 -0.0001296 0.0004302 0.0000368 0.0000687 -0.0011927
0.0048602 0.0015320 0.0067801 -0.0113478 0.0018957 -0.0047958 -0.0030657 0.0078462 -0.0042463 0.0115480 0.0026721 -0.0062396 0.0003122 -0.0010439 0.0001760 -0.0001708 0.0004397 -0.0000620 0.0000779 -0.0012609
0.0048915 0.0005333 0.0040968 -0.0079573 0.0001174 -0.0071202 -0.0040896 0.0105359 0.0015634 -0.0038261 0.0050831 -0.0126180 0.0002005 -0.0009946 0.0001823 -0.0001723 0.0004526 -0.0000589 0.0001119 -0.0012383
0.0056467 -0.0094032 0.0094641 -0.0200802 -0.0090882 0.0102268 0.0036262 -0.0098261 0.0019379 -0.0048149 0.0061612 -0.0154860 0.0002627 -0.0010913 0.0001858 -0.0001476 0.0004558 -0.0000155 0.0001356 -0.0011788
0.0011252 -0.0001221 0.0045758 -0.0004004 -0.0145707 0.0190140 0.0012185 -0.0035243 -0.0016263 0.0045528 0.0075222 -0.0190842 0.0003094 -0.0011646 0.0001964 -0.0001623 0.0004530 -0.0001053 0.0001376 -0.0012497
-0.0005864 0.0018712 0.0042898 0.0003441 -0.0039563 0.0075874 -0.0023723 0.0058846 -0.0023584 0.0065172 0.0028447 -0.0066751 0.0000998 -0.0010474 0.0002258 -0.0001206 0.0004724 -0.0001906 0.0001860 -0.0012245
-0.0013939 0.0035458 0.0047636 -0.0067160 0.0016455 -0.0013320 -0.0030945 0.0078391 -0.0055572 0.0151991 0.0057572 -0.0143125 -0.0000182 -0.0009992 0.0002541 -0.0000210 0.0005090 -0.0001143 0.0002591 -0.0010468
0.0035455 -0.0099205 0.0035966 -0.0038149 0.0021056 -0.0107965 -0.0006421 0.0014290 -0.0014690 0.0045717 0.0022320 -0.0049730 0.0001122 -0.0011069 0.0002631 0.0000348 0.0005301 -0.0000055 0.0002735 -0.0009264
-0.0007558 0.0027464 0.0017978 -0.0008237 -0.0041850 0.0066011 0.0028127 -0.0076336 0.0011771 -0.0023691 0.0039250 -0.0094093 0.0001502 -0.0011033 0.0002705 0.0000667 0.0005377 -0.0000135 0.0002774 -0.0010008
-0.0024821 0.0115480 -0.0013566 0.0049748 -0.0042221 0.0082833 0.0065678 -0.0176034 -0.0067706 0.0185968 0.0086047 -0.0217677 0.0002627 -0.0012352 0.0002816 0.0000495 0.0005403 -0.0001254 0.0002906 -0.0012126
0.0001994 0.0203552 0.0047543 -0.0125418 -0.0005587 -0.0077287 0.0045804 -0.0124815 -0.0006521 0.0023601 0.0028902 -0.0066866 0.0003927 -0.0014260 0.0002898 0.0000346 0.0005485 -0.0001418 0.0002905 -0.0012455
-0.0023624 0.0234694 0.0008776 -0.0032407 0.0006749 -0.0157602 -0.0019132 0.0046732 0.0106014 -0.0273846 0.0034007 -0.0080369 0.0004127 -0.0014616 0.0002901 0.0000571 0.0005594 -0.0000809 0.0002770 -0.0011590
-0.0035782 0.0081728 -0.0015488 0.0081439 0.0120980 -0.0328144 -0.0055431 0.0142868 -0.0027031 0.0077652 0.0063933 -0.0159426 0.0002136 -0.0012385 0.0002878 0.0000950 0.0005652 0.0000242 0.0002739 -0.0010712
-0.0129076 0.0186397 0.0005585 0.0182204 0.0111629 -0.0082207 -0.0026155 0.0065022 -0.0077537 0.0210287 -0.0003907 0.0020408 0.0000494 -0.0011206 0.0002959 0.0000930 0.0005732 -0.0000027 0.0002764 -0.0012250
-0.0091171 0.0155639 -0.0005575 0.0185547 -0.0025501 0.0127147 0.0010643 -0.0033295 -0.0079141 0.0213410 0.0001884 0.0005942 0.0002602 -0.0013988 0.0003076 0.0000748 0.0005853 -0.0000843 0.0002682 -0.0014156
0.0043027 0.0094236 -0.0000432 0.0014086 -0.0193776 0.0217018 -0.0008374 0.0016402 -0.0046945 0.0127689 0.0052889 -0.0128461 0.0003261 -0.0014502 0.0003121 0.0000804 0.0005910 -0.0000716 0.0002786 -0.0014206
0.0031921 0.0100011 -0.0080980 0.0125667 -0.0039887 0.0032646 -0.0007389 0.0013625 0.0034357 -0.0087811 0.0021913 -0.0046434 0.0002556 -0.0013297 0.0003102 0.0000990 0.0005948 -0.0000101 0.0002754 -0.0013610
0.0024591 -0.0017941 -0.0039904 0.0076873 0.0007951 0.0035505 -0.0049658 0.0124341 0.0048277 -0.0125197 0.0034600 -0.0079075 0.0003894 -0.0013922 0.0003153 0.0001249 0.0006015 0.0000105 0.0002761 -0.0014050
-0.0009923 0.0012261 0.0043812 0.0069404 0.0002745 0.0092595 -0.0040973 0.0099615 0.0014267 -0.0036193 0.0064024 -0.0156193 0.0004524 -0.0014343 0.0003259 0.0001124 0.0006012 -0.0000880 0.0002796 -0.0015402
-0.0055341 0.0079989 0.0037078 0.0069653 0.0026829 -0.0035852 0.0054190 -0.0153212 0.0042453 -0.0111500 0.0010696 -0.0015306 0.0002547 -0.0013368 0.0003324 0.0000876 0.0006017 -0.0001457 0.0002859 -0.0015641
-0.0033698 0.0076227 0.0047906 -0.0071655 0.0127289 -0.0277941 0.0127615 -0.0347642 0.0066099 -0.0174018 0.0026138 -0.0056105 0.0000446 -0.0012126 0.0003357 0.0000945 0.0006086 -0.0001153 0.0003130 -0.0014872
0.0052686 -0.0117720 0.0006179 -0.0007426 0.0102254 -0.0178085 -0.0028004 0.0064036 0.0042264 -0.0110745 0.0123766 -0.0314248 0.0000744 -0.0011635 0.0003325 0.0001277 0.0006095 -0.0000332 0.0003246 -0.0013259
0.0013749 0.0019857 -0.0026306 0.0054167 0.0054566 -0.0114262 -0.0058836 0.0146764 0.0054468 -0.0142718 0.0028740 -0.0062933 0.0001451 -0.0011378 0.0003361 0.0001457 0.0006001 -0.0000539 0.0003237 -0.0013478
-0.0014292 0.0113942 -0.0018125 0.0054714 -0.0003450 -0.0171015 0.0060739 -0.0169312 0.0079790 -0.0209964 -0.0043879 0.0128979 0.0002681 -0.0012586 0.0003461 0.0001217 0.0005901 -0.0001734 0.0003257 -0.0014804
0.0011230 0.0190939 0.0040043 -0.0103859 -0.0038459 -0.0115235 -0.0008042 0.0011885 0.0040557 -0.0106589 -0.0042924 0.0126043 0.0003674 -0.0013514 0.0003505 0.0001023 0.0005854 -0.0002065 0.0003343 -0.0014523
-0.0029881 0.0252706 0.0002753 0.0028068 -0.0038525 0.0041092 -0.0046509 0.0114003 0.0009570 -0.0024409 0.0030070 -0.0067197 0.0004574 -0.0013731 0.0003490 0.0001111 0.0005854 -0.0001504 0.0003413 -0.0013461
-0.0059453 0.0127443 -0.0015488 0.0112421 -0.0076213 0.0149812 0.0056159 -0.0156737 -0.0000944 0.0003746 0.0055957 -0.0135963 0.0004408 -0.0013378 0.0003426 0.0001375 0.0005825 -0.0000345 0.0003208 -0.0011623
-0.0109530 0.0195413 0.0004865 0.0203091 -0.0031557 0.0189535 0.0004540 -0.0019853 0.0026002 -0.0067351 0.0001626 0.0007869 0.0002010 -0.0010948 0.0003419 0.0001488 0.0005747 -0.0000155 0.0003038 -0.0011901
-0.0093349 0.0196152 -0.0029563 0.0250146 -0.0018028 0.0104832 0.0015518 -0.0049605 0.0082271 -0.0216424 -0.0030508 0.0093077 0.0001084 -0.0009969 0.0003453 0.0001240 0.0005723 -0.0000816 0.0003081 -0.0013627
0.0047871 0.0088990 -0.0050854 0.0101146 -0.0067597 0.0044547 0.0049806 -0.0140704 0.0100547 -0.0264904 -0.0014869 0.0051778 0.0001367 -0.0010174 0.0003428 0.0001075 0.0005739 -0.0000592 0.0002995 -0.0013768
0.0042655 0.0085236 -0.0135257 0.0200134 -0.0166134 0.0263817 -0.0000228 -0.0007767 0.0065265 -0.0171472 0.0033285 -0.0075307 0.0001510 -0.0009913 0.0003376 0.0001204 0.0005801 0.0000378 0.0002921 -0.0013093
0.0010245 0.0015488 -0.0099425 0.0181739 -0.0128447 0.0224301 0.0040297 -0.0114168 0.0029965 -0.0077860 -0.0017163 0.0058259 0.0003195 -0.0009857 0.0003294 0.0001526 0.0005843 0.0001820 0.0002781 -0.0011771
-0.0011830 -0.0005383 0.0044007 0.0092405 0.0077549 -0.0058120 0.0073577 -0.0202326 -0.0017239 0.0046658 -0.0026853 0.0084891 0.0006215 -0.0010536 0.0003275 0.0001590 0.0005883 0.0002143 0.0002484 -0.0012485
-0.0041449 0.0014450 0.0033562 0.0087692 0.0044394 0.0005636 -0.0014786 0.0029835 0.0003933 -0.0009886 0.0027845 -0.0058515 0.0005637 -0.0009766 0.0003321 0.0001312 0.0006012 0.0001858 0.0002362 -0.0014176
-0.0016225 0.0023513 0.0014216 -0.0013917 -0.0022612 -0.0025031 -0.0052045 0.0128281 -0.0012135 0.0032772 0.0063026 -0.0150712 0.0002054 -0.0007154 0.0003326 0.0001252 0.0006148 0.0002463 0.0002438 -0.0014149
0.0080214 -0.0197933 -0.0027093 0.0013698 0.0063643 -0.0276848 0.0016993 -0.0052898 -0.0056417 0.0150292 0.0030648 -0.0064292 -0.0000386 -0.0004409 0.0003273 0.0001509 0.0006252 0.0003619 0.0002310 -0.0012970
0.0057992 -0.0082735 -0.0059272 0.0054131 -0.0050336 -0.0062093 0.0084443 -0.0229960 0.0006793 -0.0016267 -0.0006466 0.0034489 0.0000959 -0.0003774 0.0003157 0.0001955 0.0006267 0.0005069 0.0002286 -0.0011157
0.0001197 0.0091748 -0.0021914 0.0035955 -0.0056056 0.0064372 0.0026123 -0.0075128 0.0059924 -0.0156512 -0.0013457 0.0053632 0.0002858 -0.0005011 0.0003184 0.0001933 0.0006170 0.0004635 0.0002483 -0.0012093
0.0011293 0.0177984 0.0069364 -0.0187094 -0.0001685 0.0044481 0.0008483 -0.0028973 -0.0021355 0.0057912 -0.0041112 0.0127181 0.0002345 -0.0004640 0.0003279 0.0001566 0.0006123 0.0003429 0.0002396 -0.0013688
-0.0029513 0.0233253 0.0033824 -0.0035025 0.0030033 0.0021582 -0.0029604 0.0071328 -0.0019647 0.0053351 -0.0048923 0.0147940 0.0004366 -0.0005441 0.0003265 0.0001532 0.0006155 0.0003519 0.0002213 -0.0013073
-0.0063811 0.0123617 -0.0001224 0.0096129 0.0021795 0.0066274 -0.0019166 0.0044148 -0.0026332 0.0071402 0.0024603 -0.0046349 0.0004987 -0.0005775 0.0003233 0.0001750 0.0006171 0.0004237 0.0002194 -0.0011751
-0.0074927 0.0159963 0.0010063 0.0194644 -0.0020685 0.0189715 0.0101640 -0.0274193 -0.0013364 0.0037556 0.0051761 -0.0118177 0.0003866 -0.0004179 0.0003138 0.0002120 0.0006140 0.0005418 0.0002187 -0.0009981
-0.0069125 0.0176756 -0.0032390 0.0250610 -0.0061118 0.0254212 0.0053645 -0.0147426 0.0045244 -0.0117435 0.0036448 -0.0077200 0.0003113 -0.0002914 0.0003129 0.0002057 0.0006104 0.0005060 0.0002025 -0.0010967
0.0053588 0.0063945 -0.0058198 0.0118209 -0.0023566 0.0080173 -0.0012845 0.0026839 0.0039985 -0.0104170 0.0042477 -0.0092374 0.0001317 -0.0002302 0.0003206 0.0001680 0.0006117 0.0004057 0.0002071 -0.0012939
0.0049568 0.0051707 -0.0093540 0.0187109 -0.0000777 -0.0142359 -0.0052382 0.0131142 0.0054964 -0.0143889 0.0016719 -0.0023872 0.0001427 -0.0002199 0.0003235 0.0001628 0.0006201 0.0004341 0.0002141 -0.0012579
-0.0009502 0.0041388 -0.0083591 0.0196528 -0.0047313 -0.0023665 -0.0034635 0.0084930 -0.0003208 0.0010241 0.0027400 -0.0051762 0.0003368 -0.0002674 0.0003211 0.0001817 0.0006278 0.0005193 0.0002242 -0.0011358
0.0000788 -0.0023882 0.0047507 0.0093692 0.0121567 -0.0138694 0.0099089 -0.0267605 0.0018103 -0.0045633 0.0044965 -0.0097987 0.0005604 -0.0002955 0.0003140 0.0002209 0.0006299 0.0006482 0.0002321 -0.0009899
-0.0018519 -0.0054527 0.0035571 0.0090620 0.0143906 -0.0185364 0.0013530 -0.0041683 0.0102496 -0.0268961 0.0052548 -0.0117109 0.0005859 -0.0002843 0.0003186 0.0002132 0.0006339 0.0006238 0.0002078 -0.0010935
-0.0019287 0.0002611 -0.0008032 0.0045104 0.0010430 -0.0011740 -0.0084015 0.0214543 0.0056996 -0.0149353 0.0075485 -0.0176863 0.0003627 -0.0002533 0.0003291 0.0001746 0.0006387 0.0005294 0.0002079 -0.0012362
0.0075883 -0.0156083 -0.0003774 -0.0000755 -0.0003955 -0.0058934 -0.0052425 0.0130550 0.0052133 -0.0136574 0.0033930 -0.0066938 0.0002723 -0.0001693 0.0003292 0.0001712 0.0006438 0.0005546 0.0002218 -0.0011540
0.0091863 -0.0138670 -0.0039526 0.0020476 -0.0001452 -0.0118166 0.0001495 -0.0011757 0.0096488 -0.0253746 0.0017721 -0.0024155 0.0001842 -0.0000614 0.0003203 0.0001901 0.0006424 0.0006343 0.0002214 -0.0009891
0.0032254 0.0015741 -0.0020768 0.0035904 0.0002404 -0.0143162 -0.0055816 0.0140413 0.0036028 -0.0093770 0.0010554 -0.0005510 0.0001292 -0.0000029 0.0003110 0.0002197 0.0006397 0.0007402 0.0002276 -0.0008917
0.0025895 0.0115546 0.0079368 -0.0187268 -0.0025810 -0.0150622 -0.0100334 0.0257844 -0.0072511 0.0192944 -0.0022505 0.0082329 0.0002970 -0.0000807 0.0003133 0.0001978 0.0006408 0.0007125 0.0002219 -0.0010163
-0.0009845 0.0168298 0.0055958 -0.0075371 -0.0018916 0.0073531 -0.0051460 0.0128663 -0.0072753 0.0193793 0.0044159 -0.0093203 0.0005117 -0.0002339 0.0003195 0.0001661 0.0006395 0.0006513 0.0002039 -0.0011053
-0.0040276 0.0084554 0.0009934 0.0063372 0.0061467 -0.0016207 -0.0000721 -0.0004595 0.0000598 0.0000446 0.0099588 -0.0239265 0.0005193 -0.0002441 0.0003172 0.0001751 0.0006463 0.0007087 0.0001948 -0.0010621
-0.0040960 0.0117009 0.0011318 0.0163202 0.0106601 -0.0144109 0.0024538 -0.0070951 0.0029141 -0.0074627 0.0098385 -0.0235540 0.0003823 -0.0001028 0.0003123 0.0001957 0.0006533 0.0008027 0.0001806 -0.0009256
-0.0046918 0.0151219 -0.0033303 0.0231555 -0.0007652 0.0048521 0.0077309 -0.0209876 0.0052870 -0.0137131 -0.0004359 0.0036814 0.0003005 -0.0000095 0.0003136 0.0002011 0.0006547 0.0007950 0.0001745 -0.0009752
0.0050396 0.0048414 -0.0060012 0.0110817 -0.0037322 -0.0001224 -0.0010231 0.0020549 0.0023519 -0.0060032 0.0011527 -0.0004147 0.0001474 0.0000073 0.0003197 0.0001746 0.0006641 0.0007334 0.0001862 -0.0011561
0.0041856 0.0042448 -0.0075771 0.0161493 0.0049684 -0.0114653 -0.0014555 0.0031877 -0.0029410 0.0079792 0.0097272 -0.0230284 0.0000183 0.0000700 0.0003222 0.0001659 0.0006745 0.0007547 0.0001912 -0.0011367
-0.0018436 0.0051876 -0.0072181 0.0186479 -0.0042683 -0.0010532 -0.0024340 0.0058110 -0.0018379 0.0050778 -0.0008680 0.0050385 0.0002388 0.0000265 0.0003183 0.0001893 0.0006858 0.0008374 0.0002090 -0.0010333
0.0008476 -0.0049713 0.0043557 0.0081810 0.0002922 -0.0000830 0.0004161 -0.0016570 -0.0015370 0.0043305 0.0031859 -0.0056161 0.0004974 -0.0001027 0.0003191 0.0002258 0.0006895 0.0008830 0.0002266 -0.0009973
-0.0006934 -0.0087570 0.0036769 0.0074369 0.0007827 0.0039124 0.0067726 -0.0185113 0.0015143 -0.0037575 0.0114814 -0.0275102 0.0004543 -0.0001392 0.0003272 0.0002012 0.0006861 0.0007836 0.0002181 -0.0011314
-0.0011479 -0.0008709 -0.0004876 0.0030252 -0.0075214 0.0083374 0.0021170 -0.0063847 0.0011804 -0.0029179 0.0000476 0.0027038 0.0003325 -0.0001476 0.0003370 0.0001595 0.0006879 0.0006894 0.0002307 -0.0011986
0.0064453 -0.0123741 0.0000138 -0.0037935 -0.0138100 0.0111897 -0.0008996 0.0016565 -0.0014678 0.0041966 -0.0000188 0.0027718 0.0001557 -0.0000471 0.0003455 0.0001538 0.0006882 0.0006938 0.0002463 -0.0011230
0.0092604 -0.0145964 -0.0032199 -0.0026895 -0.0215855 0.0238182 -0.0015771 0.0034699 0.0012108 -0.0028147 0.0099389 -0.0236332 0.0000954 -0.0000359 0.0003404 0.0001607 0.0006876 0.0007693 0.0002493 -0.0009874
0.0029088 -0.0001166 -0.0018972 0.0014001 -0.0077608 0.0111552 -0.0006198 0.0008754 -0.0051817 0.0140127 0.0034349 -0.0064256 0.0001149 -0.0001375 0.0003409 0.0001527 0.0006855 0.0007264 0.0002542 -0.0010714
0.0020381 0.0096716 0.0079645 -0.0189677 0.0105482 -0.0142007 0.0001458 -0.0012914 -0.0030232 0.0080634 0.0038103 -0.0073592 0.0001227 -0.0001786 0.0003468 0.0001099 0.0006964 0.0006328 0.0002627 -0.0012685
-0.0006744 0.0143085 0.0064924 -0.0089915 0.0115799 -0.0095148 -0.0035946 0.0086023 0.0007193 -0.0019490 0.0164681 -0.0407516 0.0004379 -0.0004080 0.0003462 0.0000857 0.0007101 0.0006441 0.0002697 -0.0012312
-0.0042585 0.0089353 0.0006092 0.0065348 0.0053143 -0.0016731 -0.0019342 0.0044728 -0.0002622 0.0007748 0.0130805 -0.0317863 0.0006053 -0.0005366 0.0003444 0.0000926 0.0007137 0.0006882 0.0002715 -0.0010989
-0.0029571 0.0097640 0.0004755 0.0150726 0.0070196 -0.0030679 0.0055680 -0.0151123 -0.0034386 0.0092747 0.0021954 -0.0030142 0.0004973 -0.0003978 0.0003452 0.0001026 0.0007132 0.0006998 0.0002697 -0.0011112
-0.0032312 0.0116945 -0.0033005 0.0210100 0.0004854 0.0032520 0.0051944 -0.0140891 -0.0044788 0.0120390 0.0020999 -0.0027483 0.0003137 -0.0003023 0.0003505 0.0000697 0.0007122 0.0006323 0.0002667 -0.0012643
0.0053338 0.0033872 -0.0054507 0.0100272 -0.0046518 -0.0027312 0.0029255 -0.0081265 0.0002658 -0.0004981 0.0075889 -0.0172607 0.0001201 -0.0002995 0.0003531 0.0000446 0.0007155 0.0006081 0.0002677 -0.0012639
0.0040529 0.0045689 -0.0057283 0.0123036 -0.0041673 0.0073740 -0.0023759 0.0059763 0.0032933 -0.0084651 0.0021978 -0.0030388 0.0000524 -0.0002514 0.0003521 0.0000582 0.0007178 0.0006516 0.0002768 -0.0011411
-0.0028942 0.0074484 -0.0056395 0.0156231 -0.0094426 0.0210032 -0.0036607 0.0094953 -0.0028846 0.0079030 0.0025222 -0.0039409 0.0002439 -0.0003078 0.0003472 0.0000908 0.0007143 0.0007425 0.0002893 -0.0010127
0.0019774 -0.0061388 0.0049801 0.0065870 0.0038501 0.0055430 -0.0052399 0.0137320 -0.0061142 0.0164507 0.0071094 -0.0160456 0.0005277 -0.0005342 0.0003509 0.0000881 0.0007105 0.0007105 0.0002841 -0.0011039
0.0024861 -0.0147034 0.0039893 0.0054950 0.0032990 -0.0003111 -0.0046476 0.0120586 -0.0011191 0.0031939 0.0067408 -0.0150247 0.0004567 -0.0005277 0.0003602 0.0000535 0.0007151 0.0006313 0.0002788 -0.0012504
-0.0002203 -0.0037267 -0.0011491 0.0027571 -0.0039820 -0.0033152 0.0008812 -0.0026353 0.0040881 -0.0105944 0.0073757 -0.0166858 0.0003584 -0.0004384 0.0003622 0.0000454 0.0007219 0.0006533 0.0002661 -0.0011845
0.0058038 -0.0101754 0.0004732 -0.0043993 -0.0089516 -0.0030282 -0.0040022 0.0103365 0.0050083 -0.0129963 0.0109088 -0.0260241 0.0003255 -0.0004093 0.0003579 0.0000571 0.0007235 0.0007075 0.0002602 -0.0010497
0.0077493 -0.0099975 -0.0025563 -0.0037694 -0.0161127 -0.0065369 -0.0045493 0.0119372 0.0039945 -0.0102799 0.0024160 -0.0035733 0.0002911 -0.0003929 0.0003621 0.0000498 0.0007202 0.0006561 0.0002622 -0.0011151
0.0027351 0.0008402 -0.0014836 -0.0005760 -0.0101419 -0.0013544 -0.0039349 0.0102884 0.0089507 -0.0234195 0.0011466 -0.0002166 0.0002077 -0.0003794 0.0003724 0.0000071 0.0007222 0.0005437 0.0002748 -0.0012853
0.0020096 0.0088014 0.0084984 -0.0198746 0.0002458 -0.0025317 -0.0019940 0.0050952 0.0023251 -0.0059462 0.0119354 -0.0287510 0.0002911 -0.0004713 0.0003755 -0.0000187 0.0007304 0.0005347 0.0002938 -0.0012897
-0.0002124 0.0120048 0.0075935 -0.0117420 0.0039469 -0.0023538 0.0028114 -0.0075511 0.0033027 -0.0085209 0.0101528 -0.0240532 0.0006250 -0.0006564 0.0003731 -0.0000128 0.0007456 0.0005978 0.0002822 -0.0012112
-0.0031958 0.0067691 0.0022264 0.0020944 0.0018060 -0.0022956 -0.0035710 0.0093706 0.0054512 -0.0141731 0.0000205 0.0027587 0.0007159 -0.0006786 0.0003774 -0.0000065 0.0007562 0.0006175 0.0002742 -0.0012555
-0.0025264 0.0086446 0.0013325 0.0131311 0.0042923 -0.0006230 -0.0024842 0.0064100 0.0018207 -0.0046371 -0.0043121 0.0142649 0.0006389 -0.0006640 0.0003893 -0.0000507 0.0007645 0.0005360 0.0002670 -0.0014273
-0.0030274 0.0113431 -0.0027742 0.0196848 -0.0020014 0.0138168 0.0006178 -0.0020034 0.0023385 -0.0061064 -0.0034058 0.0118929 0.0005211 -0.0006489 0.0003999 -0.0001078 0.0007804 0.0004806 0.0002861 -0.0014877
0.0053781 0.0025124 -0.0052196 0.0097026 -0.0074966 0.0055661 -0.0015687 0.0037246 0.0017694 -0.0046308 0.0017982 -0.0018489 0.0002522 -0.0004972 0.0004038 -0.0001272 0.0007927 0.0005042 0.0003170 -0.0014458
0.0050064 -0.0001851 -0.0064727 0.0139476 -0.0291653 0.0253388 -0.0012588 0.0029382 0.0079505 -0.0209765 0.0012413 -0.0003698 0.0001380 -0.0003672 0.0004000 -0.0001196 0.0007987 0.0005846 0.0003199 -0.0013364
-0.0021537 0.0032324 -0.0062630 0.0157134 -0.0242354 0.0310683 0.0034532 -0.0095570 0.0034933 -0.0092511 -0.0010670 0.0057670 0.0004667 -0.0005613 0.0004075 -0.0001502 0.0008020 0.0005244 0.0003314 -0.0014390
0.0020984 -0.0089003 0.0048722 0.0055244 -0.0022728 0.0119565 -0.0013546 0.0030471 -0.0031854 0.0083149 0.0008475 0.0007186 0.0006807 -0.0007771 0.0004194 -0.0002106 0.0008090 0.0004002 0.0003342 -0.0016132
0.0005970 -0.0140163 0.0044855 0.0036545 -0.0038775 0.0173677 -0.0056665 0.0143751 -0.0011101 0.0027966 0.0055359 -0.0116761 0.0005926 -0.0007445 0.0004244 -0.0002432 0.0008241 0.0004101 0.0003235 -0.0015653
-0.0007299 -0.0030231 -0.0011232 0.0029127 -0.0095896 0.0211523 0.0004868 -0.0018847 -0.0023483 0.0060605 0.0049661 -0.0101576 0.0005177 -0.0006730 0.0004234 -0.0002508 0.0008352 0.0004881 0.0003332 -0.0014527
0.0057882 -0.0105028 0.0002370 -0.0040642 -0.0015972 -0.0017921 0.0019922 -0.0058030 0.0016136 -0.0044036 0.0033331 -0.0057965 0.0004660 -0.0005435 0.0004255 -0.0002354 0.0008424 0.0005507 0.0003373 -0.0014318
0.0071249 -0.0101639 -0.0012344 -0.0080819 0.0057903 -0.0251521 0.0025080 -0.0072016 0.0129421 -0.0343762 0.0050476 -0.0102913 0.0004852 -0.0005540 0.0004376 -0.0002584 0.0008436 0.0004885 0.0003356 -0.0015194
0.0025696 0.0000341 -0.0009580 -0.0018796 -0.0005649 -0.0007408 0.0028021 -0.0080408 0.0072220 -0.0193238 0.0002162 0.0024518 0.0003990 -0.0005485 0.0004446 -0.0002926 0.0008413 0.0004253 0.0003541 -0.0015428
0.0018346 0.0086970 0.0079764 -0.0197410 0.0023070 -0.0017136 0.0054654 -0.0150953 0.0032681 -0.0089121 0.0038395 -0.0071486 0.0003207 -0.0004970 0.0004437 -0.0002893 0.0008436 0.0004627 0.0003753 -0.0014640
-0.0002967 0.0119801 0.0070137 -0.0107763 0.0118792 -0.0188579 0.0238294 -0.0635731 0.0067779 -0.0181876 0.0196247 -0.0488865 0.0006479 -0.0006750 0.0004393 -0.0002679 0.0008438 0.0005478 0.0003612 -0.0013192
-0.0023876 0.0058558 0.0009363 0.0056914 0.0029099 0.0008586 0.0227029 -0.0606369 -0.0003123 0.0004877 0.0128090 -0.0308146 0.0008282 -0.0007333 0.0004417 -0.0002776 0.0008470 0.0005383 0.0003375 -0.0013903
-0.0030569 0.0103310 0.0009839 0.0144307 -0.0008244 0.0158247 0.0009290 -0.0033243 -0.0055166 0.0141222 0.0038564 -0.0070715 0.0006954 -0.0006593 0.0004480 -0.0003119 0.0008560 0.0004733 0.0003202 -0.0015145
-0.0041257 0.0131237 -0.0024284 0.0195724 -0.0038858 0.0195062 -0.0032630 0.0076176 -0.0028716 0.0070867 0.0070581 -0.0154548 0.0006095 -0.0005409 0.0004515 -0.0003195 0.0008771 0.0005142 0.0003220 -0.0014645
0.0054234 0.0031403 -0.0050035 0.0093372 -0.0162761 0.0271485 0.0053773 -0.0151868 -0.0042008 0.0106151 0.0113765 -0.0267517 0.0003580 -0.0002253 0.0004501 -0.0003005 0.0008988 0.0006396 0.0003543 -0.0013721
0.0045718 0.0025945 -0.0070667 0.0148841 -0.0087308 0.0193852 -0.0039361 0.0095100 -0.0034663 0.0087004 0.0033676 -0.0054174 0.0002406 0.0000320 0.0004525 -0.0002706 0.0009176 0.0007235 0.0003610 -0.0013851
-0.0014218 0.0038200 -0.0064958 0.0160322 -0.0103165 0.0160408 -0.0023866 0.0053560 -0.0005457 0.0009273 0.0001590 0.0032463 0.0005381 -0.0000552 0.0004599 -0.0002897 0.0009374 0.0006791 0.0003493 -0.0015374
0.0014140 -0.0056336 0.0052727 0.0055297 -0.0013804 0.0085328 0.0126682 -0.0345459 0.0068546 -0.0187139 0.0003210 0.0029320 0.0008829 -0.0001648 0.0004632 -0.0003158 0.0009497 0.0006557 0.0003414 -0.0015789
-0.0014553 -0.0077967 0.0036519 0.0069988 0.0074576 -0.0005560 0.0029251 -0.0088275 0.0196432 -0.0525194 0.0040723 -0.0069322 0.0009823 -0.0000756 0.0004663 -0.0003023 0.0009554 0.0007055 0.0003386 -0.0014889
