-0.0000000 -0.0000000 -0.0000000 -0.0000000 -0.0000000 -0.0000000 -0.0000000 -0.0000000 -0.0000000 -0.0000000 -0.0000000 -0.0000000 -0.0000000 -0.0000000 -0.0000000 -0.0000000 -0.0000000 -0.0000000 -0.0000000 -0.0000000
-0.0000000 -0.0000000 -0.0000000 -0.0000000 -0.0000000 -0.0000000 -0.0000000 -0.0000000 -0.0000000 -0.0000000 -0.0000000 -0.0000000 -0.0000000 -0.0000000 -0.0000000 -0.0000000 -0.0000000 -0.0000000 -0.0000000 -0.0000000
0.0000026 0.0000350 -0.0000082 0.0000210 -0.0000092 0.0000178 -0.0000089 0.0000707 -0.0000082 0.0000764 0.0000064 0.0000852 0.0000056 0.0001035 -0.0000003 0.0000911 -0.0000018 0.0000840 0.0000010 0.0001321
-0.0000134 0.0001198 -0.0000081 0.0000551 -0.0000196 0.0000842 -0.0000439 0.0001964 -0.0000278 0.0002093 -0.0000059 0.0002386 -0.0000099 0.0002602 -0.0000089 0.0002270 0.0000043 0.0001961 -0.0000028 0.0002871
-0.0000652 0.0002461 -0.0000251 0.0001202 -0.0000357 0.0001700 -0.0000858 0.0003258 -0.0000590 0.0003400 -0.0000327 0.0003909 -0.0000426 0.0004129 -0.0000246 0.0003749 -0.0000015 0.0002997 -0.0000194 0.0004448
-0.0001424 0.0004243 -0.0000452 0.0002229 -0.0000535 0.0002771 -0.0001420 0.0004661 -0.0000971 0.0004788 -0.0000646 0.0005365 -0.0000859 0.0005477 -0.0000429 0.0004234 -0.0000188 0.0003336 -0.0000493 0.0003568
-0.0001521 0.0003769 -0.0000448 0.0001812 -0.0000660 0.0002096 -0.0001868 0.0004055 -0.0001276 0.0003346 -0.0000996 0.0003402 -0.0001209 0.0002897 -0.0000609 0.0000943 -0.0000452 0.0000626 -0.0000734 -0.0000758
-0.0001361 0.0000837 -0.0000453 0.0000054 -0.0000744 -0.0000481 -0.0001991 0.0000981 -0.0001360 -0.0000227 -0.0001108 -0.0000609 -0.0001126 -0.0001318 -0.0000579 -0.0002474 -0.0000565 -0.0002074 -0.0000533 -0.0002739
-0.0000976 -0.0000954 -0.0000348 -0.0001103 -0.0000761 -0.0001562 -0.0001807 -0.0000308 -0.0001258 -0.0000752 -0.0000816 -0.0000937 -0.0000635 -0.0001276 -0.0000309 -0.0001994 -0.0000311 -0.0001622 -0.0000199 -0.0001524
-0.0000411 -0.0000785 -0.0000176 -0.0001169 -0.0000697 -0.0001025 -0.0001599 0.0000711 -0.0001144 0.0000505 -0.0000503 0.0000393 -0.0000299 0.0000323 -0.0000151 -0.0000437 -0.0000046 -0.0000416 -0.0000125 0.0000690
-0.0000199 0.0000266 -0.0000298 0.0000020 -0.0000705 0.0000183 -0.0001709 0.0002356 -0.0001218 0.0002249 -0.0000468 0.0002314 -0.0000322 0.0002524 -0.0000193 0.0001714 -0.0000155 0.0001390 -0.0000156 0.0003309
-0.0000445 0.0002047 -0.0000458 0.0001388 -0.0000743 0.0001438 -0.0002055 0.0003838 -0.0001397 0.0002968 -0.0000672 0.0002688 -0.0000652 0.0002334 -0.0000357 0.0000522 -0.0000380 0.0000392 -0.0000472 0.0001136
-0.0000498 0.0000833 -0.0000455 0.0000339 -0.0000779 -0.0000102 -0.0002250 0.0002077 -0.0001529 0.0000640 -0.0000843 0.0000096 -0.0000799 -0.0000819 -0.0000390 -0.0002990 -0.0000446 -0.0002281 -0.0000498 -0.0002777
-0.0000559 -0.0001699 -0.0000433 -0.0001437 -0.0000765 -0.0002467 -0.0002159 -0.0000505 -0.0001502 -0.0001549 -0.0000655 -0.0001679 -0.0000413 -0.0002378 -0.0000156 -0.0003668 -0.0000001 -0.0002883 -0.0000050 -0.0002402
-0.0000545 -0.0002028 -0.0000360 -0.0001517 -0.0000597 -0.0002326 -0.0001883 -0.0000241 -0.0001353 -0.0001119 -0.0000248 -0.0000742 0.0000062 -0.0001326 0.0000114 -0.0002395 0.0000405 -0.0001973 0.0000265 -0.0000660
-0.0000800 -0.0000992 -0.0000168 -0.0001067 -0.0000431 -0.0001342 -0.0001629 0.0000893 -0.0001249 0.0000330 -0.0000003 0.0001216 0.0000243 0.0000608 0.0000226 -0.0000250 0.0000177 0.0000286 0.0000378 0.0001985
-0.0001070 0.0000574 -0.0000203 -0.0000159 -0.0000495 0.0000088 -0.0001665 0.0002395 -0.0001237 0.0002705 0.0000051 0.0003863 0.0000056 0.0002716 0.0000182 0.0001384 0.0000024 0.0001552 0.0000154 0.0002176
-0.0000892 0.0000319 -0.0000212 -0.0000488 -0.0000539 -0.0000352 -0.0001886 0.0001671 -0.0001189 0.0001953 -0.0000044 0.0002533 -0.0000298 0.0000194 0.0000064 -0.0001406 0.0000003 -0.0001160 0.0000018 -0.0001321
-0.0000416 -0.0002462 0.0000046 -0.0002472 -0.0000486 -0.0002808 -0.0001899 -0.0001852 -0.0000948 -0.0001425 0.0000020 -0.0001353 -0.0000251 -0.0004404 0.0000148 -0.0005076 -0.0000043 -0.0004080 0.0000418 -0.0003097
0.0000383 -0.0005216 0.0000109 -0.0003643 -0.0000336 -0.0004067 -0.0001617 -0.0003768 -0.0000577 -0.0002305 0.0000428 -0.0001991 0.0000249 -0.0005022 0.0000446 -0.0004868 0.0000125 -0.0003707 0.0000909 -0.0002010
0.0000874 -0.0005775 0.0000019 -0.0003230 -0.0000092 -0.0003524 -0.0001282 -0.0003148 -0.0000303 -0.0001294 0.0000799 -0.0000711 0.0000567 -0.0003670 0.0000631 -0.0003279 0.0000438 -0.0002405 0.0001011 -0.0000086
0.0000386 -0.0004347 0.0000177 -0.0002588 0.0000059 -0.0002149 -0.0001187 -0.0001539 -0.0000232 0.0000643 0.0000894 0.0001272 0.0000558 -0.0001405 0.0000598 -0.0000885 0.0000289 -0.0000209 0.0000974 0.0002480
-0.0000280 -0.0002164 0.0000232 -0.0001803 0.0000102 -0.0001162 -0.0001201 -0.0000307 -0.0000271 0.0001275 0.0000718 0.0000619 0.0000272 -0.0002406 0.0000397 -0.0002749 0.0000073 -0.0001891 0.0000738 -0.0000429
-0.0000318 -0.0003509 0.0000268 -0.0003086 0.0000019 -0.0003084 -0.0001109 -0.0002432 -0.0000304 -0.0001432 0.0000498 -0.0003317 0.0000216 -0.0006572 0.0000334 -0.0007025 0.0000226 -0.0005629 0.0000864 -0.0004977
-0.0000050 -0.0005992 0.0000363 -0.0004747 -0.0000021 -0.0005463 -0.0000619 -0.0004996 -0.0000195 -0.0003729 0.0000722 -0.0005517 0.0000756 -0.0008210 0.0000556 -0.0007703 0.0000332 -0.0005922 0.0001400 -0.0004762
0.0000544 -0.0006510 0.0000311 -0.0004373 0.0000084 -0.0005417 0.0000062 -0.0004731 -0.0000003 -0.0003605 0.0001139 -0.0004782 0.0001301 -0.0007003 0.0000762 -0.0006313 0.0000571 -0.0004727 0.0001598 -0.0002841
0.0000868 -0.0005788 0.0000315 -0.0003725 0.0000116 -0.0004388 0.0000496 -0.0003307 0.0000054 -0.0002503 0.0001319 -0.0002921 0.0001418 -0.0004731 0.0000784 -0.0004006 0.0000687 -0.0002577 0.0001563 -0.0000019
0.0000825 -0.0003938 0.0000117 -0.0002461 0.0000018 -0.0002855 0.0000451 -0.0001215 -0.0000087 -0.0000921 0.0001219 -0.0000597 0.0001192 -0.0002178 0.0000645 -0.0001443 0.0000409 -0.0000124 0.0001429 0.0002140
0.0000791 -0.0002761 -0.0000119 -0.0001638 -0.0000064 -0.0002387 0.0000133 -0.0000457 -0.0000291 -0.0001644 0.0000880 -0.0001480 0.0000706 -0.0003635 0.0000422 -0.0003480 0.0000187 -0.0001831 0.0001153 -0.0000976
0.0000436 -0.0004361 0.0000088 -0.0003300 -0.0000121 -0.0004354 -0.0000079 -0.0003004 -0.0000372 -0.0004981 0.0000677 -0.0005340 0.0000538 -0.0007929 0.0000359 -0.0007590 0.0000182 -0.0005210 0.0001121 -0.0004879
0.0000250 -0.0006806 0.0000443 -0.0005014 -0.0000075 -0.0006163 0.0000102 -0.0005358 -0.0000285 -0.0006774 0.0000923 -0.0006921 0.0000888 -0.0009072 0.0000511 -0.0007789 0.0000390 -0.0005272 0.0001461 -0.0004262
0.0000454 -0.0007500 0.0000555 -0.0004942 0.0000094 -0.0005859 0.0000608 -0.0005016 -0.0000113 -0.0006300 0.0001281 -0.0005993 0.0001241 -0.0007727 0.0000643 -0.0006340 0.0000420 -0.0003757 0.0001640 -0.0002610
0.0000159 -0.0006684 0.0000194 -0.0003766 0.0000147 -0.0004518 0.0000888 -0.0003644 -0.0000129 -0.0004950 0.0001367 -0.0004166 0.0001306 -0.0005530 0.0000625 -0.0004044 0.0000468 -0.0001558 0.0001569 -0.0000157
-0.0000209 -0.0005010 -0.0000112 -0.0002912 0.0000125 -0.0003469 0.0000857 -0.0002766 -0.0000310 -0.0004885 0.0001161 -0.0004508 0.0001036 -0.0006461 0.0000469 -0.0005504 0.0000471 -0.0002979 0.0001267 -0.0002576
0.0000208 -0.0006982 -0.0000091 -0.0004194 0.0000081 -0.0005113 0.0000782 -0.0005046 -0.0000378 -0.0007451 0.0000973 -0.0007695 0.0000974 -0.0010155 0.0000503 -0.0008804 0.0000444 -0.0005968 0.0001399 -0.0006141
0.0000985 -0.0009730 0.0000182 -0.0005729 0.0000117 -0.0006898 0.0000916 -0.0007184 -0.0000178 -0.0008962 0.0001185 -0.0009309 0.0001445 -0.0011410 0.0000782 -0.0008926 0.0000550 -0.0006111 0.0001861 -0.0005374
0.0001472 -0.0009681 0.0000477 -0.0005834 0.0000291 -0.0006466 0.0001234 -0.0006368 0.0000117 -0.0008085 0.0001576 -0.0008347 0.0001930 -0.0010041 0.0001012 -0.0007357 0.0000675 -0.0004675 0.0001971 -0.0003356
0.0001435 -0.0008680 0.0000470 -0.0004860 0.0000472 -0.0005142 0.0001520 -0.0004799 0.0000164 -0.0006953 0.0001689 -0.0006694 0.0002065 -0.0007629 0.0001108 -0.0004794 0.0000782 -0.0002533 0.0001849 -0.0000560
0.0000692 -0.0006445 0.0000398 -0.0003360 0.0000582 -0.0003224 0.0001426 -0.0003017 -0.0000123 -0.0006260 0.0001456 -0.0005938 0.0001805 -0.0007038 0.0001042 -0.0005192 0.0000566 -0.0003034 0.0001547 -0.0002535
0.0000382 -0.0006950 0.0000383 -0.0004225 0.0000595 -0.0004332 0.0001164 -0.0004989 -0.0000352 -0.0008897 0.0001168 -0.0009383 0.0001571 -0.0010692 0.0000952 -0.0008747 0.0000284 -0.0005936 0.0001485 -0.0006828
0.0000320 -0.0009273 0.0000479 -0.0006446 0.0000656 -0.0007260 0.0001378 -0.0009000 -0.0000153 -0.0012308 0.0001292 -0.0013268 0.0001989 -0.0013791 0.0001148 -0.0010205 0.0000393 -0.0007193 0.0001846 -0.0007236
0.0000516 -0.0009928 0.0000421 -0.0006801 0.0000817 -0.0007731 0.0002104 -0.0009579 0.0000298 -0.0012031 0.0001821 -0.0013096 0.0002678 -0.0013018 0.0001471 -0.0008941 0.0000675 -0.0006379 0.0002182 -0.0005493
0.0001111 -0.0009094 0.0000583 -0.0006208 0.0000969 -0.0006517 0.0002661 -0.0007835 0.0000676 -0.0009759 0.0002152 -0.0011359 0.0002991 -0.0010884 0.0001576 -0.0006645 0.0000689 -0.0004506 0.0002261 -0.0002780
0.0001408 -0.0007013 0.0000682 -0.0004704 0.0000948 -0.0004624 0.0002655 -0.0005819 0.0000728 -0.0007216 0.0002034 -0.0009164 0.0002809 -0.0008426 0.0001477 -0.0004070 0.0000632 -0.0002369 0.0002125 0.0000089
0.0001493 -0.0005098 0.0000412 -0.0002836 0.0000798 -0.0002803 0.0002163 -0.0004116 0.0000471 -0.0005150 0.0001627 -0.0006980 0.0002312 -0.0005920 0.0001220 -0.0001277 0.0000473 -0.0000187 0.0001892 0.0003054
0.0001367 -0.0003256 0.0000128 -0.0001350 0.0000598 -0.0000991 0.0001534 -0.0002052 0.0000098 -0.0002936 0.0001149 -0.0004462 0.0001751 -0.0002983 0.0000850 0.0001797 0.0000198 0.0002264 0.0001567 0.0006180
0.0000392 -0.0000331 -0.0000178 0.0000393 0.0000379 0.0000867 0.0000795 0.0000339 -0.0000274 -0.0001199 0.0000677 -0.0003232 0.0001051 -0.0002480 0.0000372 0.0000560 -0.0000124 0.0001216 0.0000923 0.0003192
-0.0000464 -0.0001268 -0.0000247 -0.0000644 0.0000202 -0.0000934 0.0000265 -0.0001517 -0.0000585 -0.0003885 0.0000178 -0.0006971 0.0000419 -0.0006651 -0.0000076 -0.0004281 -0.0000554 -0.0002510 0.0000528 -0.0002513
-0.0000635 -0.0005136 -0.0000174 -0.0003375 0.0000114 -0.0004416 0.0000225 -0.0005744 -0.0000623 -0.0007795 0.0000042 -0.0011054 0.0000348 -0.0009898 -0.0000205 -0.0006094 -0.0000660 -0.0003807 0.0000618 -0.0002958
-0.0000932 -0.0005672 -0.0000160 -0.0004025 0.0000083 -0.0004756 0.0000414 -0.0006397 -0.0000520 -0.0007800 0.0000223 -0.0010767 0.0000546 -0.0009198 -0.0000137 -0.0005028 -0.0000606 -0.0002861 0.0000619 -0.0001365
-0.0000936 -0.0004840 -0.0000143 -0.0003507 0.0000099 -0.0003578 0.0000559 -0.0004940 -0.0000522 -0.0006292 0.0000223 -0.0008763 0.0000570 -0.0007059 -0.0000167 -0.0002866 -0.0000670 -0.0001061 0.0000482 0.0001168
-0.0001031 -0.0003314 -0.0000427 -0.0002197 0.0000061 -0.0001848 0.0000303 -0.0002810 -0.0000753 -0.0004275 -0.0000004 -0.0006144 0.0000349 -0.0004672 -0.0000280 -0.0001488 -0.0000598 -0.0000138 0.0000207 0.0001235
-0.0001087 -0.0003146 -0.0000480 -0.0002349 -0.0000006 -0.0001999 -0.0000276 -0.0002859 -0.0001054 -0.0005181 -0.0000377 -0.0007757 0.0000004 -0.0006867 -0.0000385 -0.0004014 -0.0000576 -0.0002416 0.0000025 -0.0001872
-0.0000642 -0.0005832 -0.0000329 -0.0003908 0.0000009 -0.0004042 -0.0000696 -0.0005246 -0.0001106 -0.0007822 -0.0000401 -0.0011242 0.0000096 -0.0010402 -0.0000263 -0.0006608 -0.0000497 -0.0004668 0.0000276 -0.0003221
-0.0000659 -0.0007019 -0.0000278 -0.0004478 0.0000133 -0.0004856 -0.0000553 -0.0005864 -0.0000856 -0.0008051 0.0000058 -0.0011272 0.0000761 -0.0010132 0.0000062 -0.0005977 -0.0000176 -0.0004188 0.0000680 -0.0002009
-0.0000862 -0.0005999 -0.0000060 -0.0004092 0.0000324 -0.0004132 -0.0000163 -0.0004298 -0.0000578 -0.0006614 0.0000554 -0.0009697 0.0001272 -0.0008374 0.0000261 -0.0004198 0.0000090 -0.0002695 0.0000811 0.0000284
-0.0000801 -0.0004773 0.0000041 -0.0003185 0.0000412 -0.0002661 0.0000063 -0.0002467 -0.0000510 -0.0004472 0.0000658 -0.0008179 0.0001247 -0.0007345 0.0000324 -0.0003909 0.0000038 -0.0002961 0.0000817 -0.0000449
-0.0000672 -0.0003780 0.0000209 -0.0003369 0.0000168 -0.0004065 0.0000083 -0.0003524 -0.0000370 -0.0005116 0.0000318 -0.0011242 0.0001071 -0.0010993 0.0000297 -0.0007150 -0.0000124 -0.0006102 0.0001033 -0.0003700
-0.0000109 -0.0005362 0.0000404 -0.0004626 -0.0000189 -0.0007873 0.0000521 -0.0006337 0.0000044 -0.0007325 0.0000585 -0.0014741 0.0001579 -0.0014432 0.0000448 -0.0009455 0.0000035 -0.0007820 0.0001517 -0.0004513
0.0001013 -0.0007041 0.0000647 -0.0005313 -0.0000184 -0.0009324 0.0001614 -0.0006426 0.0000856 -0.0006357 0.0001256 -0.0014477 0.0002261 -0.0014186 0.0000839 -0.0008730 0.0000167 -0.0006795 0.0002070 -0.0002739
0.0002539 -0.0003908 0.0001351 -0.0004444 -0.0000476 -0.0009951 0.0002413 -0.0004101 0.0002079 -0.0000889 0.0001619 -0.0012398 0.0002539 -0.0012524 0.0000998 -0.0006948 0.0000239 -0.0004891 0.0002398 0.0000149
0.0003428 0.0000797 0.0001512 -0.0001882 -0.0001094 -0.0010281 0.0002656 -0.0001366 0.0002743 0.0004259 0.0001818 -0.0009692 0.0002507 -0.0011296 0.0000804 -0.0007321 0.0000430 -0.0005082 0.0002124 -0.0001191
0.0003340 0.0000275 0.0001475 -0.0001958 -0.0001351 -0.0012220 0.0002582 -0.0003088 0.0002646 0.0001859 0.0001702 -0.0012490 0.0002367 -0.0014818 0.0000639 -0.0011000 0.0000329 -0.0007824 0.0002009 -0.0005428
0.0003034 -0.0003158 0.0001880 -0.0004247 -0.0001266 -0.0015499 0.0002899 -0.0006947 0.0002852 -0.0002161 0.0001857 -0.0016863 0.0002702 -0.0018771 0.0000837 -0.0013322 0.0000426 -0.0009430 0.0002550 -0.0006843
0.0003190 -0.0004598 0.0002122 -0.0005214 -0.0001024 -0.0016478 0.0003533 -0.0008370 0.0003289 -0.0002630 0.0002219 -0.0017431 0.0003200 -0.0018921 0.0001114 -0.0012659 0.0000566 -0.0008561 0.0003029 -0.0005694
0.0002947 -0.0003480 0.0002231 -0.0004796 -0.0000819 -0.0015738 0.0003942 -0.0008382 0.0003444 -0.0002301 0.0002499 -0.0016173 0.0003522 -0.0017102 0.0001214 -0.0010725 0.0000772 -0.0007030 0.0003196 -0.0003620
0.0002759 -0.0002059 0.0002051 -0.0003583 -0.0000694 -0.0013985 0.0004231 -0.0007097 0.0003270 -0.0001469 0.0002727 -0.0013577 0.0003676 -0.0014227 0.0001200 -0.0008227 0.0000905 -0.0005079 0.0003098 -0.0001370
0.0002868 -0.0001072 0.0001924 -0.0002328 -0.0000707 -0.0012066 0.0004073 -0.0005572 0.0002935 -0.0000267 0.0002733 -0.0011318 0.0003493 -0.0012699 0.0001094 -0.0007967 0.0000722 -0.0004993 0.0002732 -0.0002861
0.0002939 -0.0002008 0.0001715 -0.0002898 -0.0000790 -0.0012998 0.0003672 -0.0007338 0.0002720 -0.0002595 0.0002586 -0.0013597 0.0003246 -0.0015489 0.0001011 -0.0010806 0.0000617 -0.0007580 0.0002650 -0.0006800
0.0003412 -0.0005449 0.0001564 -0.0004939 -0.0000740 -0.0015626 0.0003805 -0.0010499 0.0002978 -0.0005627 0.0002728 -0.0016861 0.0003377 -0.0018623 0.0001159 -0.0012406 0.0000643 -0.0008840 0.0002932 -0.0007514
0.0003907 -0.0007129 0.0001856 -0.0006022 -0.0000557 -0.0016099 0.0004110 -0.0011627 0.0003475 -0.0005164 0.0003060 -0.0016449 0.0003596 -0.0018425 0.0001384 -0.0011419 0.0000709 -0.0007879 0.0003214 -0.0005935
0.0003476 -0.0006092 0.0001738 -0.0006026 -0.0000336 -0.0014986 0.0004027 -0.0011645 0.0003649 -0.0004246 0.0003262 -0.0014578 0.0003658 -0.0016646 0.0001460 -0.0009489 0.0000760 -0.0006460 0.0003352 -0.0003632
0.0002787 -0.0004538 0.0001514 -0.0005440 -0.0000151 -0.0013175 0.0003945 -0.0010240 0.0003531 -0.0002783 0.0003435 -0.0012180 0.0003648 -0.0015148 0.0001465 -0.0009124 0.0000757 -0.0006638 0.0003142 -0.0004561
0.0002424 -0.0005526 0.0001448 -0.0006172 0.0000002 -0.0013687 0.0003847 -0.0011344 0.0003422 -0.0004228 0.0003457 -0.0013761 0.0003659 -0.0017481 0.0001514 -0.0011507 0.0000511 -0.0008503 0.0003178 -0.0007670
0.0002147 -0.0008000 0.0001500 -0.0008364 0.0000180 -0.0015505 0.0003938 -0.0014319 0.0003672 -0.0006482 0.0003480 -0.0017044 0.0003781 -0.0020581 0.0001701 -0.0013004 0.0000656 -0.0009760 0.0003619 -0.0007971
0.0002647 -0.0009420 0.0001627 -0.0009538 0.0000362 -0.0015609 0.0004189 -0.0015507 0.0004020 -0.0006221 0.0003621 -0.0017066 0.0004052 -0.0020408 0.0001884 -0.0012107 0.0001032 -0.0009228 0.0003931 -0.0006170
0.0003257 -0.0008820 0.0001508 -0.0008771 0.0000462 -0.0014576 0.0004455 -0.0014667 0.0004155 -0.0004963 0.0003856 -0.0015050 0.0004305 -0.0018091 0.0001961 -0.0009979 0.0001074 -0.0007411 0.0003930 -0.0003677
0.0003300 -0.0006634 0.0001315 -0.0007289 0.0000475 -0.0012755 0.0004535 -0.0012207 0.0004161 -0.0003358 0.0003995 -0.0013446 0.0004289 -0.0017175 0.0001939 -0.0010293 0.0001039 -0.0007743 0.0003657 -0.0005369
0.0003426 -0.0008074 0.0001227 -0.0008168 0.0000481 -0.0013894 0.0004508 -0.0013415 0.0004092 -0.0005549 0.0004046 -0.0015660 0.0004276 -0.0019960 0.0001954 -0.0013318 0.0000887 -0.0010305 0.0003601 -0.0009162
0.0003148 -0.0011172 0.0001431 -0.0010425 0.0000590 -0.0016623 0.0004707 -0.0016971 0.0004316 -0.0008370 0.0004069 -0.0018792 0.0004408 -0.0022668 0.0002100 -0.0014454 0.0000980 -0.0011494 0.0003997 -0.0009264
0.0002754 -0.0011313 0.0001738 -0.0010944 0.0000744 -0.0016819 0.0004929 -0.0017731 0.0004557 -0.0008117 0.0004156 -0.0018604 0.0004594 -0.0022173 0.0002243 -0.0013305 0.0001233 -0.0010437 0.0004307 -0.0007390
0.0002950 -0.0010458 0.0001613 -0.0010071 0.0000898 -0.0015411 0.0005268 -0.0016385 0.0004626 -0.0006573 0.0004354 -0.0016259 0.0004785 -0.0019533 0.0002308 -0.0010922 0.0001282 -0.0008319 0.0004238 -0.0004980
0.0002767 -0.0008567 0.0001488 -0.0008933 0.0000945 -0.0013304 0.0005574 -0.0013672 0.0004551 -0.0004302 0.0004441 -0.0013268 0.0004842 -0.0016216 0.0002264 -0.0008830 0.0001266 -0.0006830 0.0003893 -0.0004796
0.0002488 -0.0007870 0.0001384 -0.0008933 0.0000966 -0.0013193 0.0005506 -0.0013441 0.0004279 -0.0005657 0.0004291 -0.0014515 0.0004732 -0.0017697 0.0002075 -0.0011158 0.0000971 -0.0008734 0.0003542 -0.0008113
0.0002955 -0.0010854 0.0001170 -0.0010544 0.0000925 -0.0015814 0.0005640 -0.0016122 0.0004436 -0.0008848 0.0004158 -0.0018399 0.0004675 -0.0021956 0.0001993 -0.0014595 0.0000731 -0.0011454 0.0003562 -0.0010454
0.0003639 -0.0012663 0.0001310 -0.0011464 0.0000522 -0.0018601 0.0006057 -0.0016917 0.0005064 -0.0008321 0.0004223 -0.0018991 0.0004768 -0.0022395 0.0002084 -0.0014453 0.0000636 -0.0011559 0.0003481 -0.0010870
0.0004274 -0.0008392 0.0001610 -0.0010099 -0.0000332 -0.0021233 0.0006753 -0.0013738 0.0005836 -0.0004850 0.0004156 -0.0017475 0.0004875 -0.0019970 0.0002182 -0.0012479 -0.0000065 -0.0011215 0.0002541 -0.0012381
0.0004389 -0.0002229 0.0001484 -0.0009125 -0.0001208 -0.0023396 0.0007476 -0.0009452 0.0006219 -0.0001705 0.0003882 -0.0015446 0.0004807 -0.0016406 0.0002351 -0.0009049 -0.0001201 -0.0010765 0.0001399 -0.0012725
0.0004042 0.0003470 0.0001236 -0.0007972 -0.0001644 -0.0023716 0.0006981 -0.0007564 0.0005978 0.0000768 0.0003598 -0.0012728 0.0004228 -0.0014060 0.0002503 -0.0006223 -0.0002219 -0.0010596 0.0001056 -0.0012308
0.0004447 0.0006854 0.0001608 -0.0007310 -0.0002289 -0.0026121 0.0005622 -0.0010026 0.0005505 -0.0000381 0.0003351 -0.0013759 0.0003431 -0.0017064 0.0002450 -0.0007540 -0.0002840 -0.0012419 0.0001204 -0.0013948
0.0004260 0.0004810 0.0001992 -0.0009601 -0.0003102 -0.0030825 0.0004850 -0.0014437 0.0005208 -0.0004396 0.0003332 -0.0016682 0.0003073 -0.0021097 0.0002431 -0.0009395 -0.0002732 -0.0013583 0.0001597 -0.0014706
0.0003984 0.0001435 0.0002107 -0.0010967 -0.0003439 -0.0032682 0.0004439 -0.0017001 0.0005063 -0.0006179 0.0003428 -0.0016268 0.0003079 -0.0020744 0.0002481 -0.0008383 -0.0002241 -0.0012160 0.0001958 -0.0013214
0.0004255 0.0001008 0.0002149 -0.0010122 -0.0003391 -0.0031612 0.0004009 -0.0016966 0.0004822 -0.0005850 0.0003436 -0.0014123 0.0003093 -0.0018467 0.0002441 -0.0006302 -0.0002082 -0.0009974 0.0001896 -0.0010766
0.0004213 0.0002487 0.0002074 -0.0008580 -0.0003293 -0.0028973 0.0003741 -0.0014654 0.0004530 -0.0004172 0.0003448 -0.0011189 0.0002987 -0.0016274 0.0002353 -0.0005534 -0.0002020 -0.0009296 0.0001556 -0.0011523
0.0004056 0.0000212 0.0001929 -0.0008950 -0.0003139 -0.0028546 0.0003422 -0.0014868 0.0004154 -0.0006156 0.0003351 -0.0012683 0.0002844 -0.0018333 0.0002278 -0.0007909 -0.0001945 -0.0011217 0.0001387 -0.0014754
0.0003905 -0.0004961 0.0001861 -0.0011423 -0.0002990 -0.0030353 0.0003302 -0.0017313 0.0004016 -0.0009414 0.0003195 -0.0015925 0.0002852 -0.0021254 0.0002355 -0.0009536 -0.0001942 -0.0012304 0.0001748 -0.0014890
0.0003088 -0.0006483 0.0001627 -0.0012279 -0.0002909 -0.0030286 0.0003369 -0.0017522 0.0004027 -0.0009936 0.0003270 -0.0015548 0.0003011 -0.0020657 0.0002456 -0.0008661 -0.0001811 -0.0011485 0.0002066 -0.0012650
0.0002364 -0.0006086 0.0001261 -0.0011801 -0.0002796 -0.0028795 0.0003565 -0.0015820 0.0003897 -0.0009331 0.0003432 -0.0013374 0.0003131 -0.0018268 0.0002456 -0.0006534 -0.0001793 -0.0009966 0.0002067 -0.0009604
0.0002143 -0.0004713 0.0001022 -0.0011282 -0.0002845 -0.0027302 0.0003701 -0.0013460 0.0003629 -0.0008863 0.0003415 -0.0012060 0.0002975 -0.0017751 0.0002356 -0.0007134 -0.0002148 -0.0010741 0.0001780 -0.0011175
0.0001670 -0.0006710 0.0000758 -0.0012818 -0.0003529 -0.0030536 0.0003520 -0.0015092 0.0003348 -0.0011670 0.0003486 -0.0013896 0.0003014 -0.0020205 0.0002339 -0.0009968 -0.0002451 -0.0013445 0.0001852 -0.0014340
0.0001350 -0.0014791 0.0000151 -0.0016691 -0.0004245 -0.0035879 0.0003808 -0.0017877 0.0003355 -0.0015044 0.0003743 -0.0015270 0.0003364 -0.0021203 0.0002520 -0.0010259 -0.0002613 -0.0014488 0.0002235 -0.0013618
0.0000647 -0.0021892 -0.0000575 -0.0019894 -0.0004351 -0.0037388 0.0004518 -0.0017046 0.0003167 -0.0017134 0.0004027 -0.0014344 0.0003722 -0.0019342 0.0002822 -0.0008248 -0.0002782 -0.0014336 0.0002296 -0.0011597
-0.0000373 -0.0024305 -0.0001126 -0.0020682 -0.0004364 -0.0037017 0.0004764 -0.0014878 0.0002695 -0.0017846 0.0004254 -0.0011840 0.0003938 -0.0015970 0.0003074 -0.0004937 -0.0002780 -0.0012475 0.0002196 -0.0008853
-0.0000862 -0.0023973 -0.0001267 -0.0019535 -0.0004044 -0.0034304 0.0004527 -0.0012607 0.0002297 -0.0017048 0.0004371 -0.0008999 0.0003662 -0.0014585 0.0002985 -0.0004688 -0.0002521 -0.0011494 0.0001609 -0.0011280
-0.0001685 -0.0025066 -0.0001104 -0.0020317 -0.0003339 -0.0032665 0.0004079 -0.0014722 0.0002045 -0.0019167 0.0004288 -0.0011219 0.0003316 -0.0017905 0.0002800 -0.0007983 -0.0002342 -0.0012900 0.0001266 -0.0016019
-0.0002293 -0.0027161 -0.0000968 -0.0022384 -0.0002984 -0.0033721 0.0004078 -0.0018013 0.0002406 -0.0020366 0.0004258 -0.0014299 0.0003401 -0.0020467 0.0003012 -0.0008863 -0.0002263 -0.0013249 0.0001627 -0.0016037
-0.0001788 -0.0027659 -0.0000757 -0.0022385 -0.0002833 -0.0033613 0.0004519 -0.0017917 0.0002907 -0.0018241 0.0004691 -0.0012806 0.0003995 -0.0018375 0.0003590 -0.0006540 -0.0002079 -0.0012320 0.0001704 -0.0013832
-0.0001607 -0.0027395 -0.0000924 -0.0021143 -0.0002487 -0.0031235 0.0004940 -0.0015757 0.0002966 -0.0016148 0.0005043 -0.0010441 0.0004771 -0.0013838 0.0004318 -0.0002336 -0.0001812 -0.0010838 0.0001471 -0.0010878
-0.0002173 -0.0027484 -0.0001366 -0.0020257 -0.0002518 -0.0028981 0.0005037 -0.0012416 0.0002659 -0.0014116 0.0004879 -0.0007629 0.0004923 -0.0009398 0.0004904 0.0001793 -0.0001733 -0.0008787 0.0001386 -0.0009647
-0.0001749 -0.0026784 -0.0001402 -0.0021028 -0.0002257 -0.0027823 0.0004667 -0.0012602 0.0002314 -0.0015270 0.0004082 -0.0010185 0.0003847 -0.0013212 0.0004253 -0.0001852 -0.0001867 -0.0009819 0.0000876 -0.0012518
-0.0001375 -0.0029127 -0.0000753 -0.0021314 -0.0001167 -0.0025842 0.0004053 -0.0016388 0.0002143 -0.0019200 0.0003734 -0.0015430 0.0003600 -0.0017987 0.0004069 -0.0005532 -0.0002010 -0.0012909 0.0000741 -0.0014463
-0.0001661 -0.0031165 -0.0000610 -0.0021274 -0.0000602 -0.0024285 0.0004085 -0.0017144 0.0002177 -0.0020340 0.0004266 -0.0015097 0.0004567 -0.0015176 0.0005077 -0.0001542 -0.0001955 -0.0011989 0.0001217 -0.0012194
-0.0002007 -0.0029554 -0.0001098 -0.0020714 -0.0000527 -0.0022910 0.0004339 -0.0015345 0.0002173 -0.0018865 0.0004242 -0.0013319 0.0004551 -0.0012584 0.0005117 0.0001276 -0.0001934 -0.0009776 0.0001235 -0.0008585
-0.0003006 -0.0027718 -0.0001181 -0.0018380 0.0000197 -0.0017958 0.0003940 -0.0013759 0.0001870 -0.0016878 0.0003568 -0.0012182 0.0003862 -0.0011568 0.0004657 0.0001094 -0.0002447 -0.0010929 0.0000942 -0.0008112
-0.0002852 -0.0024796 -0.0000578 -0.0016612 0.0000625 -0.0015408 0.0003321 -0.0013994 0.0001470 -0.0017765 0.0002980 -0.0014173 0.0003321 -0.0014051 0.0004529 -0.0001057 -0.0002769 -0.0013921 0.0000842 -0.0010681
-0.0002891 -0.0025018 -0.0000884 -0.0018873 -0.0000173 -0.0019592 0.0002911 -0.0017295 0.0000832 -0.0022481 0.0003357 -0.0016734 0.0003936 -0.0015479 0.0004247 -0.0004180 -0.0002955 -0.0017418 0.0001225 -0.0012147
-0.0003048 -0.0028948 -0.0001693 -0.0021952 -0.0001690 -0.0026176 0.0003028 -0.0018628 0.0000570 -0.0024723 0.0003659 -0.0017438 0.0004527 -0.0014780 0.0003879 -0.0005722 -0.0003259 -0.0019233 0.0001924 -0.0010634
-0.0002442 -0.0031490 -0.0001637 -0.0021718 -0.0002920 -0.0029972 0.0003405 -0.0016086 0.0000878 -0.0022562 0.0003645 -0.0015495 0.0003972 -0.0014766 0.0004008 -0.0004195 -0.0003651 -0.0018686 0.0002774 -0.0005791
-0.0001916 -0.0028358 -0.0001444 -0.0020305 -0.0002425 -0.0025776 0.0003223 -0.0013673 0.0001211 -0.0019821 0.0004109 -0.0013268 0.0004218 -0.0013342 0.0004460 -0.0004497 -0.0004208 -0.0021389 0.0003313 -0.0005986
0.0001132 -0.0019352 -0.0000434 -0.0019081 -0.0003409 -0.0030287 0.0002203 -0.0016105 0.0000952 -0.0020218 0.0005100 -0.0011428 0.0004234 -0.0014946 0.0003836 -0.0009523 -0.0004491 -0.0025732 0.0003598 -0.0008852
0.0003366 -0.0016201 0.0000300 -0.0019585 -0.0002117 -0.0026864 0.0003774 -0.0012932 0.0001416 -0.0021307 0.0005279 -0.0012591 0.0003346 -0.0019469 0.0003740 -0.0010797 -0.0003892 -0.0023060 0.0003628 -0.0010142
0.0000721 -0.0024138 -0.0000522 -0.0022486 -0.0001253 -0.0024165 0.0004659 -0.0011513 0.0002132 -0.0021662 0.0004530 -0.0017271 0.0003184 -0.0020252 0.0004884 -0.0006281 -0.0003567 -0.0020371 0.0001337 -0.0017716
-0.0001021 -0.0025884 -0.0001162 -0.0022857 -0.0000175 -0.0020091 0.0003946 -0.0013933 0.0001736 -0.0022595 0.0003853 -0.0019721 0.0003634 -0.0017633 0.0005636 -0.0002563 -0.0003353 -0.0020847 -0.0000938 -0.0025754
-0.0000435 -0.0023040 -0.0000708 -0.0021932 0.0000719 -0.0017193 0.0004544 -0.0013404 0.0001630 -0.0025094 0.0003158 -0.0024034 0.0003715 -0.0020174 0.0006052 -0.0003413 -0.0003173 -0.0022403 -0.0000740 -0.0028126
-0.0000745 -0.0026885 -0.0000425 -0.0023647 -0.0001164 -0.0026351 0.0004296 -0.0017025 0.0001761 -0.0027793 0.0002890 -0.0027862 0.0003877 -0.0023056 0.0005820 -0.0006892 -0.0004050 -0.0026331 0.0000222 -0.0027471
0.0000781 -0.0025771 -0.0000158 -0.0023484 -0.0002484 -0.0031392 0.0004044 -0.0018588 0.0001563 -0.0027675 0.0003489 -0.0024047 0.0004096 -0.0021384 0.0005079 -0.0009476 -0.0005422 -0.0029287 0.0001512 -0.0024137
0.0002423 -0.0023406 -0.0000108 -0.0021920 -0.0003759 -0.0035663 0.0004029 -0.0017296 0.0001415 -0.0025072 0.0004307 -0.0017392 0.0003565 -0.0019066 0.0004277 -0.0010254 -0.0005985 -0.0030097 0.0002921 -0.0018145
0.0003645 -0.0019573 0.0001535 -0.0016592 -0.0003904 -0.0036487 0.0003583 -0.0015921 0.0001682 -0.0021874 0.0004867 -0.0015066 0.0003587 -0.0018970 0.0003716 -0.0013298 -0.0005915 -0.0031121 0.0003025 -0.0018882
0.0004544 -0.0019778 0.0003067 -0.0014043 -0.0004832 -0.0041949 0.0003595 -0.0016874 0.0001841 -0.0023655 0.0005296 -0.0015907 0.0003465 -0.0022001 0.0003820 -0.0015486 -0.0005588 -0.0031988 0.0003041 -0.0021472
0.0003054 -0.0024060 0.0001990 -0.0018926 -0.0005434 -0.0044640 0.0004351 -0.0016736 0.0001973 -0.0025969 0.0005269 -0.0016839 0.0003808 -0.0020600 0.0004499 -0.0012034 -0.0004240 -0.0027204 0.0003018 -0.0021242
0.0000689 -0.0027162 0.0000653 -0.0021653 -0.0006653 -0.0047875 0.0004564 -0.0015209 0.0001843 -0.0025452 0.0005771 -0.0013430 0.0004292 -0.0016356 0.0005515 -0.0004263 -0.0002625 -0.0019249 0.0002199 -0.0020525
-0.0001339 -0.0033556 0.0000082 -0.0021363 -0.0005345 -0.0042348 0.0004319 -0.0015336 0.0001561 -0.0026414 0.0005479 -0.0014161 0.0004221 -0.0016234 0.0005918 -0.0002461 -0.0002146 -0.0017588 0.0001515 -0.0022559
-0.0002119 -0.0038374 -0.0000068 -0.0022811 -0.0003374 -0.0035582 0.0004257 -0.0016861 0.0001536 -0.0028281 0.0004677 -0.0018416 0.0003447 -0.0021090 0.0005281 -0.0006823 -0.0001838 -0.0018244 0.0001336 -0.0025562
-0.0002007 -0.0039521 -0.0000211 -0.0024072 -0.0002912 -0.0033836 0.0004021 -0.0017996 0.0001341 -0.0029476 0.0004820 -0.0017039 0.0003308 -0.0020676 0.0005443 -0.0005049 -0.0001673 -0.0016724 0.0001566 -0.0023518
-0.0001091 -0.0037585 -0.0000035 -0.0022411 -0.0002878 -0.0032707 0.0003894 -0.0016915 0.0001179 -0.0028378 0.0004962 -0.0014134 0.0004066 -0.0015365 0.0006206 0.0000561 -0.0001171 -0.0013458 0.0001169 -0.0021438
-0.0000871 -0.0036364 0.0000536 -0.0018739 -0.0000637 -0.0023050 0.0004314 -0.0013334 0.0001443 -0.0026604 0.0004687 -0.0014261 0.0004059 -0.0014852 0.0006349 0.0000622 -0.0000732 -0.0012667 0.0000382 -0.0022315
-0.0001428 -0.0037245 0.0001031 -0.0017470 -0.0000148 -0.0021909 0.0004199 -0.0013602 0.0001325 -0.0028150 0.0004654 -0.0015876 0.0004012 -0.0016593 0.0006146 -0.0002351 -0.0000764 -0.0014258 0.0000167 -0.0023247
-0.0001485 -0.0037790 0.0000654 -0.0020434 -0.0002298 -0.0030576 0.0003900 -0.0015523 0.0000903 -0.0029878 0.0005206 -0.0013635 0.0004554 -0.0013904 0.0006398 0.0000161 0.0000650 -0.0008989 0.0001333 -0.0017076
-0.0002811 -0.0040814 0.0000182 -0.0021799 -0.0004144 -0.0036543 0.0003918 -0.0013609 0.0000820 -0.0027840 0.0005602 -0.0009078 0.0004944 -0.0009358 0.0006407 0.0003280 0.0001663 -0.0003357 0.0002171 -0.0011623
-0.0003044 -0.0038545 0.0000083 -0.0020240 -0.0003149 -0.0031992 0.0004066 -0.0011188 0.0001115 -0.0025404 0.0005196 -0.0008919 0.0004375 -0.0010533 0.0006368 0.0002717 0.0001020 -0.0005263 0.0001888 -0.0013112
-0.0002164 -0.0032490 0.0000362 -0.0019195 -0.0000863 -0.0023141 0.0004220 -0.0011013 0.0001348 -0.0025492 0.0004879 -0.0011176 0.0004683 -0.0011328 0.0006513 0.0001178 0.0000929 -0.0007546 0.0001443 -0.0016355
-0.0002142 -0.0037410 0.0001508 -0.0016351 -0.0001374 -0.0026068 0.0004134 -0.0012139 0.0001152 -0.0026340 0.0004879 -0.0010639 0.0004945 -0.0009852 0.0006426 0.0001816 0.0000903 -0.0006513 0.0001955 -0.0012470
-0.0000132 -0.0029718 0.0001020 -0.0016296 -0.0000870 -0.0022143 0.0003806 -0.0011067 0.0000692 -0.0026092 0.0004920 -0.0007773 0.0005154 -0.0006241 0.0006952 0.0005686 0.0000265 -0.0006049 0.0001890 -0.0009809
0.0000378 -0.0024658 0.0000518 -0.0016559 -0.0001781 -0.0024214 0.0003687 -0.0009343 0.0000528 -0.0025759 0.0004905 -0.0007400 0.0004891 -0.0006875 0.0006427 0.0003319 -0.0000024 -0.0008112 0.0001266 -0.0013172
-0.0000308 -0.0030244 0.0000664 -0.0017043 -0.0001803 -0.0025406 0.0003675 -0.0009978 0.0000645 -0.0026840 0.0004681 -0.0009536 0.0004673 -0.0009221 0.0006420 0.0001069 -0.0000544 -0.0010560 0.0001284 -0.0015039
0.0000412 -0.0028543 0.0000874 -0.0018114 -0.0000245 -0.0019496 0.0003655 -0.0010754 0.0000882 -0.0026114 0.0004454 -0.0009694 0.0004793 -0.0008280 0.0006990 0.0003365 -0.0000574 -0.0009699 0.0001702 -0.0013541
0.0000384 -0.0023559 0.0001413 -0.0015486 0.0000859 -0.0013717 0.0004170 -0.0007586 0.0001437 -0.0022380 0.0004267 -0.0008092 0.0004528 -0.0007234 0.0006900 0.0004083 -0.0000190 -0.0008255 0.0001641 -0.0013096
0.0000471 -0.0019620 0.0001312 -0.0015254 0.0002351 -0.0007514 0.0004375 -0.0006212 0.0001730 -0.0021386 0.0004098 -0.0008755 0.0004528 -0.0007511 0.0006906 0.0003360 -0.0000128 -0.0008482 0.0000508 -0.0017158
0.0001170 -0.0018688 0.0001516 -0.0015493 0.0003782 -0.0002840 0.0004439 -0.0007189 0.0001956 -0.0021363 0.0003780 -0.0010574 0.0004390 -0.0009456 0.0006631 0.0001276 -0.0000445 -0.0010014 0.0000665 -0.0016626
0.0004047 -0.0007858 0.0002105 -0.0012341 0.0003533 -0.0002396 0.0004281 -0.0006384 0.0002078 -0.0017601 0.0003990 -0.0007252 0.0004649 -0.0006629 0.0006657 0.0003138 -0.0000816 -0.0008948 0.0001728 -0.0010863
0.0006485 0.0000892 0.0003082 -0.0007147 0.0001825 -0.0005913 0.0003987 -0.0004108 0.0002032 -0.0013216 0.0004307 -0.0003140 0.0004575 -0.0004701 0.0006231 0.0002685 -0.0000655 -0.0007479 0.0001305 -0.0010509
0.0006041 -0.0002853 0.0003437 -0.0006255 0.0000982 -0.0008682 0.0003660 -0.0005285 0.0001845 -0.0014640 0.0004279 -0.0003653 0.0004286 -0.0006499 0.0005839 0.0000201 -0.0000376 -0.0007530 0.0000469 -0.0013501
0.0004898 -0.0006696 0.0003398 -0.0007560 0.0000974 -0.0009877 0.0003418 -0.0007188 0.0001922 -0.0016194 0.0004269 -0.0004834 0.0004516 -0.0006525 0.0005936 0.0000313 -0.0000125 -0.0006766 0.0000508 -0.0012846
0.0004689 -0.0006096 0.0003761 -0.0006507 0.0001167 -0.0008247 0.0003401 -0.0006067 0.0002073 -0.0013682 0.0004480 -0.0002313 0.0004668 -0.0003814 0.0006541 0.0004629 0.0000293 -0.0003543 0.0000838 -0.0009767
0.0003823 -0.0003967 0.0003737 -0.0005981 0.0001596 -0.0005903 0.0003539 -0.0004846 0.0001695 -0.0015074 0.0004855 -0.0000361 0.0004529 -0.0003615 0.0007311 0.0006845 0.0000076 -0.0003874 0.0000118 -0.0012423
0.0002893 -0.0003537 0.0003520 -0.0007491 0.0004315 0.0002027 0.0004225 -0.0005281 0.0001525 -0.0018916 0.0004493 -0.0004006 0.0004221 -0.0007195 0.0007202 0.0003816 -0.0000111 -0.0006685 -0.0000470 -0.0015410
0.0003518 -0.0003200 0.0003575 -0.0007198 0.0006840 0.0009818 0.0004226 -0.0007691 0.0001466 -0.0020580 0.0004035 -0.0006648 0.0004121 -0.0008566 0.0007053 0.0003499 0.0000025 -0.0006440 0.0000320 -0.0012126
0.0004129 -0.0000607 0.0003363 -0.0006699 0.0007006 0.0011482 0.0004119 -0.0007455 0.0001450 -0.0019674 0.0004164 -0.0004230 0.0004028 -0.0006995 0.0007351 0.0005843 0.0000009 -0.0006201 0.0000810 -0.0010070
0.0004390 0.0000525 0.0003033 -0.0007362 0.0007321 0.0012695 0.0004216 -0.0007530 0.0001462 -0.0020670 0.0003985 -0.0005247 0.0003728 -0.0008878 0.0007513 0.0005270 -0.0000233 -0.0007691 0.0000697 -0.0011280
0.0004717 -0.0000469 0.0002282 -0.0009494 0.0006718 0.0009223 0.0004061 -0.0010481 0.0001336 -0.0023867 0.0004017 -0.0007094 0.0003912 -0.0010893 0.0007874 0.0005080 -0.0000650 -0.0008824 0.0000782 -0.0011870
0.0005151 0.0000839 0.0001906 -0.0012037 0.0005612 0.0004968 0.0004363 -0.0010539 0.0001495 -0.0023831 0.0004236 -0.0005921 0.0003986 -0.0010180 0.0007914 0.0006554 -0.0000582 -0.0008119 0.0000909 -0.0009209
0.0004531 0.0001109 0.0002504 -0.0009734 0.0005924 0.0007581 0.0004545 -0.0008863 0.0001760 -0.0022542 0.0003768 -0.0007775 0.0003768 -0.0010663 0.0008147 0.0006794 -0.0000190 -0.0008836 0.0000655 -0.0008622
0.0004388 0.0001208 0.0002301 -0.0010670 0.0008572 0.0017424 0.0004574 -0.0010231 0.0002000 -0.0023801 0.0002916 -0.0012745 0.0003262 -0.0013957 0.0008119 0.0004497 -0.0000545 -0.0011751 0.0001292 -0.0007655
0.0005826 0.0004857 0.0002337 -0.0012659 0.0009733 0.0021720 0.0004771 -0.0011740 0.0002132 -0.0024606 0.0003158 -0.0012435 0.0002632 -0.0016733 0.0007353 0.0001768 -0.0001061 -0.0012466 0.0002705 -0.0004362
0.0006493 0.0006524 0.0002754 -0.0010764 0.0007341 0.0013752 0.0004517 -0.0012447 0.0001908 -0.0023739 0.0003853 -0.0008372 0.0003193 -0.0013030 0.0007584 0.0004288 -0.0000774 -0.0009503 0.0002963 -0.0004439
0.0005070 0.0001270 0.0001859 -0.0012696 0.0004269 0.0001465 0.0003697 -0.0015809 0.0001084 -0.0026737 0.0004135 -0.0007800 0.0003965 -0.0010406 0.0008077 0.0005593 -0.0000074 -0.0007904 0.0002516 -0.0006967
0.0003805 -0.0007616 0.0001053 -0.0015878 0.0001597 -0.0010405 0.0002917 -0.0020327 0.0000536 -0.0030332 0.0004228 -0.0009235 0.0003847 -0.0012705 0.0007655 0.0002647 0.0000507 -0.0007614 0.0001991 -0.0008575
0.0003492 -0.0013407 0.0001306 -0.0015072 0.0001214 -0.0012947 0.0003002 -0.0021031 0.0000921 -0.0029511 0.0004321 -0.0009149 0.0003848 -0.0012754 0.0007284 0.0002062 0.0001106 -0.0005944 0.0001698 -0.0007689
0.0003110 -0.0013324 0.0001913 -0.0012628 0.0001780 -0.0010230 0.0003432 -0.0018847 0.0001430 -0.0027494 0.0004291 -0.0009440 0.0003727 -0.0013183 0.0007068 0.0000806 0.0001424 -0.0006082 0.0001282 -0.0009704
0.0003241 -0.0013268 0.0002418 -0.0012235 0.0002101 -0.0009999 0.0003660 -0.0019533 0.0001704 -0.0028344 0.0004219 -0.0011740 0.0003599 -0.0015268 0.0006936 -0.0001519 0.0001357 -0.0007007 0.0001011 -0.0013077
0.0003503 -0.0015532 0.0002660 -0.0012707 0.0002476 -0.0010608 0.0003885 -0.0021222 0.0001988 -0.0029267 0.0004593 -0.0012282 0.0003959 -0.0015057 0.0007151 -0.0001008 0.0001696 -0.0006287 0.0001280 -0.0012275
0.0002935 -0.0014394 0.0002243 -0.0012023 0.0002581 -0.0010045 0.0004080 -0.0020516 0.0002184 -0.0027730 0.0004895 -0.0010311 0.0004103 -0.0013236 0.0007312 0.0000305 0.0001963 -0.0005283 0.0001234 -0.0012050
0.0002472 -0.0013774 0.0002186 -0.0011750 0.0002599 -0.0010553 0.0004215 -0.0021287 0.0002180 -0.0028771 0.0004819 -0.0011600 0.0004069 -0.0014739 0.0007392 -0.0000671 0.0001801 -0.0006100 0.0001195 -0.0013694
0.0003081 -0.0015484 0.0002738 -0.0013177 0.0002640 -0.0012178 0.0004444 -0.0023508 0.0002230 -0.0031058 0.0004794 -0.0014388 0.0004166 -0.0017327 0.0007587 -0.0001705 0.0001794 -0.0007399 0.0001642 -0.0013453
0.0003930 -0.0015055 0.0002889 -0.0013154 0.0002640 -0.0012629 0.0004739 -0.0023633 0.0002384 -0.0030587 0.0004763 -0.0014713 0.0004227 -0.0016916 0.0007769 -0.0000219 0.0001933 -0.0006222 0.0002298 -0.0010548
0.0004627 -0.0012314 0.0002868 -0.0011740 0.0002621 -0.0012112 0.0004775 -0.0022850 0.0002388 -0.0030393 0.0004404 -0.0016338 0.0003955 -0.0018364 0.0007642 -0.0001357 0.0002075 -0.0006635 0.0002292 -0.0011174
0.0004980 -0.0012686 0.0003043 -0.0011966 0.0002573 -0.0013474 0.0004728 -0.0024588 0.0002371 -0.0032114 0.0004375 -0.0018719 0.0004008 -0.0020437 0.0007620 -0.0003623 0.0002282 -0.0007765 0.0002224 -0.0013334
0.0004775 -0.0014083 0.0003210 -0.0012425 0.0002597 -0.0015101 0.0004910 -0.0025927 0.0002545 -0.0032791 0.0004874 -0.0018432 0.0004518 -0.0019607 0.0007892 -0.0002895 0.0002732 -0.0006656 0.0002511 -0.0012211
0.0004593 -0.0013056 0.0003510 -0.0011870 0.0002715 -0.0014543 0.0005278 -0.0024545 0.0002716 -0.0031032 0.0005207 -0.0016078 0.0004747 -0.0017755 0.0008062 -0.0002158 0.0002930 -0.0005851 0.0002500 -0.0012522
0.0003898 -0.0012752 0.0003597 -0.0012278 0.0002856 -0.0014929 0.0005458 -0.0025302 0.0002780 -0.0031994 0.0005146 -0.0017590 0.0004749 -0.0019178 0.0008087 -0.0003604 0.0002687 -0.0006605 0.0002513 -0.0014189
0.0003608 -0.0013632 0.0003477 -0.0012616 0.0003023 -0.0015964 0.0005634 -0.0027301 0.0002895 -0.0033951 0.0005198 -0.0020250 0.0005006 -0.0020905 0.0008218 -0.0004416 0.0002833 -0.0007009 0.0002764 -0.0014047
0.0004258 -0.0013374 0.0003734 -0.0012245 0.0003226 -0.0015552 0.0006036 -0.0027009 0.0003121 -0.0032761 0.0005376 -0.0019464 0.0005387 -0.0019339 0.0008395 -0.0002615 0.0002994 -0.0005676 0.0002910 -0.0011809
0.0004904 -0.0011109 0.0003990 -0.0011050 0.0003401 -0.0013679 0.0006240 -0.0025144 0.0003287 -0.0030383 0.0005317 -0.0017524 0.0005481 -0.0016721 0.0008399 0.0000003 0.0002944 -0.0003450 0.0002824 -0.0009406
0.0005411 -0.0008882 0.0003898 -0.0009630 0.0003514 -0.0012403 0.0006095 -0.0024311 0.0003212 -0.0030270 0.0005042 -0.0018422 0.0005219 -0.0017662 0.0008228 -0.0001205 0.0002829 -0.0004370 0.0002493 -0.0011213
0.0005878 -0.0010188 0.0004089 -0.0010417 0.0003556 -0.0013580 0.0005943 -0.0026373 0.0003154 -0.0032575 0.0004948 -0.0021368 0.0005148 -0.0020429 0.0008194 -0.0003732 0.0002844 -0.0006558 0.0002386 -0.0013523
0.0005816 -0.0011491 0.0004404 -0.0011130 0.0003639 -0.0014485 0.0006012 -0.0027598 0.0003315 -0.0032936 0.0005156 -0.0021601 0.0005417 -0.0019956 0.0008334 -0.0002925 0.0002959 -0.0005718 0.0002618 -0.0012220
0.0005304 -0.0009714 0.0004132 -0.0009686 0.0003804 -0.0013472 0.0006180 -0.0026187 0.0003434 -0.0030977 0.0005279 -0.0019739 0.0005565 -0.0017699 0.0008368 -0.0001051 0.0003042 -0.0003996 0.0002618 -0.0010888
0.0004929 -0.0008337 0.0003997 -0.0009033 0.0003919 -0.0013061 0.0006172 -0.0025806 0.0003367 -0.0031042 0.0005134 -0.0020549 0.0005428 -0.0018755 0.0008265 -0.0002198 0.0002995 -0.0004834 0.0002415 -0.0012232
0.0004488 -0.0009089 0.0004048 -0.0009826 0.0003978 -0.0014222 0.0006126 -0.0027536 0.0003321 -0.0032977 0.0005068 -0.0023151 0.0005473 -0.0021464 0.0008277 -0.0004385 0.0002986 -0.0006668 0.0002477 -0.0013560
0.0004799 -0.0010272 0.0004287 -0.0010455 0.0004071 -0.0014707 0.0006364 -0.0028350 0.0003475 -0.0032888 0.0005253 -0.0023013 0.0005857 -0.0020850 0.0008394 -0.0003341 0.0003157 -0.0005918 0.0002602 -0.0011929
0.0005332 -0.0008789 0.0004419 -0.0009673 0.0004151 -0.0013593 0.0006608 -0.0026907 0.0003636 -0.0030915 0.0005325 -0.0021250 0.0005986 -0.0018783 0.0008387 -0.0001807 0.0003170 -0.0004418 0.0002407 -0.0011164
0.0005488 -0.0007828 0.0004301 -0.0009041 0.0004171 -0.0013463 0.0006527 -0.0026957 0.0003635 -0.0031486 0.0005112 -0.0022857 0.0005830 -0.0020333 0.0008295 -0.0003317 0.0003041 -0.0005594 0.0002267 -0.0012907
0.0005975 -0.0009948 0.0004628 -0.0010386 0.0004189 -0.0015077 0.0006531 -0.0029333 0.0003715 -0.0033901 0.0005063 -0.0026296 0.0005886 -0.0023317 0.0008313 -0.0005284 0.0002966 -0.0007192 0.0002416 -0.0013789
0.0005811 -0.0010268 0.0004728 -0.0010687 0.0004235 -0.0015739 0.0006851 -0.0030012 0.0004011 -0.0033611 0.0005264 -0.0026317 0.0006226 -0.0022502 0.0008433 -0.0004064 0.0003035 -0.0006148 0.0002574 -0.0012099
0.0005346 -0.0007605 0.0004661 -0.0009182 0.0004313 -0.0014448 0.0007069 -0.0028224 0.0004191 -0.0031189 0.0005339 -0.0024380 0.0006347 -0.0019856 0.0008491 -0.0001330 0.0003134 -0.0004278 0.0002621 -0.0009241
0.0005655 -0.0003847 0.0004762 -0.0006852 0.0004338 -0.0012150 0.0007072 -0.0025485 0.0004308 -0.0027062 0.0005192 -0.0021628 0.0006135 -0.0016920 0.0008299 0.0000280 0.0002925 -0.0002933 0.0002335 -0.0009183
0.0005737 -0.0001585 0.0004776 -0.0006089 0.0004180 -0.0012197 0.0006842 -0.0025634 0.0004353 -0.0026855 0.0004851 -0.0023652 0.0005843 -0.0019075 0.0007932 -0.0002260 0.0002526 -0.0004544 0.0001965 -0.0012200
0.0005770 -0.0003378 0.0004713 -0.0007410 0.0003930 -0.0014757 0.0006769 -0.0028807 0.0004389 -0.0029735 0.0004810 -0.0027381 0.0005946 -0.0022417 0.0007870 -0.0004484 0.0002495 -0.0006372 0.0002037 -0.0013279
0.0006611 -0.0005342 0.0004950 -0.0008010 0.0003862 -0.0015716 0.0007034 -0.0029811 0.0004633 -0.0029678 0.0005070 -0.0026802 0.0006311 -0.0021380 0.0008035 -0.0003153 0.0002608 -0.0005445 0.0002197 -0.0011669
0.0007216 -0.0004354 0.0005016 -0.0006802 0.0003855 -0.0014613 0.0007104 -0.0028054 0.0004832 -0.0027460 0.0005179 -0.0024340 0.0006461 -0.0018661 0.0008079 -0.0000461 0.0002763 -0.0003348 0.0002166 -0.0008714
0.0006954 -0.0001330 0.0004845 -0.0004705 0.0003730 -0.0012900 0.0006862 -0.0025250 0.0004873 -0.0023944 0.0005105 -0.0021187 0.0006598 -0.0014468 0.0007867 0.0002195 0.0002611 -0.0001408 0.0002014 -0.0005136
0.0006845 0.0003838 0.0004983 -0.0002040 0.0002586 -0.0014507 0.0006232 -0.0022353 0.0004947 -0.0017930 0.0004841 -0.0017228 0.0005887 -0.0011351 0.0007195 0.0004526 0.0002122 0.0000642 0.0001822 -0.0001423
0.0006183 0.0008236 0.0005488 0.0002103 -0.0000033 -0.0021114 0.0005798 -0.0018621 0.0004923 -0.0012378 0.0004744 -0.0012700 0.0004759 -0.0010481 0.0006192 0.0003341 0.0001506 0.0000877 0.0000752 -0.0004294
0.0004242 0.0002336 0.0005888 0.0003163 -0.0001871 -0.0029212 0.0005836 -0.0018338 0.0004643 -0.0014856 0.0005016 -0.0012752 0.0004509 -0.0012144 0.0005684 -0.0000300 0.0000810 -0.0001859 -0.0000152 -0.0010006
0.0003011 -0.0003652 0.0005579 0.0000280 -0.0000120 -0.0025924 0.0006273 -0.0020825 0.0004817 -0.0018661 0.0005096 -0.0016207 0.0004851 -0.0014118 0.0005927 -0.0001161 0.0000505 -0.0004242 0.0000242 -0.0010425
0.0003928 -0.0001274 0.0005230 -0.0000805 0.0002600 -0.0015465 0.0006658 -0.0020703 0.0005218 -0.0017427 0.0004933 -0.0016619 0.0004995 -0.0014152 0.0006106 -0.0000084 0.0000848 -0.0003794 0.0000624 -0.0008348
0.0005111 0.0003154 0.0005105 0.0000329 0.0004172 -0.0008215 0.0006516 -0.0018562 0.0005195 -0.0015405 0.0004999 -0.0013731 0.0005161 -0.0011423 0.0006064 0.0002038 0.0001226 -0.0001626 0.0000275 -0.0005961
0.0004601 0.0002527 0.0005889 0.0004888 0.0003795 -0.0007805 0.0006084 -0.0015692 0.0004840 -0.0014267 0.0005070 -0.0011757 0.0005451 -0.0009545 0.0006000 0.0001977 0.0001258 -0.0001582 -0.0000283 -0.0007117
0.0003770 -0.0003912 0.0006097 0.0004623 0.0002650 -0.0013126 0.0005265 -0.0017565 0.0004319 -0.0016727 0.0004933 -0.0013505 0.0005163 -0.0012358 0.0005974 0.0000173 0.0001381 -0.0002635 -0.0000230 -0.0008916
0.0003860 -0.0006939 0.0005510 -0.0000054 0.0003055 -0.0013958 0.0004855 -0.0020570 0.0004193 -0.0018808 0.0005101 -0.0014211 0.0005250 -0.0013287 0.0006055 0.0000422 0.0001498 -0.0002482 0.0000016 -0.0008350
0.0003375 -0.0005938 0.0005088 0.0000021 0.0003817 -0.0010818 0.0005081 -0.0019366 0.0004442 -0.0016983 0.0005332 -0.0012279 0.0005469 -0.0011369 0.0006101 0.0002653 0.0001638 -0.0000531 0.0000147 -0.0005997
0.0003050 -0.0003039 0.0004860 0.0001360 0.0004156 -0.0007691 0.0005194 -0.0017440 0.0004388 -0.0014759 0.0005303 -0.0010452 0.0005224 -0.0010482 0.0005997 0.0003295 0.0001525 0.0000134 -0.0000055 -0.0006580
0.0003106 -0.0003795 0.0005184 0.0000557 0.0004054 -0.0008566 0.0005112 -0.0018829 0.0004152 -0.0016647 0.0005112 -0.0012278 0.0005042 -0.0012671 0.0005791 0.0000844 0.0001307 -0.0002028 -0.0000219 -0.0009645
0.0003134 -0.0007025 0.0005118 -0.0001204 0.0003961 -0.0010784 0.0005132 -0.0021700 0.0004119 -0.0019463 0.0005111 -0.0014550 0.0005198 -0.0014555 0.0005741 -0.0000159 0.0001463 -0.0002581 0.0000056 -0.0009746
0.0003602 -0.0008121 0.0004725 -0.0001102 0.0003950 -0.0010834 0.0005331 -0.0021736 0.0004231 -0.0018835 0.0005393 -0.0012696 0.0005453 -0.0012927 0.0005825 0.0001728 0.0001725 -0.0001101 0.0000170 -0.0007547
0.0003876 -0.0006896 0.0004454 -0.0000319 0.0003973 -0.0009411 0.0005428 -0.0019917 0.0004253 -0.0016610 0.0005422 -0.0010032 0.0005326 -0.0011105 0.0005745 0.0002720 0.0001580 -0.0000459 -0.0000135 -0.0007662
0.0003638 -0.0006498 0.0004591 -0.0000596 0.0003983 -0.0009439 0.0005165 -0.0020337 0.0004070 -0.0017585 0.0005150 -0.0011512 0.0005035 -0.0013179 0.0005564 0.0000703 0.0001266 -0.0002008 -0.0000236 -0.0010464
0.0003731 -0.0008862 0.0004600 -0.0001766 0.0004068 -0.0011033 0.0005076 -0.0022794 0.0004057 -0.0020157 0.0005155 -0.0013990 0.0005139 -0.0015356 0.0005589 -0.0000375 0.0001409 -0.0003133 0.0000207 -0.0010876
0.0003501 -0.0009290 0.0004763 -0.0002068 0.0004181 -0.0011004 0.0005402 -0.0022792 0.0004258 -0.0019366 0.0005461 -0.0012524 0.0005421 -0.0013743 0.0005679 0.0001415 0.0001642 -0.0002055 0.0000491 -0.0008849
0.0002934 -0.0007118 0.0004739 -0.0001162 0.0004207 -0.0009268 0.0005578 -0.0020646 0.0004237 -0.0016887 0.0005536 -0.0009475 0.0005440 -0.0010681 0.0005605 0.0004376 0.0001593 0.0000395 0.0000443 -0.0005515
0.0002740 -0.0004744 0.0004368 0.0000371 0.0004113 -0.0006661 0.0005448 -0.0017851 0.0004003 -0.0013772 0.0005331 -0.0005880 0.0005132 -0.0007001 0.0005353 0.0007795 0.0001175 0.0003479 0.0000222 -0.0001807
0.0002609 -0.0001858 0.0004033 0.0002291 0.0003972 -0.0003587 0.0005025 -0.0014869 0.0003650 -0.0010673 0.0004862 -0.0002486 0.0004513 -0.0003297 0.0004962 0.0011444 0.0000789 0.0006324 -0.0000080 0.0002114
0.0002380 0.0001677 0.0003392 0.0005105 0.0003830 0.0000013 0.0004256 -0.0011558 0.0003124 -0.0007346 0.0004160 0.0001089 0.0003697 0.0000228 0.0004469 0.0013274 0.0000642 0.0007200 -0.0000693 0.0001616
0.0002330 0.0002394 0.0003168 0.0005581 0.0003762 0.0001005 0.0003501 -0.0011232 0.0002588 -0.0008296 0.0003354 -0.0000588 0.0002837 -0.0001869 0.0003905 0.0010169 0.0000208 0.0004414 -0.0001246 -0.0002822
0.0002045 -0.0000141 0.0003174 0.0003883 0.0003625 -0.0000680 0.0002915 -0.0013617 0.0002263 -0.0011443 0.0002936 -0.0004310 0.0002367 -0.0005278 0.0003569 0.0007307 -0.0000093 0.0002008 -0.0001245 -0.0004081
0.0001522 -0.0001082 0.0002895 0.0003536 0.0003459 -0.0000982 0.0002613 -0.0013848 0.0002100 -0.0011079 0.0002855 -0.0003418 0.0002221 -0.0003751 0.0003445 0.0008414 -0.0000008 0.0002674 -0.0001238 -0.0002154
0.0001065 0.0000788 0.0003045 0.0004012 0.0003359 0.0000480 0.0002395 -0.0011747 0.0001900 -0.0008720 0.0002581 -0.0000775 0.0002013 -0.0000834 0.0003297 0.0010786 0.0000064 0.0004444 -0.0001313 0.0000786
0.0000290 0.0003618 0.0002960 0.0005210 0.0003119 0.0002340 0.0001891 -0.0009176 0.0001517 -0.0006786 0.0002036 0.0000413 0.0001631 -0.0000304 0.0003042 0.0010052 -0.0000157 0.0003846 -0.0001640 -0.0000634
0.0000167 0.0002566 0.0002724 0.0004696 0.0002891 0.0001508 0.0001230 -0.0009649 0.0001094 -0.0008098 0.0001467 -0.0001701 0.0001445 -0.0002774 0.0002953 0.0006943 -0.0000347 0.0001124 -0.0001638 -0.0003869
0.0000753 -0.0000002 0.0003158 0.0003111 0.0002864 -0.0000286 0.0000895 -0.0010925 0.0001007 -0.0009189 0.0001345 -0.0002835 0.0001800 -0.0003453 0.0003228 0.0006486 -0.0000065 0.0000548 -0.0001201 -0.0003508
0.0001501 0.0000326 0.0003295 0.0003249 0.0003009 0.0000576 0.0000909 -0.0009526 0.0001179 -0.0007418 0.0001504 -0.0001304 0.0002259 -0.0001605 0.0003518 0.0008082 0.0000269 0.0001859 -0.0001002 -0.0001708
0.0002111 0.0001754 0.0003176 0.0004144 0.0003168 0.0002625 0.0000871 -0.0007475 0.0001257 -0.0004985 0.0001559 0.0000968 0.0002375 0.0000793 0.0003621 0.0009282 0.0000416 0.0002834 -0.0001049 -0.0001821
0.0001955 0.0002330 0.0003286 0.0004063 0.0003299 0.0002926 0.0000765 -0.0007576 0.0001222 -0.0005873 0.0001475 -0.0000603 0.0002261 -0.0001195 0.0003635 0.0006767 0.0000274 0.0000578 -0.0001081 -0.0005031
0.0001808 0.0000013 0.0003565 0.0002174 0.0003408 0.0000953 0.0000851 -0.0010087 0.0001335 -0.0008730 0.0001688 -0.0003757 0.0002474 -0.0004406 0.0003847 0.0004093 0.0000465 -0.0001821 -0.0000620 -0.0006592
0.0002365 -0.0001801 0.0003838 0.0001503 0.0003496 0.0000013 0.0001314 -0.0010869 0.0001712 -0.0008644 0.0002354 -0.0003019 0.0003106 -0.0003452 0.0004215 0.0004905 0.0000756 -0.0001129 -0.0000143 -0.0005325
0.0002541 -0.0000686 0.0003783 0.0002705 0.0003546 0.0001030 0.0001853 -0.0009288 0.0002023 -0.0006507 0.0002892 -0.0000387 0.0003606 -0.0000832 0.0004435 0.0007309 0.0000791 0.0000746 0.0000097 -0.0002680
0.0002344 0.0001382 0.0003630 0.0004073 0.0003414 0.0002756 0.0002063 -0.0007029 0.0002021 -0.0003767 0.0003023 0.0002921 0.0003585 0.0002367 0.0004387 0.0010126 0.0000814 0.0003217 0.0000220 0.0000184
0.0002411 0.0003148 0.0003388 0.0005520 0.0003214 0.0004574 0.0001916 -0.0004773 0.0001840 -0.0001303 0.0002807 0.0005801 0.0003191 0.0005246 0.0004133 0.0012719 0.0000727 0.0005288 0.0000206 0.0003138
0.0002318 0.0005174 0.0003131 0.0006891 0.0002909 0.0006349 0.0001443 -0.0002297 0.0001533 0.0001312 0.0002380 0.0008516 0.0002656 0.0008204 0.0003731 0.0015656 0.0000351 0.0007391 0.0000117 0.0006534
0.0001893 0.0007832 0.0002721 0.0008147 0.0002674 0.0007796 0.0000837 -0.0000492 0.0001204 0.0002021 0.0001777 0.0007822 0.0001836 0.0006991 0.0003240 0.0013238 -0.0000264 0.0005419 -0.0000543 0.0002740
0.0001486 0.0005598 0.0002467 0.0006755 0.0002472 0.0005974 0.0000416 -0.0003021 0.0000979 -0.0001246 0.0001314 0.0003125 0.0001113 0.0001578 0.0002991 0.0007474 -0.0000937 -0.0000578 -0.0000231 -0.0001137
0.0000799 0.0000174 0.0002480 0.0003584 0.0001798 0.0001528 0.0000376 -0.0006438 0.0000824 -0.0004002 0.0001475 0.0001339 0.0001062 -0.0000386 0.0003082 0.0006382 -0.0001208 -0.0002561 0.0000803 0.0001192
0.0000266 -0.0001267 0.0002180 0.0002970 0.0001330 0.0000197 0.0000497 -0.0006322 0.0000792 -0.0003356 0.0001840 0.0003398 0.0001324 0.0001610 0.0003214 0.0008133 -0.0000828 -0.0000528 0.0000976 0.0002482
-0.0000116 0.0000332 0.0002191 0.0003844 0.0001365 0.0001881 0.0000410 -0.0004608 0.0000779 -0.0001224 0.0001896 0.0006136 0.0001463 0.0004384 0.0003258 0.0010394 -0.0000314 0.0001867 0.0000852 0.0004303
-0.0000096 0.0002038 0.0002311 0.0005218 0.0001372 0.0003969 0.0000079 -0.0002243 0.0000608 0.0001276 0.0001740 0.0008463 0.0001375 0.0005829 0.0003205 0.0010289 -0.0000112 0.0002190 0.0000387 0.0002348
0.0000359 0.0000618 0.0002161 0.0005122 0.0001442 0.0003782 -0.0000366 -0.0002932 0.0000446 -0.0000274 0.0001530 0.0006120 0.0001274 0.0002928 0.0003234 0.0007035 -0.0000024 -0.0000119 0.0000170 -0.0002020
0.0000895 -0.0002747 0.0002294 0.0003270 0.0001613 0.0001970 -0.0000354 -0.0005925 0.0000647 -0.0003564 0.0001863 0.0002444 0.0001757 -0.0000303 0.0003563 0.0004879 0.0000367 -0.0001578 0.0000485 -0.0003329
0.0001728 -0.0004479 0.0002762 0.0002514 0.0001892 0.0001702 0.0000160 -0.0006621 0.0001168 -0.0003575 0.0002601 0.0002801 0.0002469 0.0000452 0.0003975 0.0005721 0.0000662 -0.0000493 0.0000865 -0.0002202
0.0002264 -0.0003931 0.0002961 0.0003431 0.0002129 0.0002758 0.0000739 -0.0005369 0.0001554 -0.0001902 0.0003104 0.0004884 0.0002807 0.0002833 0.0004184 0.0007901 0.0000789 0.0001516 0.0001061 0.0000235
0.0001717 -0.0001362 0.0002936 0.0004678 0.0002212 0.0004562 0.0000979 -0.0003375 0.0001650 0.0000352 0.0003230 0.0007361 0.0002789 0.0005539 0.0004185 0.0010526 0.0000871 0.0003575 0.0001091 0.0003117
0.0001110 0.0001466 0.0002871 0.0006104 0.0002223 0.0006673 0.0000942 -0.0001221 0.0001527 0.0002669 0.0003036 0.0009748 0.0002477 0.0008392 0.0003952 0.0013526 0.0000816 0.0005823 0.0001078 0.0006264
0.0000899 0.0004293 0.0002638 0.0008011 0.0002150 0.0009200 0.0000761 0.0001192 0.0001201 0.0005311 0.0002700 0.0012363 0.0001960 0.0011484 0.0003538 0.0015872 0.0000469 0.0007669 0.0000644 0.0006532
0.0000499 0.0006077 0.0002349 0.0008796 0.0002014 0.0009858 0.0000449 0.0001407 0.0000865 0.0004320 0.0002165 0.0010123 0.0001324 0.0008775 0.0003057 0.0012383 0.0000060 0.0004866 -0.0000071 0.0001924
0.0000614 0.0002912 0.0002189 0.0007297 0.0001820 0.0007531 0.0000312 -0.0002097 0.0000791 0.0000221 0.0001798 0.0004855 0.0001098 0.0003440 0.0002838 0.0007644 -0.0000028 0.0001225 -0.0000143 -0.0001305
0.0001134 -0.0000105 0.0002198 0.0005768 0.0001775 0.0006104 0.0000530 -0.0004252 0.0000989 -0.0001071 0.0001905 0.0003626 0.0001279 0.0003159 0.0002936 0.0007658 0.0000132 0.0001388 0.0000119 -0.0000447
0.0001183 0.0001006 0.0002321 0.0005965 0.0001850 0.0006815 0.0000711 -0.0003105 0.0001149 0.0000410 0.0002010 0.0005369 0.0001351 0.0005363 0.0003037 0.0009375 0.0000215 0.0002858 0.0000232 0.0001863
0.0001046 0.0002823 0.0002313 0.0007323 0.0001846 0.0008264 0.0000541 -0.0001009 0.0001076 0.0002651 0.0001905 0.0007914 0.0001185 0.0008280 0.0002985 0.0011968 0.0000122 0.0005043 0.0000224 0.0004833
0.0000304 0.0005482 0.0002247 0.0008899 0.0001790 0.0010170 0.0000088 0.0001465 0.0000789 0.0005049 0.0001621 0.0010458 0.0000834 0.0011235 0.0002761 0.0014910 -0.0000013 0.0007394 0.0000047 0.0007985
-0.0000664 0.0008860 0.0001900 0.0010713 0.0001665 0.0012616 -0.0000536 0.0004145 0.0000310 0.0007573 0.0001168 0.0013170 0.0000315 0.0014265 0.0002457 0.0018072 -0.0000215 0.0009920 -0.0000127 0.0010986
-0.0000948 0.0011152 0.0001529 0.0012262 0.0001546 0.0014270 -0.0001093 0.0005473 -0.0000135 0.0007857 0.0000614 0.0012377 -0.0000374 0.0012854 0.0001987 0.0015768 -0.0000635 0.0008320 -0.0000752 0.0007306
-0.0000800 0.0008731 0.0001691 0.0010614 0.0001343 0.0012556 -0.0001447 0.0002821 -0.0000380 0.0004534 0.0000155 0.0007893 -0.0000806 0.0008166 0.0001625 0.0010847 -0.0000947 0.0004691 -0.0001139 0.0002065
-0.0000352 0.0005232 0.0001639 0.0008833 0.0001187 0.0010347 -0.0001485 0.0000074 -0.0000332 0.0002282 0.0000107 0.0005682 -0.0000718 0.0006870 0.0001610 0.0010142 -0.0000823 0.0004119 -0.0000918 0.0002440
0.0000273 0.0004785 0.0001484 0.0009116 0.0001212 0.0010366 -0.0001219 0.0000352 -0.0000157 0.0003002 0.0000253 0.0006584 -0.0000528 0.0008416 0.0001646 0.0011361 -0.0000778 0.0005200 -0.0000822 0.0004297
0.0000345 0.0005832 0.0001633 0.0009549 0.0001193 0.0011224 -0.0001259 0.0001893 -0.0000190 0.0004708 0.0000165 0.0008609 -0.0000613 0.0010850 0.0001562 0.0013270 -0.0000849 0.0006901 -0.0000937 0.0006009
-0.0000085 0.0007300 0.0001670 0.0009899 0.0001191 0.0011597 -0.0001687 0.0002644 -0.0000398 0.0004329 -0.0000170 0.0007363 -0.0001012 0.0009242 0.0001361 0.0010906 -0.0000681 0.0004705 -0.0001188 0.0003429
-0.0000379 0.0005225 0.0001747 0.0008563 0.0001166 0.0009709 -0.0001928 0.0000233 -0.0000523 0.0001372 -0.0000329 0.0003331 -0.0001091 0.0005220 0.0001436 0.0007182 -0.0000566 0.0001614 -0.0000866 0.0000590
-0.0000455 0.0002662 0.0001962 0.0007075 0.0001140 0.0007773 -0.0001751 -0.0001618 -0.0000414 -0.0000010 -0.0000074 0.0001906 -0.0000595 0.0004476 0.0001858 0.0007362 -0.0000443 0.0001747 -0.0000270 0.0001498
-0.0000027 0.0003251 0.0001948 0.0007347 0.0001216 0.0007622 -0.0001253 -0.0000932 -0.0000135 0.0000954 0.0000283 0.0003052 -0.0000147 0.0005859 0.0002020 0.0008863 -0.0000390 0.0003258 -0.0000100 0.0003602
0.0000145 0.0005271 0.0001919 0.0008316 0.0001146 0.0008352 -0.0000821 0.0000301 0.0000028 0.0002664 0.0000436 0.0005209 -0.0000063 0.0007884 0.0001907 0.0009904 -0.0000423 0.0004564 -0.0000306 0.0003310
0.0000276 0.0004644 0.0002066 0.0007910 0.0001044 0.0007548 -0.0000766 -0.0000617 -0.0000014 0.0000795 0.0000262 0.0002754 -0.0000275 0.0004962 0.0001783 0.0006874 -0.0000422 0.0002167 -0.0000463 -0.0000440
0.0000856 0.0000540 0.0002091 0.0005820 0.0001104 0.0004743 -0.0000661 -0.0004209 0.0000139 -0.0003409 0.0000291 -0.0002078 -0.0000129 0.0000127 0.0001896 0.0003214 -0.0000271 -0.0000634 -0.0000150 -0.0002621
0.0001224 -0.0001694 0.0002290 0.0004537 0.0001239 0.0003246 -0.0000070 -0.0006203 0.0000573 -0.0004702 0.0000794 -0.0003098 0.0000462 -0.0000433 0.0002190 0.0003264 -0.0000082 -0.0000391 0.0000300 -0.0001813
0.0001467 -0.0001490 0.0002621 0.0004612 0.0001376 0.0003578 0.0000560 -0.0005654 0.0000918 -0.0003725 0.0001225 -0.0001847 0.0000740 0.0001161 0.0002318 0.0005014 -0.0000005 0.0001332 0.0000546 0.0000427
0.0001502 -0.0000267 0.0002429 0.0005692 0.0001424 0.0004674 0.0000855 -0.0004206 0.0000967 -0.0001908 0.0001298 0.0000290 0.0000654 0.0003467 0.0002263 0.0007415 0.0000137 0.0003393 0.0000681 0.0003092
0.0000737 0.0002499 0.0002136 0.0007220 0.0001304 0.0006227 0.0000791 -0.0002281 0.0000789 0.0000077 0.0001115 0.0002482 0.0000352 0.0005873 0.0002047 0.0010171 -0.0000116 0.0005672 0.0000615 0.0006076
0.0000102 0.0005373 0.0001950 0.0008757 0.0001087 0.0008026 0.0000495 -0.0000179 0.0000456 0.0002329 0.0000726 0.0004891 -0.0000108 0.0008721 0.0001673 0.0013376 -0.0000431 0.0008290 0.0000272 0.0009413
0.0000030 0.0007337 0.0001662 0.0010139 0.0000898 0.0009312 0.0000085 0.0001063 0.0000104 0.0002530 0.0000118 0.0003904 -0.0000810 0.0007051 0.0001110 0.0010679 -0.0000666 0.0006120 -0.0000544 0.0005240
0.0000012 0.0004530 0.0001361 0.0008304 0.0000576 0.0006816 -0.0000303 -0.0002164 -0.0000158 -0.0001511 -0.0000389 -0.0001303 -0.0001340 0.0001398 0.0000791 0.0004777 -0.0000876 0.0001346 -0.0000972 -0.0001524
0.0000298 -0.0000241 0.0001441 0.0005488 0.0000349 0.0003347 -0.0000251 -0.0006332 -0.0000142 -0.0004790 -0.0000319 -0.0004301 -0.0001191 -0.0001046 0.0000905 0.0003248 -0.0000961 0.0000239 -0.0000735 -0.0001999
0.0000537 -0.0001337 0.0001697 0.0004603 0.0000305 0.0002419 0.0000034 -0.0006890 0.0000063 -0.0004507 0.0000081 -0.0003425 -0.0000794 0.0000123 0.0001134 0.0004168 -0.0000734 0.0000972 -0.0000602 -0.0000372
0.0000048 -0.0000601 0.0001693 0.0004689 0.0000148 0.0002476 -0.0000131 -0.0005615 -0.0000004 -0.0002868 0.0000243 -0.0001127 -0.0000558 0.0002625 0.0001349 0.0006430 -0.0000491 0.0002538 -0.0000393 0.0002399
-0.0000206 0.0001259 0.0001474 0.0005715 0.0000085 0.0003823 -0.0000613 -0.0003580 -0.0000250 -0.0001079 0.0000235 0.0000565 -0.0000683 0.0003426 0.0001406 0.0006315 -0.0000420 0.0002375 -0.0000433 0.0001549
-0.0000632 0.0000954 0.0001503 0.0005157 0.0000114 0.0002958 -0.0000991 -0.0004928 -0.0000494 -0.0003414 0.0000471 -0.0000884 -0.0000718 0.0000869 0.0001644 0.0003857 -0.0000359 0.0000542 -0.0000366 -0.0001360
-0.0000743 -0.0001817 0.0001489 0.0003427 0.0000186 0.0000505 -0.0000674 -0.0007976 -0.0000395 -0.0006858 0.0001328 -0.0002160 -0.0000016 -0.0000968 0.0002143 0.0002924 -0.0000335 -0.0000005 0.0000196 -0.0000930
0.0000281 -0.0002955 0.0001588 0.0003096 0.0000433 -0.0000189 0.0000198 -0.0008709 0.0000071 -0.0007161 0.0002276 -0.0001245 0.0000823 -0.0000205 0.0002567 0.0004022 -0.0000162 0.0000551 0.0000614 0.0001106
0.0001028 -0.0002384 0.0001859 0.0004019 0.0000465 -0.0000287 0.0000886 -0.0007720 0.0000373 -0.0006561 0.0003042 0.0001287 0.0001380 0.0002165 0.0003267 0.0007791 0.0000435 0.0002717 0.0001086 0.0004103
0.0001351 -0.0001724 0.0001782 0.0004514 0.0000299 -0.0001404 0.0001088 -0.0007314 0.0000484 -0.0007520 0.0003350 0.0001224 0.0001493 0.0001232 0.0003784 0.0008057 0.0000619 0.0002300 0.0001285 0.0003464
0.0001846 -0.0004017 0.0001593 0.0002688 0.0000421 -0.0003317 0.0001303 -0.0009422 0.0000745 -0.0010388 0.0003398 -0.0002629 0.0001532 -0.0003041 0.0003833 0.0004451 0.0000553 -0.0000614 0.0001398 0.0000757
0.0001904 -0.0006328 0.0001539 0.0000891 0.0000826 -0.0004236 0.0001887 -0.0010903 0.0001224 -0.0011554 0.0003770 -0.0004357 0.0001950 -0.0004542 0.0004029 0.0003858 0.0000853 -0.0001150 0.0001838 0.0001096
0.0001773 -0.0005894 0.0001932 0.0000919 0.0001197 -0.0003655 0.0002414 -0.0010626 0.0001545 -0.0010741 0.0004017 -0.0003932 0.0002152 -0.0004040 0.0004106 0.0004975 0.0000767 0.0000269 0.0002020 0.0003171
0.0001470 -0.0004420 0.0002041 0.0001645 0.0001445 -0.0002035 0.0002669 -0.0009802 0.0001525 -0.0010034 0.0004042 -0.0003699 0.0002004 -0.0004601 0.0004007 0.0004271 0.0000758 -0.0000062 0.0001871 0.0002134
0.0000991 -0.0004777 0.0001874 0.0001151 0.0001486 -0.0002792 0.0002690 -0.0012221 0.0001298 -0.0012353 0.0003943 -0.0006440 0.0001915 -0.0007632 0.0003980 0.0001661 0.0000902 -0.0002446 0.0001960 -0.0000718
0.0001562 -0.0006834 0.0002076 -0.0000323 0.0001762 -0.0003876 0.0003163 -0.0015152 0.0001437 -0.0014762 0.0004152 -0.0008684 0.0002258 -0.0009226 0.0004106 0.0001008 0.0000906 -0.0003285 0.0002394 0.0000192
0.0002161 -0.0006655 0.0002123 -0.0000597 0.0002053 -0.0003271 0.0003967 -0.0014560 0.0001804 -0.0014361 0.0004540 -0.0007729 0.0002672 -0.0008107 0.0004239 0.0002245 0.0000751 -0.0002711 0.0002599 0.0001803
0.0002102 -0.0007017 0.0001815 -0.0000535 0.0001059 -0.0006107 0.0004019 -0.0013831 0.0001825 -0.0013827 0.0004623 -0.0006656 0.0002625 -0.0007182 0.0003688 0.0001574 0.0000516 -0.0002397 0.0002331 0.0001706
0.0001694 -0.0010270 0.0001667 -0.0001569 0.0000137 -0.0010472 0.0003925 -0.0014175 0.0000106 -0.0024280 0.0004762 -0.0011855 0.0002346 -0.0010772 0.0002923 -0.0003688 0.0000177 -0.0005489 0.0001816 -0.0001943
0.0000496 -0.0016545 0.0001793 -0.0003469 0.0000721 -0.0012435 0.0004885 -0.0015380 -0.0001075 -0.0038233 0.0005205 -0.0018149 0.0002303 -0.0016330 0.0003934 -0.0004505 0.0000703 -0.0007201 0.0001866 -0.0004586
-0.0000507 -0.0020738 0.0000494 -0.0009167 0.0001313 -0.0013584 0.0005908 -0.0016419 -0.0000033 -0.0039796 0.0006070 -0.0017508 0.0003389 -0.0014369 0.0006463 0.0003308 0.0001952 -0.0003692 0.0002200 -0.0003631
-0.0000021 -0.0019102 -0.0000722 -0.0013859 0.0001763 -0.0012805 0.0006121 -0.0017460 0.0000458 -0.0037509 0.0006739 -0.0014168 0.0004500 -0.0009863 0.0008088 0.0009906 0.0002584 -0.0000318 0.0002509 -0.0000911
0.0000088 -0.0018111 -0.0000533 -0.0013234 0.0001738 -0.0011925 0.0006314 -0.0016554 0.0000376 -0.0036112 0.0006654 -0.0012891 0.0004259 -0.0010916 0.0007585 0.0007331 0.0001717 -0.0003647 0.0002883 -0.0000232
-0.0000886 -0.0024857 -0.0001408 -0.0016482 -0.0000190 -0.0020963 0.0007259 -0.0015924 -0.0000716 -0.0045559 0.0004428 -0.0019739 0.0003985 -0.0016156 0.0007203 0.0001929 0.0000247 -0.0011612 0.0003401 -0.0002325
-0.0001045 -0.0035342 -0.0002183 -0.0021223 -0.0001841 -0.0031217 0.0008045 -0.0018923 -0.0000483 -0.0051000 0.0002802 -0.0023772 0.0004715 -0.0018300 0.0008015 0.0002062 0.0000347 -0.0013986 0.0003832 -0.0004252
-0.0000300 -0.0039682 -0.0001405 -0.0020783 -0.0001582 -0.0030952 0.0007970 -0.0021684 0.0001547 -0.0042001 0.0003622 -0.0020494 0.0005666 -0.0016581 0.0008511 0.0003449 0.0001017 -0.0011766 0.0003709 -0.0005847
0.0000920 -0.0035238 -0.0000525 -0.0018282 -0.0000349 -0.0025175 0.0008078 -0.0021112 0.0002539 -0.0036023 0.0003916 -0.0018706 0.0006032 -0.0014840 0.0008702 0.0005058 0.0001247 -0.0009562 0.0003567 -0.0004719
0.0001491 -0.0029904 -0.0000023 -0.0015642 0.0000494 -0.0020815 0.0008482 -0.0018801 0.0002689 -0.0033718 0.0004185 -0.0015900 0.0006365 -0.0010958 0.0008835 0.0008184 0.0001382 -0.0006763 0.0003857 -0.0001526
0.0000860 -0.0026209 0.0000133 -0.0013075 0.0000600 -0.0019479 0.0008479 -0.0016792 0.0002706 -0.0032565 0.0004052 -0.0015843 0.0005986 -0.0011869 0.0008520 0.0006853 0.0001193 -0.0007463 0.0003459 -0.0003547
0.0000388 -0.0025930 -0.0000117 -0.0014521 0.0000640 -0.0019989 0.0008355 -0.0018377 0.0002667 -0.0034162 0.0003863 -0.0019236 0.0005602 -0.0016231 0.0008208 0.0002866 0.0001361 -0.0010219 0.0002689 -0.0008874
0.0000168 -0.0027418 0.0000083 -0.0015690 0.0000836 -0.0020544 0.0008804 -0.0020929 0.0002766 -0.0035894 0.0004287 -0.0019978 0.0006124 -0.0016450 0.0008452 0.0003288 0.0001649 -0.0009425 0.0002597 -0.0009370
0.0000275 -0.0026820 0.0000370 -0.0014203 0.0001423 -0.0017730 0.0009259 -0.0020290 0.0003084 -0.0034240 0.0004664 -0.0018198 0.0006469 -0.0014668 0.0008684 0.0005409 0.0001884 -0.0006900 0.0002786 -0.0007119
0.0000832 -0.0024743 0.0000600 -0.0012365 0.0002261 -0.0013075 0.0009316 -0.0018046 0.0003201 -0.0031645 0.0004867 -0.0015565 0.0006613 -0.0011843 0.0008754 0.0007747 0.0002282 -0.0004205 0.0003009 -0.0003997
0.0001355 -0.0020835 0.0000875 -0.0009967 0.0003011 -0.0008008 0.0009259 -0.0015040 0.0003360 -0.0029140 0.0004803 -0.0014192 0.0006469 -0.0011050 0.0008682 0.0007601 0.0002320 -0.0003953 0.0002815 -0.0004670
0.0001721 -0.0021427 0.0000889 -0.0010666 0.0003108 -0.0008068 0.0008938 -0.0016096 0.0003360 -0.0030549 0.0004607 -0.0016511 0.0006271 -0.0013316 0.0008598 0.0005300 0.0002129 -0.0006077 0.0002739 -0.0007294
0.0002087 -0.0023871 0.0001068 -0.0012270 0.0003046 -0.0010100 0.0008803 -0.0018531 0.0003372 -0.0032826 0.0004785 -0.0018161 0.0006533 -0.0013977 0.0008605 0.0004684 0.0001947 -0.0006534 0.0002842 -0.0006716
0.0001773 -0.0022189 0.0001178 -0.0011258 0.0003429 -0.0008322 0.0009131 -0.0016885 0.0003620 -0.0031264 0.0005188 -0.0016236 0.0006864 -0.0011748 0.0008620 0.0006214 0.0002139 -0.0004823 0.0002725 -0.0004650
0.0001433 -0.0018871 0.0001276 -0.0009298 0.0004035 -0.0004722 0.0009460 -0.0013939 0.0003733 -0.0027945 0.0005287 -0.0013099 0.0006888 -0.0008433 0.0008568 0.0009072 0.0002349 -0.0002138 0.0002620 -0.0001481
0.0001317 -0.0015485 0.0001364 -0.0007532 0.0004312 -0.0001308 0.0009460 -0.0010761 0.0003614 -0.0024566 0.0005192 -0.0009880 0.0006694 -0.0005651 0.0008389 0.0009954 0.0002214 -0.0001190 0.0002030 -0.0002157
0.0000828 -0.0015093 0.0001094 -0.0007701 0.0004150 -0.0001379 0.0009131 -0.0010829 0.0003270 -0.0026049 0.0004970 -0.0011769 0.0006665 -0.0007074 0.0008192 0.0007125 0.0001966 -0.0003483 0.0001611 -0.0005397
0.0000997 -0.0018119 0.0000947 -0.0008922 0.0004120 -0.0003102 0.0009248 -0.0012984 0.0003366 -0.0028882 0.0004792 -0.0015419 0.0006777 -0.0009696 0.0008184 0.0005346 0.0001872 -0.0005244 0.0001841 -0.0005551
0.0001588 -0.0019283 0.0000762 -0.0009415 0.0003995 -0.0003806 0.0009546 -0.0012766 0.0003699 -0.0027896 0.0004852 -0.0014630 0.0006811 -0.0008758 0.0008144 0.0006343 0.0001815 -0.0004217 0.0001942 -0.0003142
0.0001320 -0.0017229 0.0000466 -0.0008493 0.0003732 -0.0003082 0.0009245 -0.0010136 0.0003706 -0.0025096 0.0004994 -0.0011228 0.0006808 -0.0005175 0.0008118 0.0009166 0.0002084 -0.0001675 0.0002021 0.0000490
0.0000981 -0.0014515 0.0000472 -0.0006705 0.0003647 -0.0001135 0.0008890 -0.0006486 0.0003518 -0.0021871 0.0005097 -0.0006966 0.0006590 -0.0001768 0.0008136 0.0011150 0.0002260 -0.0000278 0.0001636 0.0000158
0.0000240 -0.0013623 0.0000548 -0.0006592 0.0003571 -0.0001215 0.0008593 -0.0006073 0.0003154 -0.0022788 0.0004889 -0.0007786 0.0006291 -0.0002873 0.0007904 0.0009334 0.0001947 -0.0001166 0.0000923 -0.0002909
-0.0000619 -0.0014651 0.0000704 -0.0006620 0.0003564 -0.0002158 0.0008141 -0.0008271 0.0002887 -0.0024665 0.0004646 -0.0010671 0.0006199 -0.0004645 0.0007412 0.0006957 0.0002049 -0.0001953 0.0000702 -0.0002521
-0.0000822 -0.0016041 0.0001027 -0.0005492 0.0003718 -0.0001044 0.0007934 -0.0008829 0.0002883 -0.0023454 0.0004747 -0.0009367 0.0006371 -0.0002641 0.0007222 0.0007972 0.0002428 -0.0000558 0.0000957 -0.0000043
-0.0000819 -0.0014598 0.0000751 -0.0004843 0.0003529 0.0000692 0.0008056 -0.0006270 0.0002855 -0.0020665 0.0004932 -0.0005113 0.0006366 0.0001422 0.0007475 0.0012454 0.0002318 0.0002357 0.0001439 0.0004140
-0.0000236 -0.0009287 0.0000520 -0.0003657 0.0003531 0.0003172 0.0007825 -0.0003031 0.0002544 -0.0018858 0.0004555 -0.0003802 0.0005621 0.0001685 0.0007294 0.0012296 0.0001771 0.0001451 0.0000986 0.0003583
0.0000461 -0.0008344 0.0000861 -0.0003606 0.0003729 0.0003615 0.0007173 -0.0004165 0.0002128 -0.0020728 0.0003748 -0.0007351 0.0004903 -0.0001754 0.0006754 0.0008180 0.0001412 -0.0001332 0.0000221 -0.0000027
0.0000336 -0.0010748 0.0000889 -0.0004915 0.0003471 0.0002121 0.0006578 -0.0005975 0.0001922 -0.0021696 0.0003534 -0.0008192 0.0004834 -0.0001754 0.0006608 0.0008103 0.0001400 -0.0000955 0.0000266 0.0000850
0.0000035 -0.0009106 0.0000662 -0.0004065 0.0003186 0.0002241 0.0006265 -0.0004255 0.0001823 -0.0019421 0.0003600 -0.0005547 0.0004770 0.0001230 0.0006567 0.0010369 0.0001252 0.0000871 0.0000394 0.0003558
-0.0000365 -0.0005241 0.0000549 -0.0002115 0.0002884 0.0003173 0.0005960 -0.0001632 0.0001620 -0.0016192 0.0003479 -0.0002368 0.0004486 0.0003888 0.0006208 0.0010747 0.0000872 0.0001435 -0.0000079 0.0003230
-0.0001168 -0.0004587 0.0000575 -0.0002311 0.0002585 0.0002443 0.0005579 -0.0001713 0.0001271 -0.0016836 0.0003138 -0.0003662 0.0004172 0.0002376 0.0005903 0.0008415 0.0000665 -0.0000374 -0.0000599 0.0000556
-0.0001317 -0.0006771 0.0000783 -0.0004068 0.0002393 0.0000654 0.0005395 -0.0003357 0.0001106 -0.0018891 0.0002976 -0.0006061 0.0004135 0.0000475 0.0005929 0.0007674 0.0000701 -0.0001003 -0.0000724 0.0000551
-0.0001163 -0.0006255 0.0000625 -0.0003985 0.0002459 0.0001359 0.0005632 -0.0002480 0.0001342 -0.0017408 0.0003073 -0.0004575 0.0004187 0.0001972 0.0006033 0.0009512 0.0000953 0.0000388 -0.0000974 0.0002192
-0.0000938 -0.0003728 0.0000352 -0.0002185 0.0002710 0.0004085 0.0005620 -0.0000079 0.0001467 -0.0014723 0.0002929 -0.0002079 0.0003970 0.0004573 0.0005947 0.0012345 0.0001116 0.0002847 -0.0001281 0.0004472
-0.0000901 -0.0001670 0.0000310 -0.0001106 0.0002957 0.0006047 0.0005048 0.0001043 0.0001165 -0.0014465 0.0002537 -0.0002412 0.0003476 0.0003792 0.0005691 0.0011326 0.0000993 0.0002528 -0.0001797 0.0002774
-0.0001607 -0.0002468 0.0000293 -0.0002194 0.0003068 0.0005526 0.0004531 -0.0000604 0.0000850 -0.0016863 0.0002260 -0.0005212 0.0003163 0.0001037 0.0005630 0.0008828 0.0000985 0.0000915 -0.0001971 0.0000465
-0.0002015 -0.0002989 0.0000494 -0.0002950 0.0003290 0.0005736 0.0004252 -0.0001448 0.0000739 -0.0017212 0.0002317 -0.0005210 0.0003256 0.0001887 0.0005845 0.0010207 0.0001017 0.0002007 -0.0001726 0.0001946
-0.0001846 -0.0001170 0.0000570 -0.0002038 0.0003593 0.0007920 0.0004266 0.0000233 0.0000698 -0.0014871 0.0002342 -0.0002745 0.0003239 0.0004755 0.0005944 0.0013053 0.0000967 0.0003767 -0.0001732 0.0004792
-0.0001983 0.0002646 0.0000285 -0.0000048 0.0003924 0.0011458 0.0004156 0.0002970 0.0000546 -0.0011580 0.0002138 0.0000527 0.0002887 0.0008063 0.0005735 0.0015822 0.0000718 0.0005945 -0.0002183 0.0006328
-0.0002297 0.0005333 0.0000226 0.0000349 0.0004069 0.0013127 0.0003666 0.0003507 0.0000118 -0.0011891 0.0001672 -0.0000716 0.0002303 0.0006491 0.0005302 0.0013617 0.0000387 0.0004393 -0.0002717 0.0003598
-0.0002286 0.0002845 0.0000095 -0.0001344 0.0003876 0.0011360 0.0003358 0.0001042 -0.0000547 -0.0017046 0.0001254 -0.0004843 0.0002006 0.0002893 0.0005060 0.0010273 0.0000274 0.0001519 -0.0002842 0.0001830
-0.0002162 0.0000753 -0.0000035 -0.0002181 0.0004035 0.0011463 0.0003326 0.0000605 -0.0000638 -0.0018342 0.0001245 -0.0005205 0.0002081 0.0003186 0.0005174 0.0011168 0.0000216 0.0002092 -0.0002900 0.0002934
-0.0002389 0.0001693 -0.0000003 -0.0001647 0.0004444 0.0013903 0.0003126 0.0002622 -0.0000195 -0.0014218 0.0001464 -0.0002335 0.0002026 0.0005609 0.0005319 0.0013810 0.0000231 0.0004156 -0.0003045 0.0005188
-0.0002776 0.0004262 -0.0000099 -0.0000599 0.0004529 0.0016200 0.0002762 0.0005079 -0.0000216 -0.0010449 0.0001484 0.0000940 0.0001686 0.0007694 0.0005296 0.0014826 0.0000207 0.0004750 -0.0003384 0.0005017
-0.0003490 0.0004709 -0.0000298 -0.0000921 0.0004394 0.0015692 0.0002293 0.0004486 -0.0000617 -0.0011656 0.0001079 -0.0001575 0.0001098 0.0004512 0.0005199 0.0012138 -0.0000112 0.0001714 -0.0003365 0.0002904
-0.0003722 0.0002606 -0.0000550 -0.0002150 0.0004185 0.0013286 0.0001970 0.0001721 -0.0000829 -0.0014572 0.0000748 -0.0005312 0.0000516 -0.0000183 0.0005257 0.0010061 -0.0000918 -0.0002175 -0.0002381 0.0005005
-0.0003520 0.0003042 -0.0000448 -0.0002547 0.0004021 0.0012833 0.0002075 0.0001670 -0.0000715 -0.0013679 0.0001441 -0.0001489 0.0000213 -0.0000650 0.0005293 0.0010775 -0.0001218 -0.0002626 -0.0001374 0.0010447
-0.0003236 0.0004589 -0.0000395 -0.0001416 0.0004108 0.0014701 0.0002232 0.0003759 -0.0000645 -0.0011162 0.0001791 0.0002291 0.0000096 0.0001579 0.0005120 0.0012944 -0.0000707 0.0000746 -0.0001079 0.0014919
-0.0002920 0.0006813 -0.0000352 0.0000504 0.0004370 0.0017658 0.0002094 0.0006290 -0.0000850 -0.0009858 0.0001138 0.0000842 -0.0000272 0.0001452 0.0004757 0.0011468 -0.0000503 0.0001148 -0.0001346 0.0013556
-0.0002998 0.0006036 -0.0000305 -0.0000241 0.0004444 0.0017321 0.0001637 0.0004702 -0.0001045 -0.0012095 0.0000903 -0.0002240 -0.0000432 -0.0001301 0.0004749 0.0008294 -0.0000642 -0.0001649 -0.0001286 0.0011388
-0.0002720 0.0002304 -0.0000416 -0.0002075 0.0004333 0.0015046 0.0001535 0.0002046 -0.0000849 -0.0013400 0.0001222 -0.0002796 -0.0000065 -0.0001276 0.0005072 0.0009008 -0.0000624 -0.0002038 -0.0000846 0.0012811
-0.0002474 0.0001188 -0.0000412 -0.0002339 0.0004265 0.0014669 0.0001965 0.0003443 -0.0000889 -0.0013132 0.0000441 -0.0006194 0.0000391 0.0001918 0.0005776 0.0013659 -0.0000404 0.0000011 -0.0000788 0.0014501
-0.0003332 0.0003682 -0.0000686 -0.0001514 0.0004365 0.0016549 0.0001841 0.0005523 -0.0001172 -0.0011632 -0.0000163 -0.0005973 0.0000454 0.0005794 0.0006302 0.0019123 -0.0000185 0.0004108 -0.0001176 0.0015024
-0.0003943 0.0006437 -0.0001100 -0.0000826 0.0004954 0.0019830 0.0001419 0.0005742 -0.0001431 -0.0011046 0.0000123 -0.0003476 0.0000235 0.0005372 0.0006337 0.0018989 -0.0000108 0.0004955 -0.0001919 0.0011167
-0.0003225 0.0005206 -0.0001072 -0.0001788 0.0005830 0.0021924 0.0001407 0.0003884 -0.0001999 -0.0014905 -0.0000182 -0.0006873 0.0000333 0.0003017 0.0006735 0.0018049 -0.0000032 0.0003595 -0.0002219 0.0007997
-0.0002240 0.0004943 -0.0001210 -0.0002060 0.0006223 0.0023132 0.0001559 0.0003214 -0.0002141 -0.0015693 -0.0000325 -0.0006808 0.0000305 0.0003363 0.0006827 0.0019124 -0.0000142 0.0004302 -0.0001643 0.0010241
0.0000751 0.0015112 -0.0000905 0.0001057 0.0005995 0.0024935 0.0001860 0.0006519 -0.0001371 -0.0008512 -0.0000254 -0.0001492 -0.0000322 0.0005103 0.0006208 0.0019496 -0.0000192 0.0005944 -0.0001393 0.0013575
0.0002748 0.0024802 -0.0000103 0.0004863 0.0005096 0.0025034 0.0001501 0.0009356 -0.0001069 -0.0002529 -0.0000053 0.0004050 -0.0000907 0.0007416 0.0005628 0.0019427 -0.0000047 0.0007330 -0.0002156 0.0012457
0.0000874 0.0021689 0.0000041 0.0004788 0.0004354 0.0022386 0.0000593 0.0007462 -0.0001446 -0.0004634 0.0000006 0.0003202 -0.0000987 0.0006881 0.0005619 0.0018673 0.0000079 0.0006890 -0.0002905 0.0009119
-0.0000866 0.0015381 0.0000109 0.0002975 0.0004461 0.0021214 0.0000256 0.0005093 -0.0001496 -0.0006851 0.0000033 0.0001569 -0.0000727 0.0006405 0.0005952 0.0019752 0.0000329 0.0007440 -0.0002985 0.0009108
-0.0001837 0.0014580 0.0000081 0.0002925 0.0004723 0.0022557 0.0000317 0.0005102 -0.0001525 -0.0005777 -0.0000032 0.0003086 -0.0000663 0.0008531 0.0006143 0.0022622 0.0000395 0.0009551 -0.0002901 0.0011347
-0.0002201 0.0016575 -0.0000358 0.0004322 0.0004692 0.0024485 0.0000185 0.0006475 -0.0001802 -0.0003821 -0.0000353 0.0005453 -0.0000994 0.0011280 0.0005976 0.0025628 0.0000310 0.0012197 -0.0003057 0.0014500
-0.0002128 0.0018375 -0.0000692 0.0005705 0.0004518 0.0025833 -0.0000204 0.0008029 -0.0002163 -0.0003003 -0.0000832 0.0005762 -0.0001492 0.0011324 0.0005610 0.0024744 0.0000154 0.0011540 -0.0003626 0.0012602
-0.0002109 0.0016941 -0.0000797 0.0004923 0.0004359 0.0025127 -0.0000600 0.0006858 -0.0002384 -0.0004824 -0.0001207 0.0003556 -0.0001743 0.0009262 0.0005429 0.0022629 0.0000020 0.0009671 -0.0003963 0.0009677
-0.0001718 0.0014177 -0.0000838 0.0003790 0.0004295 0.0024421 -0.0000852 0.0005749 -0.0002361 -0.0005420 -0.0001287 0.0003585 -0.0001617 0.0009932 0.0005569 0.0024003 0.0000115 0.0011027 -0.0003883 0.0010981
-0.0001517 0.0013974 -0.0001173 0.0004339 0.0004576 0.0026244 -0.0000814 0.0007388 -0.0002301 -0.0003633 -0.0001607 0.0004759 -0.0001441 0.0013097 0.0005972 0.0027628 0.0000231 0.0013539 -0.0003889 0.0013489
-0.0002522 0.0016685 -0.0001265 0.0005540 0.0004986 0.0029422 -0.0000961 0.0009918 -0.0002472 -0.0001947 -0.0002188 0.0004787 -0.0001644 0.0014655 0.0006140 0.0028926 0.0000130 0.0013649 -0.0004273 0.0012525
-0.0003233 0.0017165 -0.0001282 0.0005209 0.0005135 0.0029751 -0.0001275 0.0008961 -0.0002820 -0.0003540 -0.0002685 0.0002550 -0.0002179 0.0012084 0.0005739 0.0026112 -0.0000189 0.0011218 -0.0004557 0.0009283
-0.0002594 0.0015588 -0.0001092 0.0003743 0.0004766 0.0027497 -0.0001394 0.0006614 -0.0002881 -0.0005409 -0.0002872 0.0001200 -0.0002226 0.0010592 0.0005433 0.0024676 -0.0000216 0.0010347 -0.0004487 0.0009100
-0.0002308 0.0016614 -0.0000916 0.0003880 0.0004330 0.0026744 -0.0001291 0.0007504 -0.0002692 -0.0004149 -0.0002761 0.0003042 -0.0001924 0.0012436 0.0005397 0.0025823 -0.0000034 0.0011372 -0.0004435 0.0010554
-0.0002005 0.0017177 -0.0001180 0.0005122 0.0004105 0.0027340 -0.0001176 0.0009387 -0.0002619 -0.0001945 -0.0002740 0.0005682 -0.0001912 0.0014334 0.0005309 0.0026260 -0.0000121 0.0011771 -0.0004682 0.0009973
-0.0001719 0.0015778 -0.0001357 0.0004932 0.0003991 0.0026623 -0.0001289 0.0008793 -0.0002692 -0.0003196 -0.0002926 0.0004093 -0.0002126 0.0012454 0.0005240 0.0024202 -0.0000275 0.0009995 -0.0004892 0.0007434
-0.0001976 0.0013671 -0.0001304 0.0003414 0.0004076 0.0025029 -0.0001371 0.0006741 -0.0002626 -0.0005960 -0.0003041 0.0000763 -0.0001958 0.0010361 0.0005444 0.0023125 -0.0000163 0.0009004 -0.0004618 0.0007131
-0.0002021 0.0012838 -0.0001007 0.0002822 0.0004582 0.0026166 -0.0000990 0.0006844 -0.0002534 -0.0006713 -0.0003333 -0.0001237 -0.0001426 0.0011817 0.0005903 0.0025067 0.0000154 0.0010275 -0.0004310 0.0008709
-0.0002649 0.0014640 -0.0001077 0.0003588 0.0005321 0.0029291 -0.0000583 0.0008072 -0.0002775 -0.0007143 -0.0003956 -0.0003034 -0.0001235 0.0013971 0.0006169 0.0027980 0.0000231 0.0012175 -0.0004137 0.0011318
-0.0003303 0.0017666 -0.0001172 0.0004578 0.0005711 0.0031817 -0.0000554 0.0009322 -0.0003068 -0.0007637 -0.0004459 -0.0004321 -0.0001556 0.0013212 0.0006045 0.0027009 0.0000054 0.0010627 -0.0004331 0.0009369
-0.0002736 0.0015920 -0.0001230 0.0003406 0.0005809 0.0031258 -0.0000597 0.0007660 -0.0003131 -0.0010023 -0.0004659 -0.0007000 -0.0001696 0.0009884 0.0006011 0.0024084 0.0000133 0.0007454 -0.0004286 0.0005581
-0.0001636 0.0012850 -0.0001242 0.0001804 0.0005831 0.0029800 -0.0000363 0.0005569 -0.0002871 -0.0011678 -0.0004440 -0.0007922 -0.0001323 0.0008832 0.0006213 0.0023815 0.0000512 0.0006927 -0.0003930 0.0005522
-0.0000642 0.0012588 -0.0001029 0.0001752 0.0005879 0.0030091 -0.0000062 0.0006324 -0.0002521 -0.0010866 -0.0004186 -0.0006379 -0.0001046 0.0010295 0.0006326 0.0025198 0.0000534 0.0007985 -0.0003739 0.0007078
-0.0000011 0.0014029 -0.0001117 0.0003033 0.0005728 0.0030750 -0.0000079 0.0007930 -0.0002442 -0.0008732 -0.0004260 -0.0003956 -0.0001253 0.0012435 0.0006146 0.0027168 0.0000283 0.0009831 -0.0003703 0.0009576
-0.0000640 0.0017833 -0.0001294 0.0004906 0.0005259 0.0031281 -0.0000424 0.0010209 -0.0002633 -0.0005890 -0.0004653 -0.0001570 -0.0001655 0.0014827 0.0005754 0.0029264 0.0000064 0.0011810 -0.0003914 0.0012186
-0.0001636 0.0021254 -0.0001315 0.0006373 0.0004686 0.0031829 -0.0000919 0.0012515 -0.0003043 -0.0003150 -0.0005158 0.0000939 -0.0002202 0.0017750 0.0005284 0.0031730 -0.0000199 0.0013920 -0.0004215 0.0014604
-0.0002226 0.0023243 -0.0001394 0.0007161 0.0004034 0.0031152 -0.0001434 0.0013483 -0.0003508 -0.0002852 -0.0005729 0.0000093 -0.0002832 0.0016452 0.0004630 0.0028660 -0.0000539 0.0011140 -0.0004755 0.0010880
-0.0002590 0.0021216 -0.0001886 0.0006207 0.0003221 0.0027516 -0.0001828 0.0011526 -0.0003699 -0.0005215 -0.0005985 -0.0003454 -0.0002937 0.0012712 0.0004184 0.0023508 -0.0001002 0.0006673 -0.0004951 0.0006063
-0.0002132 0.0017000 -0.0002028 0.0004737 0.0002531 0.0023933 -0.0001725 0.0009527 -0.0003542 -0.0006073 -0.0005547 -0.0003337 -0.0002553 0.0012458 0.0004140 0.0022802 -0.0001178 0.0006189 -0.0004685 0.0006477
-0.0001791 0.0016037 -0.0001894 0.0004412 0.0002114 0.0022762 -0.0001611 0.0010147 -0.0003353 -0.0004464 -0.0004960 -0.0000033 -0.0002227 0.0014435 0.0004185 0.0023961 -0.0001114 0.0007498 -0.0004625 0.0008244
-0.0002149 0.0017277 -0.0001980 0.0005120 0.0001808 0.0022925 -0.0001989 0.0012174 -0.0003425 -0.0001922 -0.0004768 0.0003742 -0.0002196 0.0017190 0.0004180 0.0026093 -0.0000902 0.0009349 -0.0004753 0.0009757
-0.0002531 0.0017891 -0.0001788 0.0005235 0.0001741 0.0022901 -0.0002559 0.0012996 -0.0003678 -0.0002038 -0.0004914 0.0003319 -0.0002441 0.0015765 0.0004057 0.0023996 -0.0000825 0.0007593 -0.0004901 0.0007327
-0.0003010 0.0015839 -0.0001561 0.0003619 0.0001735 0.0021257 -0.0002965 0.0010791 -0.0003754 -0.0004574 -0.0004899 0.0000377 -0.0002333 0.0012311 0.0004098 0.0020508 -0.0000900 0.0004920 -0.0004616 0.0004900
-0.0003153 0.0013849 -0.0001560 0.0002772 0.0001676 0.0019981 -0.0002878 0.0009374 -0.0003504 -0.0005024 -0.0004492 0.0000326 -0.0001674 0.0012166 0.0004344 0.0020580 -0.0000675 0.0004798 -0.0004069 0.0005835
-0.0002609 0.0013511 -0.0001701 0.0003181 0.0001604 0.0019957 -0.0002401 0.0010174 -0.0003172 -0.0003345 -0.0004000 0.0002572 -0.0001079 0.0013947 0.0004530 0.0022261 -0.0000501 0.0005726 -0.0003692 0.0007968
-0.0002084 0.0014277 -0.0001594 0.0003831 0.0001397 0.0020622 -0.0002016 0.0011797 -0.0002946 -0.0001168 -0.0003756 0.0005577 -0.0000915 0.0016430 0.0004559 0.0024495 -0.0000614 0.0007534 -0.0003787 0.0008886
-0.0001781 0.0014270 -0.0001805 0.0003966 0.0001190 0.0020143 -0.0002042 0.0011854 -0.0002897 -0.0002031 -0.0003796 0.0004359 -0.0001114 0.0014285 0.0004444 0.0022174 -0.0000796 0.0006053 -0.0004123 0.0005789
-0.0001442 0.0010583 -0.0002076 0.0002186 0.0001100 0.0017505 -0.0002092 0.0008403 -0.0002800 -0.0005468 -0.0003655 0.0000660 -0.0001028 0.0009892 0.0004528 0.0018641 -0.0000676 0.0003527 -0.0003936 0.0003112
-0.0001354 0.0007902 -0.0001971 0.0000998 0.0001218 0.0016060 -0.0001872 0.0005956 -0.0002490 -0.0006754 -0.0003193 0.0000026 -0.0000550 0.0009051 0.0004785 0.0019004 -0.0000362 0.0003952 -0.0003511 0.0003951
-0.0001562 0.0008683 -0.0001805 0.0001762 0.0001460 0.0016659 -0.0001497 0.0006184 -0.0002225 -0.0005601 -0.0002911 0.0001418 -0.0000311 0.0010064 0.0004838 0.0020644 -0.0000147 0.0006027 -0.0003280 0.0006490
-0.0001827 0.0010361 -0.0001661 0.0002424 0.0001560 0.0018141 -0.0001230 0.0007130 -0.0002204 -0.0003574 -0.0002945 0.0003911 -0.0000456 0.0012006 0.0004858 0.0023462 -0.0000078 0.0009263 -0.0003120 0.0009911
-0.0002272 0.0013474 -0.0001752 0.0003686 0.0001674 0.0020792 -0.0001298 0.0009117 -0.0002396 -0.0001334 -0.0003261 0.0005635 -0.0000948 0.0012497 0.0004687 0.0023686 -0.0000226 0.0010019 -0.0003318 0.0008724
-0.0001794 0.0013912 -0.0001592 0.0003885 0.0002176 0.0022135 -0.0001548 0.0007680 -0.0002594 -0.0003110 -0.0003850 0.0002509 -0.0001517 0.0008795 0.0004380 0.0020459 -0.0000226 0.0007967 -0.0003539 0.0004838
-0.0000783 0.0011876 -0.0001333 0.0002626 0.0002706 0.0021604 -0.0001448 0.0004037 -0.0002475 -0.0005922 -0.0003801 -0.0000396 -0.0001440 0.0005712 0.0004297 0.0018163 -0.0000039 0.0007040 -0.0003143 0.0003892
0.0001973 0.0020835 0.0000049 0.0006782 0.0002216 0.0020587 0.0001125 0.0011137 0.0000828 0.0012187 -0.0002459 0.0005976 -0.0000745 0.0005523 0.0003868 0.0016863 0.0000553 0.0007942 -0.0002584 0.0004729
0.0005157 0.0033717 0.0001890 0.0014102 0.0000896 0.0018718 0.0004010 0.0021346 0.0004232 0.0032623 -0.0001020 0.0014692 -0.0000316 0.0006796 0.0003395 0.0017216 0.0001304 0.0009764 -0.0002292 0.0006673
0.0005589 0.0040584 0.0002563 0.0018599 0.0000177 0.0018586 0.0004455 0.0024731 0.0004774 0.0038256 -0.0000604 0.0017852 -0.0000360 0.0007656 0.0003250 0.0016910 0.0001476 0.0009856 -0.0002474 0.0005294
0.0005213 0.0042244 0.0002665 0.0018899 0.0000021 0.0017094 0.0004055 0.0023257 0.0004722 0.0036370 -0.0000931 0.0014545 -0.0000352 0.0004623 0.0003143 0.0013790 0.0001392 0.0007814 -0.0002347 0.0001936
0.0005522 0.0038676 0.0002844 0.0017065 -0.0000208 0.0013397 0.0004077 0.0019457 0.0004472 0.0031055 -0.0001117 0.0010000 0.0000036 0.0001719 0.0003227 0.0011947 0.0001501 0.0006933 -0.0001814 0.0001383
0.0006082 0.0035561 0.0003163 0.0016641 -0.0000401 0.0012195 0.0004451 0.0017833 0.0004365 0.0028664 -0.0001017 0.0008722 0.0000438 0.0001310 0.0003364 0.0012523 0.0001736 0.0007679 -0.0001558 0.0002732
0.0006382 0.0034673 0.0003157 0.0017029 -0.0000452 0.0013180 0.0004470 0.0017860 0.0004121 0.0027533 -0.0001088 0.0008833 0.0000423 0.0002036 0.0003390 0.0014174 0.0001812 0.0009200 -0.0001498 0.0004987
0.0006504 0.0035135 0.0003113 0.0017702 -0.0000389 0.0015197 0.0004214 0.0018770 0.0003789 0.0027688 -0.0001369 0.0009939 0.0000143 0.0003570 0.0003281 0.0016212 0.0001913 0.0010907 -0.0001605 0.0007559
0.0005974 0.0036764 0.0003018 0.0018789 -0.0000403 0.0017249 0.0003794 0.0020245 0.0003407 0.0027903 -0.0001761 0.0010155 -0.0000325 0.0003340 0.0003002 0.0015151 0.0001584 0.0010191 -0.0002000 0.0005565
0.0005294 0.0035433 0.0002977 0.0017440 -0.0000392 0.0016021 0.0003402 0.0017740 0.0002967 0.0023651 -0.0002138 0.0006324 -0.0000704 -0.0000497 0.0002813 0.0011299 0.0001147 0.0007143 -0.0002143 0.0001229
0.0005157 0.0031484 0.0003127 0.0014437 -0.0000290 0.0012902 0.0003419 0.0012736 0.0002796 0.0018112 -0.0002117 0.0002581 -0.0000450 -0.0003287 0.0002972 0.0009834 0.0001185 0.0005942 -0.0001737 0.0000743
0.0005056 0.0030256 0.0002943 0.0013691 -0.0000244 0.0012156 0.0003778 0.0011154 0.0002822 0.0016834 -0.0001784 0.0003001 0.0000032 -0.0002248 0.0003222 0.0011126 0.0001381 0.0006923 -0.0001416 0.0002369
0.0005374 0.0030640 0.0002682 0.0014229 -0.0000335 0.0012939 0.0003998 0.0011941 0.0002764 0.0017736 -0.0001688 0.0005043 0.0000195 0.0000094 0.0003323 0.0013445 0.0001629 0.0008553 -0.0001351 0.0005026
0.0005557 0.0031977 0.0002640 0.0015131 -0.0000572 0.0014079 0.0003755 0.0013531 0.0002505 0.0019318 -0.0001943 0.0007399 -0.0000015 0.0002605 0.0003232 0.0015931 0.0001557 0.0010631 -0.0001450 0.0007919
0.0005142 0.0034119 0.0002460 0.0016288 -0.0000902 0.0015344 0.0003100 0.0015443 0.0002086 0.0020985 -0.0002372 0.0009670 -0.0000459 0.0005208 0.0002997 0.0018700 0.0001355 0.0012966 -0.0001609 0.0010912
0.0004797 0.0035889 0.0002315 0.0017593 -0.0001160 0.0016667 0.0002362 0.0017119 0.0001668 0.0021456 -0.0002857 0.0009935 -0.0001095 0.0004967 0.0002665 0.0017378 0.0001177 0.0011836 -0.0002029 0.0008547
0.0004110 0.0034492 0.0002191 0.0016768 -0.0001353 0.0014784 0.0001877 0.0014924 0.0001317 0.0018305 -0.0003211 0.0006853 -0.0001528 0.0001676 0.0002421 0.0013465 0.0000992 0.0008694 -0.0002211 0.0004232
0.0003490 0.0031764 0.0002082 0.0014944 -0.0001491 0.0012005 0.0001778 0.0011610 0.0001165 0.0015259 -0.0003155 0.0004819 -0.0001405 0.0000318 0.0002431 0.0012778 0.0000801 0.0008324 -0.0002020 0.0004403
0.0003658 0.0031022 0.0002092 0.0014472 -0.0001474 0.0012098 0.0002007 0.0011419 0.0001143 0.0015441 -0.0002939 0.0006039 -0.0001162 0.0001809 0.0002536 0.0014294 0.0000902 0.0009444 -0.0001968 0.0006449
0.0003808 0.0031614 0.0002000 0.0014903 -0.0001467 0.0013528 0.0002005 0.0012693 0.0000896 0.0016284 -0.0002980 0.0008413 -0.0001148 0.0004333 0.0002476 0.0016369 0.0000991 0.0011496 -0.0002153 0.0009079
0.0003580 0.0032403 0.0001598 0.0015616 -0.0001207 0.0016188 0.0001321 0.0014051 0.0000138 0.0014827 -0.0003295 0.0009708 -0.0001560 0.0004950 0.0002229 0.0015448 0.0000717 0.0010919 -0.0002584 0.0007284
0.0003527 0.0029632 0.0001216 0.0013604 -0.0000677 0.0016168 0.0000621 0.0012019 -0.0000504 0.0009780 -0.0003577 0.0006792 -0.0001911 0.0001687 0.0002120 0.0011902 0.0000597 0.0007461 -0.0002626 0.0003476
0.0003475 0.0025334 0.0001297 0.0010298 -0.0000364 0.0013728 0.0000405 0.0008660 -0.0000579 0.0005523 -0.0003328 0.0003645 -0.0001532 -0.0000856 0.0002382 0.0010306 0.0000600 0.0006011 -0.0002202 0.0003071
0.0003058 0.0022731 0.0001199 0.0008588 -0.0000210 0.0012617 0.0000431 0.0007147 -0.0000616 0.0003883 -0.0002793 0.0003731 -0.0000940 -0.0000355 0.0002769 0.0011346 0.0000756 0.0006371 -0.0001694 0.0005712
0.0002086 0.0019523 0.0000585 0.0007142 -0.0000278 0.0011912 0.0000207 0.0005558 -0.0000903 0.0002770 -0.0002373 0.0005501 -0.0000556 0.0001617 0.0003260 0.0014271 0.0000895 0.0007810 -0.0001337 0.0009424
0.0000529 0.0016770 -0.0000123 0.0006202 -0.0000244 0.0013130 -0.0000244 0.0004784 -0.0001406 0.0002361 -0.0002224 0.0008230 -0.0000410 0.0004226 0.0003659 0.0016912 0.0000758 0.0009424 -0.0001535 0.0009701
0.0000045 0.0014108 -0.0000314 0.0004621 0.0000061 0.0013682 -0.0000513 0.0002941 -0.0001796 -0.0000667 -0.0002417 0.0006187 -0.0000513 0.0002054 0.0003859 0.0015146 0.0000583 0.0007642 -0.0001944 0.0005996
0.0000389 0.0009458 -0.0000368 0.0002073 0.0000552 0.0012423 -0.0000378 -0.0000918 -0.0001719 -0.0005719 -0.0002274 0.0001910 -0.0000176 -0.0001939 0.0004271 0.0012824 0.0000629 0.0005318 -0.0001814 0.0003185
0.0000611 0.0006397 -0.0000549 0.0000954 0.0001180 0.0012667 0.0000143 -0.0002360 -0.0001294 -0.0007727 -0.0001761 0.0001385 0.0000504 -0.0002122 0.0004806 0.0013955 0.0000956 0.0005641 -0.0001441 0.0003587
0.0000839 0.0005835 -0.0000393 0.0000958 0.0001800 0.0014409 0.0000797 -0.0001242 -0.0000855 -0.0006996 -0.0001397 0.0002953 0.0000867 -0.0000606 0.0005164 0.0016244 0.0001217 0.0007145 -0.0001316 0.0005480
0.0000295 0.0007329 -0.0000241 0.0001848 0.0002290 0.0016978 0.0001142 0.0000368 -0.0000751 -0.0005379 -0.0001345 0.0005013 0.0000836 0.0001459 0.0005197 0.0018604 0.0001307 0.0009123 -0.0001348 0.0007434
-0.0000489 0.0009555 -0.0000285 0.0002255 0.0002391 0.0017948 0.0000917 0.0000692 -0.0001035 -0.0006042 -0.0001687 0.0003629 0.0000451 -0.0000301 0.0005031 0.0016756 0.0001100 0.0007484 -0.0001619 0.0004628
-0.0000391 0.0006842 -0.0000234 0.0000739 0.0002292 0.0015862 0.0000849 -0.0002065 -0.0001078 -0.0009321 -0.0001763 -0.0000132 0.0000513 -0.0004048 0.0005175 0.0013485 0.0001175 0.0004662 -0.0001474 0.0001007
0.0000140 0.0002245 -0.0000267 -0.0001123 0.0002115 0.0013453 0.0001514 -0.0003813 -0.0000526 -0.0010820 -0.0001193 -0.0000970 0.0001256 -0.0004329 0.0005682 0.0014067 0.0001541 0.0004996 -0.0000812 0.0001834
0.0000631 0.0000487 -0.0000423 -0.0001709 0.0001893 0.0012585 0.0002316 -0.0002521 0.0000001 -0.0009694 -0.0000711 0.0000892 0.0001755 -0.0002284 0.0006001 0.0016241 0.0001692 0.0006814 -0.0000434 0.0004140
0.0000972 0.0000930 -0.0000589 -0.0000705 0.0001736 0.0012874 0.0002418 -0.0000994 0.0000016 -0.0008107 -0.0000676 0.0003264 0.0001679 0.0000239 0.0005982 0.0018733 0.0001767 0.0009084 -0.0000456 0.0006933
0.0000366 0.0003268 -0.0000870 0.0000997 0.0001612 0.0014063 0.0001827 0.0000261 -0.0000276 -0.0007327 -0.0000997 0.0003576 0.0001221 0.0000011 0.0005739 0.0017903 0.0001632 0.0008591 -0.0000967 0.0004954
-0.0000378 0.0002148 -0.0000809 0.0000130 0.0001474 0.0012803 0.0001325 -0.0001790 -0.0000600 -0.0009529 -0.0001315 0.0000667 0.0000934 -0.0002908 0.0005575 0.0015076 0.0001711 0.0006212 -0.0001128 0.0001362
-0.0000312 -0.0000614 -0.0000643 -0.0001724 0.0001440 0.0010791 0.0001630 -0.0004242 -0.0000497 -0.0011500 -0.0001100 -0.0001035 0.0001269 -0.0003884 0.0005661 0.0014750 0.0001916 0.0006087 -0.0000766 0.0001657
-0.0000247 0.0000096 -0.0000700 -0.0001537 0.0001456 0.0011225 0.0002276 -0.0003107 -0.0000159 -0.0010295 -0.0000791 0.0000284 0.0001652 -0.0002231 0.0005756 0.0016277 0.0002060 0.0007551 -0.0000609 0.0003534
0.0000211 0.0001322 -0.0000780 -0.0000171 0.0001362 0.0012493 0.0002569 -0.0001507 -0.0000126 -0.0008461 -0.0000926 0.0002095 0.0001519 -0.0000066 0.0005699 0.0018439 0.0001945 0.0009508 -0.0000669 0.0005965
0.0000557 0.0002962 -0.0000861 0.0001384 0.0001218 0.0013857 0.0002235 -0.0000442 -0.0000373 -0.0007554 -0.0001452 0.0002167 0.0001000 -0.0000301 0.0005469 0.0017693 0.0001569 0.0009143 -0.0001081 0.0004275
0.0000197 0.0002601 -0.0000819 0.0000515 0.0001025 0.0012685 0.0001490 -0.0001820 -0.0000706 -0.0009399 -0.0001999 -0.0000790 0.0000602 -0.0003017 0.0005270 0.0014988 0.0001443 0.0006928 -0.0001270 0.0001369
0.0000298 0.0000538 -0.0000553 -0.0001075 0.0000901 0.0010681 0.0001324 -0.0003522 -0.0000672 -0.0011041 -0.0002022 -0.0002719 0.0000751 -0.0003932 0.0005274 0.0014472 0.0001706 0.0006320 -0.0001046 0.0001659
-0.0000038 0.0001347 -0.0000322 -0.0000907 0.0000936 0.0010787 0.0001925 -0.0002509 -0.0000384 -0.0009813 -0.0001791 -0.0001698 0.0001043 -0.0002348 0.0005325 0.0015702 0.0001713 0.0007460 -0.0000907 0.0003169
-0.0000624 0.0003702 -0.0000284 0.0000064 0.0000878 0.0011803 0.0002235 -0.0000569 -0.0000418 -0.0007699 -0.0001976 -0.0000015 0.0000952 -0.0000275 0.0005202 0.0017545 0.0001544 0.0009195 -0.0000988 0.0005052
-0.0000381 0.0005302 -0.0000411 0.0001142 0.0000758 0.0012448 0.0002024 -0.0000049 -0.0000718 -0.0007829 -0.0002594 -0.0001373 0.0000413 -0.0001823 0.0004913 0.0015799 0.0001505 0.0007540 -0.0001373 0.0002592
0.0000147 0.0003374 -0.0000711 0.0000459 0.0000555 0.0011018 0.0001751 -0.0002267 -0.0000788 -0.0010423 -0.0002901 -0.0004846 0.0000257 -0.0005256 0.0004850 0.0012615 0.0001329 0.0005075 -0.0001458 -0.0000577
0.0001123 0.0000348 -0.0000611 -0.0000899 0.0000483 0.0009573 0.0001966 -0.0003190 -0.0000429 -0.0011077 -0.0002580 -0.0005446 0.0000703 -0.0005532 0.0005013 0.0012503 0.0001461 0.0005138 -0.0001155 -0.0000176
0.0001791 0.0000199 -0.0000233 -0.0000789 0.0000649 0.0009962 0.0002559 -0.0001474 -0.0000033 -0.0009366 -0.0002294 -0.0003905 0.0000975 -0.0003969 0.0005055 0.0013682 0.0001607 0.0006010 -0.0001126 0.0001273
0.0001000 0.0002599 -0.0000185 0.0000404 0.0000712 0.0011064 0.0002647 0.0000237 -0.0000004 -0.0007450 -0.0002334 -0.0001971 0.0000846 -0.0002021 0.0004977 0.0015378 0.0001509 0.0007445 -0.0001338 0.0002210
0.0000195 0.0004063 -0.0000290 0.0000803 0.0000770 0.0011219 0.0002366 -0.0000296 -0.0000295 -0.0008302 -0.0002742 -0.0003602 0.0000399 -0.0004150 0.0004732 0.0013268 0.0001273 0.0005853 -0.0001626 -0.0000420
0.0000393 0.0001532 -0.0000234 -0.0000623 0.0000760 0.0009554 0.0002370 -0.0003134 -0.0000354 -0.0011074 -0.0002871 -0.0007185 0.0000425 -0.0007844 0.0004652 0.0009856 0.0001241 0.0003143 -0.0001527 -0.0002907
0.0000826 -0.0000297 0.0000115 -0.0001956 0.0000744 0.0008572 0.0003009 -0.0003813 0.0000129 -0.0011181 -0.0002601 -0.0007932 0.0000852 -0.0008245 0.0004804 0.0009845 0.0001556 0.0003092 -0.0001187 -0.0002066
0.0001692 -0.0000176 0.0000162 -0.0001619 0.0000818 0.0009020 0.0003710 -0.0002763 0.0000589 -0.0009393 -0.0002522 -0.0006663 0.0000997 -0.0006850 0.0004837 0.0011210 0.0001671 0.0004232 -0.0001080 -0.0000102
0.0002177 0.0000985 -0.0000062 -0.0000239 0.0000819 0.0009993 0.0003736 -0.0001724 0.0000592 -0.0007741 -0.0002577 -0.0004488 0.0000879 -0.0004496 0.0004753 0.0013206 0.0001595 0.0005941 -0.0001168 0.0002277
0.0001492 0.0003651 -0.0000005 0.0001295 0.0000710 0.0011527 0.0003157 -0.0000116 0.0000230 -0.0005988 -0.0002959 -0.0002930 0.0000389 -0.0003528 0.0004455 0.0013072 0.0001322 0.0005972 -0.0001509 0.0001211
0.0000705 0.0003313 -0.0000137 0.0000852 0.0000537 0.0010782 0.0002467 -0.0001785 -0.0000221 -0.0007838 -0.0003547 -0.0005693 -0.0000221 -0.0006390 0.0004085 0.0010137 0.0001034 0.0003707 -0.0001624 -0.0001999
0.0000167 0.0001047 -0.0000229 -0.0001010 0.0000467 0.0008592 0.0002630 -0.0004852 -0.0000235 -0.0010736 -0.0003567 -0.0008866 -0.0000183 -0.0008882 0.0004004 0.0008259 0.0000973 0.0002331 -0.0001298 -0.0002507
0.0000196 0.0000474 0.0000048 -0.0001501 0.0000501 0.0008482 0.0003423 -0.0004336 0.0000138 -0.0009744 -0.0003298 -0.0008230 0.0000170 -0.0007975 0.0004050 0.0008735 0.0001206 0.0002786 -0.0001066 -0.0001040
0.0000841 0.0001196 -0.0000013 -0.0000400 0.0000486 0.0009591 0.0003778 -0.0002402 0.0000286 -0.0007734 -0.0003283 -0.0006410 0.0000209 -0.0006087 0.0003947 0.0010055 0.0001417 0.0003839 -0.0001147 0.0001204
0.0001011 0.0003042 0.0000022 0.0000978 0.0000458 0.0011322 0.0003392 -0.0000739 0.0000131 -0.0005948 -0.0003463 -0.0004136 0.0000020 -0.0003827 0.0003795 0.0011170 0.0001285 0.0004663 -0.0001440 0.0001531
0.0001236 0.0003281 0.0000231 0.0000612 0.0000621 0.0011978 0.0002751 -0.0001137 -0.0000189 -0.0007026 -0.0003967 -0.0006065 -0.0000458 -0.0005745 0.0003562 0.0008863 0.0000957 0.0002787 -0.0001726 -0.0000862
0.0001557 0.0001373 0.0000238 -0.0000433 0.0000921 0.0011296 0.0002526 -0.0003299 -0.0000273 -0.0009341 -0.0004001 -0.0009157 -0.0000436 -0.0008587 0.0003471 0.0006115 0.0000978 0.0000706 -0.0001634 -0.0002201
0.0001207 0.0001113 0.0000229 -0.0000498 0.0001122 0.0011404 0.0003013 -0.0003176 0.0000039 -0.0008986 -0.0003553 -0.0008902 0.0000062 -0.0007924 0.0003633 0.0006631 0.0001326 0.0001171 -0.0001344 -0.0000949
0.0000978 0.0002284 -0.0000030 0.0000269 0.0001191 0.0012181 0.0003577 -0.0001604 0.0000167 -0.0007307 -0.0003332 -0.0007030 0.0000250 -0.0005916 0.0003741 0.0008447 0.0001459 0.0002619 -0.0001194 0.0001417
0.0001287 0.0003470 -0.0000076 0.0001285 0.0001130 0.0013343 0.0003506 -0.0000510 -0.0000064 -0.0005628 -0.0003381 -0.0004270 0.0000121 -0.0003296 0.0003736 0.0010173 0.0001379 0.0004029 -0.0001350 0.0001831
0.0001431 0.0003667 -0.0000001 0.0000775 0.0001026 0.0013149 0.0002869 -0.0001545 -0.0000406 -0.0007160 -0.0003737 -0.0006034 -0.0000199 -0.0005377 0.0003567 0.0007746 0.0001093 0.0002415 -0.0001662 -0.0001043
0.0001791 0.0000757 -0.0000241 -0.0000935 0.0001042 0.0011416 0.0002573 -0.0004591 -0.0000407 -0.0010290 -0.0003627 -0.0009317 -0.0000032 -0.0008608 0.0003618 0.0004870 0.0001094 0.0000248 -0.0001567 -0.0002777
0.0002246 -0.0001204 -0.0000052 -0.0001776 0.0001327 0.0010906 0.0003183 -0.0005256 0.0000087 -0.0010355 -0.0003046 -0.0008952 0.0000482 -0.0007945 0.0003914 0.0005575 0.0001216 0.0000725 -0.0001278 -0.0001700
0.0001988 0.0000099 0.0000523 -0.0001606 0.0001591 0.0011897 0.0003652 -0.0003791 0.0000344 -0.0008712 -0.0002728 -0.0006934 0.0000725 -0.0005861 0.0004071 0.0007447 0.0001380 0.0002096 -0.0001149 0.0000435
0.0001502 0.0002037 0.0000383 -0.0000424 0.0001556 0.0013110 0.0003494 -0.0002544 0.0000101 -0.0007013 -0.0002676 -0.0004097 0.0000658 -0.0003120 0.0004075 0.0009981 0.0001634 0.0003855 -0.0001160 0.0003015
0.0000829 0.0004545 0.0000146 0.0000991 0.0001338 0.0014396 0.0003152 -0.0001404 -0.0000268 -0.0005293 -0.0002895 -0.0001457 0.0000297 -0.0000554 0.0003957 0.0011874 0.0001489 0.0005342 -0.0001479 0.0003254
0.0000570 0.0004679 0.0000029 0.0000890 0.0001150 0.0014198 0.0002653 -0.0002267 -0.0000657 -0.0006779 -0.0003391 -0.0003493 -0.0000220 -0.0002627 0.0003670 0.0009426 0.0001177 0.0003430 -0.0001886 -0.0000110
0.0000981 0.0001370 -0.0000283 -0.0000747 0.0001035 0.0012315 0.0002414 -0.0005159 -0.0000804 -0.0010111 -0.0003542 -0.0007387 -0.0000263 -0.0006074 0.0003568 0.0006351 0.0001134 0.0000906 -0.0001878 -0.0002231
0.0001177 -0.0000099 -0.0000353 -0.0001106 0.0001031 0.0011682 0.0002800 -0.0005389 -0.0000492 -0.0010274 -0.0003152 -0.0007116 0.0000139 -0.0005220 0.0003795 0.0007102 0.0001265 0.0001298 -0.0001611 -0.0001067
0.0001387 0.0000708 -0.0000280 -0.0000402 0.0001145 0.0012549 0.0003082 -0.0003139 -0.0000304 -0.0008438 -0.0002887 -0.0004992 0.0000257 -0.0002905 0.0003925 0.0009021 0.0001467 0.0002781 -0.0001470 0.0001158
0.0001255 0.0002051 -0.0000168 0.0000155 0.0001161 0.0013840 0.0002763 -0.0001389 -0.0000570 -0.0006411 -0.0003045 -0.0002632 -0.0000002 -0.0000271 0.0003905 0.0011390 0.0001523 0.0004762 -0.0001506 0.0003730
0.0000448 0.0004741 -0.0000065 0.0001526 0.0001043 0.0015635 0.0002115 0.0000133 -0.0001005 -0.0004921 -0.0003507 -0.0001891 -0.0000546 -0.0000052 0.0003677 0.0010743 0.0001082 0.0004574 -0.0001846 0.0002075
0.0000000 0.0004216 -0.0000080 0.0000862 0.0000960 0.0015154 0.0001579 -0.0001557 -0.0001425 -0.0006867 -0.0003939 -0.0004612 -0.0000888 -0.0002809 0.0003480 0.0007883 0.0000803 0.0002414 -0.0001991 -0.0001455
0.0000714 0.0000949 -0.0000262 -0.0000889 0.0001013 0.0013515 0.0001683 -0.0004252 -0.0001386 -0.0009315 -0.0003728 -0.0006620 -0.0000522 -0.0003966 0.0003640 0.0007216 0.0001121 0.0001581 -0.0001750 -0.0001642
0.0001448 0.0000316 -0.0000352 -0.0000761 0.0001158 0.0013849 0.0002154 -0.0003229 -0.0000994 -0.0008381 -0.0003183 -0.0005077 -0.0000047 -0.0002100 0.0003910 0.0008730 0.0001346 0.0002824 -0.0001588 0.0000172
0.0001609 0.0001558 -0.0000372 0.0000141 0.0001338 0.0015129 0.0002253 -0.0001230 -0.0000919 -0.0006601 -0.0003026 -0.0002675 -0.0000039 0.0000491 0.0004046 0.0011057 0.0001349 0.0004844 -0.0001518 0.0002723
0.0001232 0.0003561 -0.0000544 0.0001576 0.0001338 0.0016575 0.0001830 0.0000030 -0.0001208 -0.0005181 -0.0003231 -0.0001143 -0.0000417 0.0001401 0.0003954 0.0010984 0.0001293 0.0004923 -0.0001821 0.0001428
0.0000465 0.0002848 -0.0000610 0.0000949 0.0001264 0.0015633 0.0001240 -0.0001906 -0.0001615 -0.0007488 -0.0003598 -0.0003699 -0.0000735 -0.0001190 0.0003860 0.0008424 0.0001259 0.0002762 -0.0001972 -0.0001975
0.0000204 0.0000158 -0.0000530 -0.0001009 0.0001325 0.0013786 0.0001215 -0.0004406 -0.0001661 -0.0010355 -0.0003423 -0.0006286 -0.0000430 -0.0002830 0.0004046 0.0007413 0.0001459 0.0001724 -0.0001684 -0.0002605
0.0000332 -0.0000005 -0.0000290 -0.0001286 0.0001475 0.0014007 0.0001984 -0.0003501 -0.0001272 -0.0009656 -0.0002982 -0.0005439 0.0000045 -0.0001519 0.0004305 0.0008738 0.0001727 0.0002745 -0.0001486 -0.0001031
0.0000679 0.0000773 -0.0000231 -0.0000307 0.0001581 0.0015255 0.0002473 -0.0001725 -0.0001169 -0.0008671 -0.0002945 -0.0003717 0.0000225 0.0000599 0.0004501 0.0011286 0.0001899 0.0004670 -0.0001423 0.0001413
0.0000959 0.0001265 -0.0000587 0.0000842 0.0002048 0.0018199 0.0002235 -0.0000206 -0.0001658 -0.0008892 -0.0003350 -0.0002923 0.0000067 0.0003280 0.0004678 0.0014186 0.0001977 0.0006529 -0.0001575 0.0002322
0.0000453 0.0002901 -0.0000641 0.0000574 0.0002940 0.0021351 0.0001611 -0.0000734 -0.0002513 -0.0012490 -0.0004341 -0.0007495 -0.0000604 0.0001119 0.0004655 0.0012755 0.0001669 0.0004709 -0.0001896 -0.0000847
0.0000399 0.0002703 -0.0000679 -0.0000698 0.0003706 0.0022339 0.0001148 -0.0003658 -0.0003046 -0.0017014 -0.0004929 -0.0013005 -0.0000964 -0.0003240 0.0004660 0.0009780 0.0001410 0.0001623 -0.0001980 -0.0003846
0.0000927 0.0001629 -0.0000536 -0.0001480 0.0004321 0.0023249 0.0001638 -0.0004464 -0.0002761 -0.0017366 -0.0004590 -0.0013212 -0.0000644 -0.0003576 0.0004834 0.0010091 0.0001435 0.0001544 -0.0001766 -0.0003490
0.0000809 0.0003734 -0.0000112 -0.0001326 0.0004635 0.0025033 0.0002381 -0.0002444 -0.0002354 -0.0015006 -0.0004319 -0.0011136 -0.0000502 -0.0002057 0.0004890 0.0011552 0.0001317 0.0002630 -0.0001613 -0.0001813
0.0000743 0.0006519 -0.0000264 -0.0000127 0.0004642 0.0026793 0.0002409 -0.0000624 -0.0002405 -0.0012635 -0.0004519 -0.0008977 -0.0000739 -0.0000094 0.0004788 0.0013589 0.0001300 0.0004066 -0.0001681 0.0000659
0.0001748 0.0008008 -0.0000607 0.0001078 0.0004595 0.0028671 0.0001924 0.0000588 -0.0002712 -0.0011108 -0.0005003 -0.0008031 -0.0001247 -0.0000044 0.0004535 0.0012991 0.0001083 0.0003514 -0.0002114 -0.0000787
0.0002516 0.0006668 -0.0000790 -0.0000088 0.0004589 0.0028212 0.0001168 -0.0001210 -0.0003068 -0.0013342 -0.0005451 -0.0010637 -0.0001679 -0.0003160 0.0004381 0.0009967 0.0000866 0.0001028 -0.0002231 -0.0004338
0.0002525 0.0004349 -0.0000811 -0.0001667 0.0004551 0.0026227 0.0000915 -0.0003652 -0.0003088 -0.0015875 -0.0005220 -0.0012613 -0.0001522 -0.0004948 0.0004489 0.0008973 0.0001031 0.0000143 -0.0001877 -0.0004718
0.0002066 0.0004648 -0.0000679 -0.0001652 0.0004550 0.0025930 0.0001471 -0.0002831 -0.0002701 -0.0014684 -0.0004815 -0.0011284 -0.0001252 -0.0003687 0.0004661 0.0010316 0.0001278 0.0001009 -0.0001691 -0.0003074
0.0001032 0.0006571 -0.0000670 -0.0000983 0.0004512 0.0026727 0.0001735 -0.0001250 -0.0002646 -0.0012621 -0.0004761 -0.0009074 -0.0001261 -0.0001625 0.0004712 0.0012540 0.0001379 0.0002645 -0.0001662 -0.0000440
0.0000426 0.0008842 -0.0000895 0.0000373 0.0004285 0.0027905 0.0001275 -0.0000101 -0.0003040 -0.0010760 -0.0004971 -0.0006518 -0.0001617 0.0000743 0.0004596 0.0015201 0.0001337 0.0004687 -0.0001776 0.0002358
0.0000308 0.0011766 -0.0001265 0.0001966 0.0003979 0.0029322 0.0000516 0.0001010 -0.0003348 -0.0008515 -0.0005561 -0.0005295 -0.0002387 0.0001008 0.0004199 0.0014680 0.0000779 0.0004382 -0.0002159 0.0001043
0.0001452 0.0013772 -0.0001424 0.0002107 0.0003171 0.0027430 -0.0000458 -0.0000348 -0.0003320 -0.0007558 -0.0006136 -0.0007199 -0.0003029 -0.0001921 0.0003696 0.0011211 0.0000318 0.0001813 -0.0002372 -0.0002342
0.0002859 0.0012751 -0.0001146 0.0001035 0.0002194 0.0023480 -0.0001015 -0.0002613 -0.0003113 -0.0008070 -0.0006078 -0.0008522 -0.0002971 -0.0003351 0.0003553 0.0009796 0.0000254 0.0001008 -0.0002225 -0.0002700
0.0002234 0.0011873 -0.0000771 0.0000719 0.0001810 0.0021967 -0.0000795 -0.0001962 -0.0002945 -0.0007532 -0.0005506 -0.0006563 -0.0002498 -0.0001363 0.0003594 0.0010583 0.0000467 0.0001602 -0.0002057 -0.0001000
0.0001204 0.0012880 -0.0000828 0.0001608 0.0001556 0.0021294 -0.0000615 0.0000052 -0.0002970 -0.0006221 -0.0005176 -0.0003777 -0.0002351 0.0001170 0.0003462 0.0011731 0.0000595 0.0002585 -0.0001984 0.0002026
0.0000794 0.0013586 -0.0001007 0.0003386 0.0000928 0.0020238 -0.0000697 0.0002066 -0.0003222 -0.0004690 -0.0005039 -0.0000672 -0.0002426 0.0003016 0.0003188 0.0011227 0.0000319 0.0002732 -0.0002198 0.0001263
0.0000450 0.0011577 -0.0001046 0.0003298 0.0000259 0.0017566 -0.0000810 0.0001742 -0.0003421 -0.0005798 -0.0004964 -0.0001382 -0.0002340 0.0001487 0.0003052 0.0008581 0.0000081 0.0000691 -0.0002309 -0.0002158
0.0000597 0.0008596 -0.0000773 0.0001577 0.0000024 0.0015180 -0.0000773 0.0000229 -0.0003215 -0.0007092 -0.0004825 -0.0003705 -0.0002027 -0.0000735 0.0003163 0.0007042 0.0000085 -0.0000771 -0.0001922 -0.0002617
0.0001402 0.0007589 -0.0000421 0.0001478 0.0000153 0.0015097 -0.0000619 -0.0000083 -0.0002813 -0.0005957 -0.0004432 -0.0002823 -0.0001587 0.0000028 0.0003328 0.0007956 0.0000228 0.0000116 -0.0001569 -0.0000978
0.0001752 0.0008385 -0.0000202 0.0002516 0.0000324 0.0016243 -0.0000608 0.0001153 -0.0002615 -0.0004126 -0.0003995 -0.0000056 -0.0001294 0.0002515 0.0003421 0.0010262 0.0000382 0.0002079 -0.0001521 0.0001746
0.0001253 0.0010550 -0.0000353 0.0004322 0.0000421 0.0018103 -0.0000826 0.0003396 -0.0002759 -0.0001779 -0.0003845 0.0003529 -0.0001403 0.0005667 0.0003426 0.0013651 0.0000521 0.0004350 -0.0001541 0.0005471
0.0000537 0.0013017 -0.0000716 0.0006159 0.0000464 0.0019948 -0.0001303 0.0004677 -0.0003153 -0.0000975 -0.0004017 0.0004700 -0.0001889 0.0005765 0.0003214 0.0013008 0.0000230 0.0003655 -0.0001803 0.0004028
-0.0000054 0.0012063 -0.0000982 0.0005113 0.0000420 0.0019405 -0.0001782 0.0002617 -0.0003524 -0.0003231 -0.0004142 0.0002480 -0.0002092 0.0003167 0.0003125 0.0010194 0.0000056 0.0001206 -0.0001768 0.0000636
0.0000084 0.0009374 -0.0001361 0.0003509 0.0000421 0.0017979 -0.0001552 0.0000507 -0.0003484 -0.0005017 -0.0003828 0.0001677 -0.0001725 0.0002583 0.0003340 0.0010395 0.0000295 0.0001064 -0.0001535 0.0001205
0.0000433 0.0009152 -0.0001390 0.0003491 0.0000537 0.0018366 -0.0000919 0.0001713 -0.0003060 -0.0003791 -0.0003471 0.0003323 -0.0001393 0.0004234 0.0003503 0.0011857 0.0000231 0.0002613 -0.0001463 0.0002951
0.0000305 0.0009339 -0.0001171 0.0003563 0.0000142 0.0017698 -0.0000790 0.0003765 -0.0003961 -0.0006784 -0.0003858 0.0004062 -0.0001342 0.0006422 0.0003537 0.0014012 -0.0000105 0.0004155 -0.0001304 0.0005858
-0.0000101 0.0009017 -0.0001284 0.0004376 -0.0000525 0.0016131 -0.0001116 0.0005281 -0.0005009 -0.0010623 -0.0004391 0.0003157 -0.0001667 0.0005624 0.0003346 0.0012608 -0.0000184 0.0002293 -0.0001564 0.0003512
-0.0000888 0.0006721 -0.0001158 0.0003433 -0.0000646 0.0014366 -0.0001391 0.0003656 -0.0004703 -0.0011470 -0.0004481 0.0000441 -0.0001920 0.0001925 0.0003318 0.0009318 -0.0000077 -0.0000614 -0.0001603 -0.0000676
-0.0001279 0.0004336 -0.0000660 0.0001364 -0.0000385 0.0013386 -0.0001614 0.0000763 -0.0004393 -0.0012174 -0.0004304 -0.0001204 -0.0001710 0.0000295 0.0003585 0.0008961 0.0000178 -0.0000802 -0.0001098 -0.0000350
-0.0001006 0.0003338 -0.0000797 0.0001318 0.0000093 0.0014729 -0.0001376 0.0000399 -0.0003987 -0.0010695 -0.0003643 0.0001139 -0.0001345 0.0001759 0.0003832 0.0010712 0.0000335 0.0001012 -0.0000803 0.0001892
-0.0000727 0.0003175 -0.0001311 0.0002180 0.0000749 0.0017728 -0.0000854 0.0002215 -0.0003401 -0.0007548 -0.0003003 0.0005146 -0.0001123 0.0004464 0.0003974 0.0013601 0.0000447 0.0003235 -0.0000654 0.0005128
-0.0000590 0.0004807 -0.0001280 0.0002928 0.0001284 0.0021114 -0.0000938 0.0004068 -0.0003255 -0.0005481 -0.0003042 0.0006297 -0.0001420 0.0004261 0.0003803 0.0012865 0.0000482 0.0002462 -0.0001021 0.0003282
-0.0000215 0.0003311 -0.0001404 0.0002199 0.0001548 0.0021094 -0.0001371 0.0001928 -0.0003379 -0.0007528 -0.0003177 0.0003748 -0.0001563 0.0001545 0.0003727 0.0010052 0.0000346 0.0000556 -0.0001210 -0.0000690
-0.0000045 0.0001144 -0.0001294 0.0000700 0.0001801 0.0019911 -0.0001203 0.0000055 -0.0003087 -0.0008978 -0.0002870 0.0002337 -0.0001210 0.0000787 0.0003917 0.0009923 0.0000481 0.0000667 -0.0000850 -0.0000712
-0.0000212 0.0002123 -0.0000870 0.0000721 0.0002141 0.0020746 -0.0000648 0.0001115 -0.0002747 -0.0007646 -0.0002563 0.0003696 -0.0000987 0.0002246 0.0004016 0.0011456 0.0000681 0.0001942 -0.0000731 0.0001222
-0.0000469 0.0004029 -0.0000939 0.0001766 0.0002373 0.0022329 -0.0000476 0.0002125 -0.0002843 -0.0006114 -0.0002548 0.0005892 -0.0001033 0.0004568 0.0003965 0.0013836 0.0000590 0.0003862 -0.0000803 0.0003907
-0.0001005 0.0006729 -0.0001220 0.0003180 0.0002358 0.0024164 -0.0000803 0.0003126 -0.0003233 -0.0005459 -0.0002910 0.0006182 -0.0001475 0.0004171 0.0003757 0.0013071 0.0000326 0.0003150 -0.0001291 0.0001911
-0.0000766 0.0005329 -0.0001433 0.0002605 0.0002232 0.0023347 -0.0001280 0.0000836 -0.0003574 -0.0007917 -0.0003318 0.0003356 -0.0001780 0.0001330 0.0003658 0.0010304 0.0000140 0.0001031 -0.0001480 -0.0001440
0.0000075 0.0002646 -0.0001357 0.0000907 0.0002228 0.0021716 -0.0001167 -0.0001108 -0.0003449 -0.0009575 -0.0003199 0.0001979 -0.0001469 0.0000880 0.0003974 0.0010949 0.0000413 0.0001100 -0.0001215 -0.0000712
0.0000268 0.0002901 -0.0001140 0.0001540 0.0002236 0.0021668 -0.0000788 0.0000626 -0.0003110 -0.0008094 -0.0002870 0.0003631 -0.0000933 0.0003179 0.0004334 0.0013427 0.0000749 0.0003266 -0.0001039 0.0001625
0.0000139 0.0004046 -0.0001020 0.0002660 0.0002268 0.0022238 -0.0000762 0.0002311 -0.0003060 -0.0006503 -0.0002720 0.0006144 -0.0000938 0.0005376 0.0004520 0.0016177 0.0000894 0.0005612 -0.0000884 0.0004469
-0.0000911 0.0006474 -0.0001262 0.0002747 0.0002198 0.0023372 -0.0001072 0.0003130 -0.0003346 -0.0005653 -0.0003039 0.0006854 -0.0001779 0.0004495 0.0004444 0.0016085 0.0000530 0.0005357 -0.0001424 0.0002513
-0.0001959 0.0005691 -0.0001500 0.0001392 0.0001969 0.0022286 -0.0001444 0.0001467 -0.0003571 -0.0007280 -0.0003542 0.0003847 -0.0002139 0.0001570 0.0004098 0.0012905 0.0000267 0.0003671 -0.0001950 -0.0001232
-0.0001458 0.0002788 -0.0001500 0.0000816 0.0001960 0.0020767 -0.0001111 0.0000251 -0.0003251 -0.0007864 -0.0003412 0.0002297 -0.0001657 0.0001092 0.0004135 0.0012561 0.0000802 0.0003592 -0.0001802 -0.0001077
-0.0000687 0.0002399 -0.0001434 0.0001490 0.0001905 0.0020930 -0.0000547 0.0001680 -0.0002833 -0.0005843 -0.0002962 0.0004424 -0.0001292 0.0003296 0.0004378 0.0014879 0.0001010 0.0005223 -0.0001613 0.0001083
-0.0000223 0.0003434 -0.0001480 0.0002330 0.0001747 0.0021643 -0.0000616 0.0003385 -0.0002813 -0.0003724 -0.0002843 0.0007256 -0.0001352 0.0006058 0.0004318 0.0017476 0.0000955 0.0007496 -0.0001641 0.0004225
-0.0000366 0.0005179 -0.0001412 0.0003597 0.0001769 0.0023035 -0.0001156 0.0004612 -0.0003059 -0.0002606 -0.0003169 0.0007684 -0.0001837 0.0005981 0.0003996 0.0016374 0.0000803 0.0007230 -0.0002161 0.0002420
-0.0001265 0.0004694 -0.0001443 0.0003357 0.0001644 0.0022182 -0.0001871 0.0002855 -0.0003397 -0.0004424 -0.0003462 0.0005236 -0.0002137 0.0003660 0.0003870 0.0013755 0.0000703 0.0005482 -0.0002361 -0.0000730
-0.0001648 0.0002818 -0.0001264 0.0002164 0.0001427 0.0020319 -0.0001799 0.0001435 -0.0003352 -0.0005260 -0.0003110 0.0004858 -0.0001768 0.0003927 0.0004030 0.0014194 0.0000806 0.0005909 -0.0002102 0.0000193
-0.0001313 0.0002979 -0.0001199 0.0002473 0.0001439 0.0020687 -0.0001067 0.0003348 -0.0002996 -0.0002983 -0.0002652 0.0007115 -0.0001341 0.0006426 0.0004143 0.0016131 0.0000881 0.0007533 -0.0002026 0.0002423
-0.0001368 0.0005077 -0.0001392 0.0003740 0.0001413 0.0022180 -0.0001000 0.0005576 -0.0002971 -0.0000413 -0.0002679 0.0009726 -0.0001400 0.0009264 0.0004108 0.0018478 0.0000793 0.0009658 -0.0002171 0.0003867
-0.0001149 0.0005989 -0.0001384 0.0004263 0.0001274 0.0022675 -0.0001522 0.0005328 -0.0003304 -0.0000761 -0.0003086 0.0008763 -0.0001852 0.0008320 0.0003881 0.0016998 0.0000434 0.0009065 -0.0002527 0.0002099
-0.0000720 0.0005067 -0.0001250 0.0004121 0.0001032 0.0021450 -0.0001913 0.0003502 -0.0003451 -0.0002320 -0.0003230 0.0006362 -0.0001866 0.0006708 0.0003813 0.0014754 0.0000549 0.0007489 -0.0002539 0.0001208
-0.0000637 0.0005771 -0.0000980 0.0004730 0.0000714 0.0020458 -0.0001737 0.0004544 -0.0003307 -0.0001324 -0.0002813 0.0007327 -0.0001340 0.0008419 0.0003873 0.0015439 0.0000832 0.0007892 -0.0002250 0.0002786
-0.0000641 0.0007669 -0.0000809 0.0005975 0.0000541 0.0020665 -0.0001259 0.0007475 -0.0003152 0.0001031 -0.0002498 0.0009656 -0.0001070 0.0010805 0.0003831 0.0017019 0.0000681 0.0009304 -0.0002116 0.0005071
-0.0001247 0.0009907 -0.0000824 0.0006706 0.0000244 0.0021159 -0.0001170 0.0009027 -0.0003254 0.0002560 -0.0002517 0.0010710 -0.0001248 0.0011314 0.0003643 0.0016241 0.0000603 0.0008803 -0.0002391 0.0003880
-0.0001560 0.0008863 -0.0000791 0.0005921 -0.0000134 0.0019505 -0.0001402 0.0007448 -0.0003432 0.0000786 -0.0002637 0.0008549 -0.0001311 0.0009170 0.0003536 0.0013274 0.0000666 0.0006414 -0.0002440 0.0000951
-0.0000721 0.0006115 -0.0000582 0.0004776 -0.0000278 0.0017494 -0.0001162 0.0006029 -0.0003120 -0.0000503 -0.0002486 0.0006803 -0.0001021 0.0008204 0.0003679 0.0012467 0.0000576 0.0006163 -0.0002002 0.0001370
-0.0000049 0.0006372 -0.0000578 0.0004850 -0.0000330 0.0017399 -0.0000826 0.0006861 -0.0002653 0.0000923 -0.0002185 0.0007750 -0.0000760 0.0009350 0.0003765 0.0013426 0.0000672 0.0006909 -0.0001776 0.0003236
0.0000229 0.0007697 -0.0000588 0.0005750 -0.0000267 0.0018213 -0.0000833 0.0008415 -0.0002553 0.0002719 -0.0002036 0.0009797 -0.0000660 0.0011594 0.0003688 0.0014455 0.0000702 0.0007777 -0.0001846 0.0003705
0.0000202 0.0007985 -0.0000350 0.0005711 -0.0000144 0.0018328 -0.0000942 0.0008466 -0.0002756 0.0001808 -0.0002142 0.0008305 -0.0000825 0.0010235 0.0003499 0.0012151 0.0000473 0.0006313 -0.0001990 0.0001404
-0.0000149 0.0006247 -0.0000117 0.0004526 -0.0000196 0.0016880 -0.0000818 0.0006787 -0.0002675 -0.0000256 -0.0002011 0.0005285 -0.0000687 0.0007437 0.0003550 0.0009610 0.0000571 0.0004351 -0.0001706 0.0000161
-0.0000045 0.0005152 -0.0000163 0.0004397 -0.0000234 0.0016039 -0.0000287 0.0006403 -0.0002244 0.0000345 -0.0001617 0.0005666 -0.0000250 0.0008062 0.0003739 0.0010386 0.0000708 0.0005170 -0.0001295 0.0001564
0.0000637 0.0005754 -0.0000484 0.0005211 -0.0000162 0.0016650 0.0000167 0.0007388 -0.0002094 0.0001755 -0.0001413 0.0007704 -0.0000068 0.0010132 0.0003746 0.0012232 0.0000857 0.0006649 -0.0001163 0.0003951
0.0000834 0.0007301 -0.0000343 0.0005934 -0.0000165 0.0018076 -0.0000015 0.0009086 -0.0002240 0.0003408 -0.0001537 0.0010135 -0.0000286 0.0012548 0.0003610 0.0014616 0.0000860 0.0008391 -0.0001359 0.0006577
0.0000586 0.0009530 -0.0000318 0.0007293 -0.0000248 0.0020090 -0.0000665 0.0010650 -0.0002601 0.0005308 -0.0002080 0.0011976 -0.0000924 0.0014729 0.0003296 0.0017219 0.0000686 0.0010138 -0.0001707 0.0009517
-0.0000013 0.0012085 -0.0000581 0.0008935 -0.0000373 0.0022187 -0.0001341 0.0012302 -0.0003113 0.0007463 -0.0002663 0.0014046 -0.0001697 0.0017384 0.0002897 0.0020202 0.0000438 0.0012236 -0.0001988 0.0012576
-0.0001161 0.0014708 -0.0000972 0.0010189 -0.0000569 0.0023359 -0.0001988 0.0013638 -0.0003643 0.0007949 -0.0003343 0.0013370 -0.0002593 0.0016531 0.0002387 0.0017967 -0.0000134 0.0010814 -0.0002601 0.0009195
-0.0001950 0.0013369 -0.0001233 0.0009003 -0.0000932 0.0021668 -0.0002461 0.0011861 -0.0004093 0.0005416 -0.0003870 0.0009520 -0.0003195 0.0013002 0.0002012 0.0013416 -0.0000544 0.0007764 -0.0002938 0.0004359
-0.0002210 0.0010881 -0.0001110 0.0006936 -0.0001259 0.0019524 -0.0002532 0.0009540 -0.0004215 0.0003588 -0.0003931 0.0007820 -0.0003201 0.0012233 0.0001979 0.0012981 -0.0000358 0.0007376 -0.0002768 0.0004793
-0.0002018 0.0010710 -0.0001433 0.0007243 -0.0001392 0.0019647 -0.0002548 0.0010396 -0.0004201 0.0004642 -0.0003938 0.0009327 -0.0003161 0.0013985 0.0002058 0.0014300 -0.0000073 0.0008099 -0.0002690 0.0006480
-0.0001710 0.0011345 -0.0001473 0.0007841 -0.0001500 0.0020682 -0.0002995 0.0012599 -0.0004401 0.0006716 -0.0004162 0.0011670 -0.0003433 0.0016514 0.0002060 0.0016502 0.0000022 0.0009644 -0.0002794 0.0009014
-0.0002338 0.0013585 -0.0001243 0.0008547 -0.0001585 0.0022148 -0.0003807 0.0014804 -0.0004782 0.0007721 -0.0004580 0.0011807 -0.0004019 0.0016237 0.0001903 0.0015281 -0.0000172 0.0008518 -0.0003208 0.0006940
-0.0002850 0.0012751 -0.0001291 0.0007916 -0.0001662 0.0021166 -0.0004638 0.0013739 -0.0005158 0.0005827 -0.0004909 0.0008204 -0.0004347 0.0012915 0.0001880 0.0011627 -0.0000387 0.0005884 -0.0003249 0.0003125
-0.0002363 0.0009878 -0.0001207 0.0006571 -0.0001804 0.0018551 -0.0004793 0.0011666 -0.0005162 0.0004271 -0.0004661 0.0005873 -0.0003875 0.0011402 0.0002162 0.0010626 -0.0000127 0.0005151 -0.0002684 0.0002980
-0.0001778 0.0009682 -0.0000979 0.0006376 -0.0001942 0.0017673 -0.0004194 0.0012496 -0.0004735 0.0005455 -0.0004072 0.0007138 -0.0003135 0.0012740 0.0002458 0.0011905 0.0000244 0.0005930 -0.0002330 0.0004667
-0.0001364 0.0011150 -0.0000662 0.0006920 -0.0001980 0.0018158 -0.0003705 0.0014293 -0.0004445 0.0007468 -0.0003875 0.0009056 -0.0002878 0.0014670 0.0002507 0.0013866 0.0000386 0.0007577 -0.0002400 0.0007175
-0.0000852 0.0012503 -0.0000554 0.0007891 -0.0002070 0.0019109 -0.0003819 0.0015452 -0.0004511 0.0009221 -0.0004160 0.0010908 -0.0003147 0.0016527 0.0002343 0.0015895 0.0000423 0.0009256 -0.0002622 0.0008778
-0.0000813 0.0013125 -0.0000858 0.0008367 -0.0002196 0.0018974 -0.0004422 0.0015083 -0.0004718 0.0008270 -0.0004602 0.0008822 -0.0003674 0.0014133 0.0002071 0.0013415 0.0000279 0.0007278 -0.0002958 0.0005767
-0.0001007 0.0011137 -0.0000816 0.0007105 -0.0002292 0.0016855 -0.0004797 0.0012515 -0.0004773 0.0005220 -0.0004674 0.0004455 -0.0003747 0.0009771 0.0002009 0.0009438 0.0000250 0.0004047 -0.0002918 0.0002248
-0.0000980 0.0008828 -0.0000383 0.0005401 -0.0002212 0.0015111 -0.0004266 0.0010607 -0.0004412 0.0004035 -0.0004152 0.0003577 -0.0003159 0.0009296 0.0002244 0.0009486 0.0000449 0.0003981 -0.0002574 0.0002841
-0.0001146 0.0009354 -0.0000256 0.0005411 -0.0002059 0.0015340 -0.0003431 0.0011572 -0.0004039 0.0005342 -0.0003644 0.0005413 -0.0002680 0.0011027 0.0002409 0.0011083 0.0000555 0.0005251 -0.0002407 0.0004696
-0.0001194 0.0010527 -0.0000477 0.0006471 -0.0002099 0.0016306 -0.0003162 0.0013010 -0.0004056 0.0007103 -0.0003625 0.0007705 -0.0002772 0.0013089 0.0002369 0.0013315 0.0000601 0.0007182 -0.0002453 0.0007253
-0.0001224 0.0012160 -0.0000789 0.0007888 -0.0002319 0.0017448 -0.0003627 0.0013969 -0.0004389 0.0008552 -0.0004007 0.0009771 -0.0003255 0.0014927 0.0002170 0.0015859 0.0000526 0.0009196 -0.0002639 0.0010182
