-0.0000000 -0.0000000 -0.0000000 -0.0000000 -0.0000000 -0.0000000 -0.0000000 -0.0000000 -0.0000000 -0.0000000 -0.0000000 -0.0000000 -0.0000000 -0.0000000 -0.0000000 -0.0000000 -0.0000000 -0.0000000 -0.0000000 -0.0000000
-0.0000000 -0.0000000 -0.0000000 -0.0000000 -0.0000000 -0.0000000 -0.0000000 -0.0000000 -0.0000000 -0.0000000 -0.0000000 -0.0000000 -0.0000000 -0.0000000 -0.0000000 -0.0000000 -0.0000000 -0.0000000 -0.0000000 -0.0000000
0.0017309 -0.0064487 -0.0000078 0.0000297 0.0000649 -0.0000887 0.0000296 0.0000549 -0.0000015 0.0000392 0.0000019 0.0000089 0.0000508 0.0000742 -0.0000048 -0.0000305 0.0000094 -0.0000238 -0.0000347 0.0001871
-0.0011417 -0.0015952 0.0000106 -0.0000016 -0.0000336 0.0000535 0.0000031 0.0000351 -0.0000587 -0.0002094 -0.0000409 -0.0004650 0.0001522 -0.0009757 0.0002179 0.0000959 0.0000294 -0.0002150 -0.0000206 -0.0002216
0.0022340 -0.0015954 0.0001600 -0.0000924 -0.0001124 0.0004973 0.0000099 -0.0002705 -0.0005417 -0.0011090 -0.0001748 -0.0008384 0.0001114 -0.0014421 0.0005786 0.0014153 0.0000129 -0.0000934 -0.0002311 -0.0003710
0.0051565 -0.0023357 0.0002991 -0.0001484 -0.0000485 0.0007353 -0.0002194 -0.0005025 -0.0011153 -0.0017637 -0.0002665 -0.0008458 -0.0000094 -0.0013598 0.0005165 0.0016129 -0.0000216 -0.0000950 -0.0002411 -0.0005562
0.0001245 0.0038120 0.0003081 -0.0001771 0.0000176 0.0004342 -0.0002806 -0.0005396 -0.0009720 -0.0013799 -0.0001516 -0.0002652 -0.0000199 -0.0006476 0.0003874 0.0018315 -0.0000030 0.0002381 -0.0002560 -0.0002825
-0.0066184 0.0140433 0.0002358 -0.0000304 -0.0001418 0.0005135 -0.0003542 -0.0003234 -0.0008167 -0.0009335 -0.0000669 0.0001917 -0.0002763 0.0000517 0.0002461 0.0012354 0.0000064 0.0002635 -0.0002784 -0.0001514
-0.0084824 0.0074841 0.0001730 -0.0000596 -0.0000198 0.0001164 -0.0003442 -0.0005164 -0.0006753 -0.0009329 -0.0000652 -0.0003812 -0.0002422 -0.0009455 0.0000304 -0.0003344 -0.0000039 -0.0001774 -0.0000331 -0.0005475
-0.0108321 0.0044929 0.0001746 -0.0002378 0.0000993 -0.0003997 -0.0003266 -0.0008991 -0.0005138 -0.0011247 -0.0000512 -0.0010348 0.0000097 -0.0011518 -0.0000985 -0.0010573 0.0000152 -0.0002539 0.0002494 -0.0007599
0.0018591 -0.0073876 0.0001503 -0.0002559 -0.0000685 -0.0004661 -0.0004404 -0.0009364 -0.0003546 -0.0008632 0.0000058 -0.0006921 -0.0000437 -0.0005467 -0.0001122 -0.0006921 0.0000544 0.0000571 0.0004210 -0.0006167
0.0079430 -0.0177510 0.0001384 -0.0001822 0.0000485 -0.0005874 -0.0005213 -0.0009107 -0.0002289 -0.0005075 0.0000607 -0.0001905 -0.0003710 0.0002132 -0.0001134 -0.0000702 0.0000595 0.0003438 0.0002788 0.0000021
0.0015414 -0.0164838 0.0001217 -0.0000428 0.0002289 -0.0006164 -0.0004242 -0.0007193 -0.0001765 -0.0001815 0.0001091 0.0004181 -0.0003565 0.0011452 -0.0000696 0.0003023 0.0000614 0.0005539 -0.0001921 0.0004252
-0.0057943 -0.0141205 0.0000841 0.0000189 0.0001036 -0.0005631 -0.0003507 -0.0007639 -0.0001336 -0.0002302 0.0000791 -0.0000659 -0.0000287 0.0001514 -0.0001452 -0.0006051 0.0000538 0.0001354 -0.0001937 0.0003809
-0.0068981 -0.0011171 0.0000770 -0.0001358 -0.0000640 -0.0006408 -0.0003563 -0.0010836 -0.0000930 -0.0005289 0.0000616 -0.0009083 -0.0003117 -0.0003345 -0.0001881 -0.0014001 0.0000489 -0.0003013 0.0000918 0.0002602
-0.0139213 0.0196308 0.0000836 -0.0002719 0.0000081 -0.0007009 -0.0002385 -0.0010630 -0.0001129 -0.0006539 0.0001129 -0.0007085 -0.0001852 -0.0001753 -0.0000813 -0.0007937 0.0000769 -0.0001344 0.0001734 0.0000508
-0.0144427 0.0222012 0.0000791 -0.0002726 0.0002993 -0.0009162 -0.0002092 -0.0008488 -0.0001472 -0.0005954 0.0001474 -0.0003814 0.0001506 -0.0003243 -0.0000188 -0.0003218 0.0001066 0.0001546 0.0000337 0.0001057
-0.0052384 0.0151667 0.0000749 -0.0003023 0.0002940 -0.0010211 -0.0003177 -0.0008368 -0.0001769 -0.0003293 0.0001848 0.0000091 -0.0002551 0.0002819 0.0000260 0.0001949 0.0001194 0.0005005 0.0000230 0.0000295
0.0003793 0.0056299 0.0000350 -0.0002963 -0.0001503 -0.0003696 -0.0002853 -0.0007987 -0.0002104 -0.0002119 0.0001641 -0.0001062 -0.0002821 -0.0000845 0.0000227 -0.0002839 0.0000750 0.0001303 -0.0000321 -0.0003134
0.0059462 -0.0112038 0.0000020 -0.0003570 -0.0000338 -0.0003513 -0.0003753 -0.0006608 -0.0002140 -0.0005582 0.0001140 -0.0007682 0.0000173 -0.0010170 -0.0000848 -0.0013848 0.0000460 -0.0004260 -0.0001774 -0.0004436
0.0049077 -0.0057268 0.0000091 -0.0005404 0.0001636 -0.0008149 -0.0004599 -0.0009354 -0.0001889 -0.0008015 0.0001158 -0.0009647 0.0001842 -0.0012389 -0.0001717 -0.0014322 0.0000678 -0.0003622 -0.0001091 -0.0005604
-0.0025160 0.0046974 -0.0000000 -0.0006164 -0.0001060 -0.0006716 -0.0003529 -0.0012424 -0.0001391 -0.0006343 0.0001361 -0.0006900 0.0002890 -0.0009194 -0.0001635 -0.0011409 0.0000703 -0.0002152 0.0000425 -0.0006330
-0.0153522 0.0158034 -0.0000105 -0.0005635 -0.0001745 -0.0005179 -0.0002778 -0.0010310 -0.0000940 -0.0004547 0.0001527 -0.0003164 0.0003447 -0.0006184 -0.0001016 -0.0005808 0.0000658 -0.0000229 -0.0001296 -0.0000545
-0.0154389 0.0089763 -0.0000392 -0.0004124 -0.0000345 -0.0005590 -0.0002377 -0.0005546 -0.0000718 -0.0002021 0.0001708 0.0001639 0.0001426 0.0002401 -0.0000578 -0.0000072 0.0000549 0.0001872 -0.0003658 0.0004394
-0.0247717 0.0076072 -0.0000074 -0.0003740 0.0000952 -0.0005943 -0.0001743 -0.0005696 -0.0000529 -0.0002593 0.0001348 -0.0001728 0.0001831 -0.0000002 -0.0000344 -0.0006877 0.0000496 -0.0001243 0.0000578 -0.0003289
0.0024669 -0.0146257 0.0000093 -0.0004760 0.0000480 -0.0006634 -0.0002190 -0.0009541 -0.0000188 -0.0005185 0.0001172 -0.0007021 0.0003155 -0.0005298 -0.0000278 -0.0011497 0.0000585 -0.0004448 0.0002674 -0.0006842
0.0107130 -0.0133628 -0.0000013 -0.0005391 0.0001014 -0.0008933 -0.0002152 -0.0009676 0.0000079 -0.0005304 0.0001502 -0.0004397 0.0001131 0.0003557 0.0000535 -0.0003554 0.0000685 -0.0002022 0.0002433 -0.0002575
0.0039971 0.0025551 0.0000048 -0.0004470 0.0001744 -0.0008629 -0.0001457 -0.0007035 0.0000234 -0.0003841 0.0001647 -0.0000184 -0.0001351 0.0012158 0.0001962 0.0003394 0.0000818 0.0000767 0.0003311 -0.0000314
0.0084016 -0.0062555 0.0000112 -0.0002713 -0.0000280 -0.0004129 -0.0001526 -0.0003570 0.0000267 -0.0001768 0.0001806 0.0006039 -0.0001916 0.0020337 0.0002648 0.0013132 0.0000970 0.0005033 0.0001317 0.0005132
0.0108291 -0.0127821 0.0000234 -0.0001185 0.0000662 -0.0003044 -0.0001052 -0.0000170 0.0000077 0.0000953 0.0001788 0.0011194 0.0000713 0.0019461 0.0002544 0.0014084 0.0001057 0.0005939 0.0001152 0.0006230
0.0033299 -0.0074941 0.0000201 -0.0001283 0.0001900 -0.0004426 -0.0001303 0.0000240 0.0000064 -0.0000747 0.0001036 0.0006042 0.0003288 0.0010411 0.0002032 0.0005181 0.0001274 0.0001844 -0.0000595 0.0005924
-0.0095012 0.0082639 0.0000224 -0.0001744 0.0000848 -0.0004508 -0.0001170 -0.0000538 0.0000067 -0.0003702 -0.0000083 -0.0002246 0.0003593 0.0009583 0.0002500 0.0003456 0.0001140 -0.0000622 -0.0002355 0.0002820
-0.0147934 0.0137499 0.0000263 -0.0001298 0.0001979 -0.0003722 -0.0000394 0.0001515 -0.0000349 -0.0003712 -0.0000576 -0.0002505 0.0001597 0.0016020 0.0003910 0.0008384 0.0000834 0.0001037 -0.0000460 -0.0000883
0.0023072 -0.0002771 0.0000421 -0.0000634 0.0001625 -0.0001368 -0.0000915 0.0003937 -0.0000389 -0.0001628 -0.0000489 0.0000269 0.0002176 0.0018200 0.0004080 0.0012779 0.0000829 0.0003380 0.0000770 -0.0000160
0.0126613 -0.0156925 0.0000415 0.0000760 -0.0000212 0.0000721 -0.0000652 0.0005187 -0.0000137 0.0002147 -0.0000330 0.0004502 0.0002932 0.0016394 0.0003296 0.0016045 0.0000728 0.0005574 0.0000686 -0.0001691
0.0135237 -0.0298713 0.0000466 0.0001758 0.0001390 -0.0000242 0.0000097 0.0006206 0.0000045 0.0002080 -0.0000787 0.0001405 0.0001710 0.0011026 0.0002336 0.0008985 0.0000548 0.0002250 0.0002030 -0.0003122
0.0012968 -0.0039741 0.0000550 0.0001895 0.0001596 -0.0000269 0.0000234 0.0004910 0.0000203 0.0000334 -0.0001158 -0.0003433 -0.0001371 0.0011288 0.0001597 0.0002821 0.0000375 -0.0001645 0.0004055 -0.0004673
-0.0096832 0.0139643 0.0000453 0.0002068 -0.0000164 0.0002094 0.0000243 0.0004372 0.0000019 0.0000506 -0.0000835 -0.0000871 -0.0003050 0.0015025 0.0001623 0.0006766 0.0000453 0.0000644 0.0002722 -0.0002055
-0.0012477 0.0055036 0.0000773 0.0002073 -0.0001417 0.0004172 0.0000039 0.0006028 -0.0000059 0.0001790 -0.0000574 0.0003229 0.0000582 0.0012515 0.0002019 0.0010972 0.0000543 0.0003237 0.0001491 0.0002442
0.0011773 0.0109919 0.0000837 0.0002407 -0.0000408 0.0002728 0.0000028 0.0007082 -0.0000426 0.0003786 -0.0000447 0.0008424 0.0000587 0.0018065 0.0002220 0.0018061 0.0000587 0.0006796 0.0002643 0.0004005
-0.0059386 0.0183406 0.0000259 0.0003970 0.0000515 0.0002607 -0.0000191 0.0008927 -0.0000906 0.0006374 -0.0000489 0.0013252 0.0000350 0.0020166 0.0002423 0.0018326 0.0000649 0.0007711 0.0003811 0.0000063
0.0072406 -0.0091122 0.0000235 0.0003622 0.0002281 0.0000848 -0.0000102 0.0007804 -0.0001193 0.0004855 -0.0001223 0.0008383 -0.0001277 0.0017308 0.0002213 0.0010663 0.0000499 0.0003304 0.0001696 -0.0001248
0.0012193 -0.0070961 0.0000508 0.0002615 0.0001588 0.0001466 -0.0000434 0.0006873 -0.0001702 0.0001987 -0.0001836 0.0003087 -0.0004176 0.0021308 0.0001964 0.0009453 0.0000270 0.0000907 -0.0001579 0.0004955
-0.0146849 0.0205751 0.0000470 0.0003275 -0.0002441 0.0006319 -0.0001062 0.0009208 -0.0002064 0.0002356 -0.0001760 0.0006686 -0.0001597 0.0020590 0.0001968 0.0014888 0.0000211 0.0003364 -0.0002518 0.0007731
-0.0002198 0.0063145 0.0000689 0.0004136 -0.0003229 0.0007603 -0.0000211 0.0010393 -0.0002209 0.0004133 -0.0001615 0.0011218 0.0001315 0.0021265 0.0001161 0.0021475 0.0000290 0.0006576 -0.0001603 0.0011219
0.0006237 -0.0054435 0.0000573 0.0005412 -0.0001810 0.0007655 -0.0000003 0.0012987 -0.0002314 0.0006682 -0.0001377 0.0017018 0.0002013 0.0025105 0.0000952 0.0027967 0.0000301 0.0010351 -0.0000709 0.0012748
-0.0167735 0.0204442 0.0000165 0.0006629 -0.0001455 0.0008507 -0.0000316 0.0014927 -0.0002352 0.0008700 -0.0001861 0.0015673 0.0001808 0.0020181 0.0000761 0.0020245 0.0000015 0.0007339 0.0001292 0.0005188
-0.0002187 0.0016475 0.0000145 0.0005785 -0.0003244 0.0008560 -0.0001159 0.0013614 -0.0002097 0.0008374 -0.0002598 0.0008984 0.0000917 0.0013929 -0.0000089 0.0010352 -0.0000122 0.0002649 0.0001950 0.0002188
0.0124639 -0.0132587 0.0000527 0.0004313 -0.0002069 0.0005640 -0.0001650 0.0012887 -0.0002102 0.0007435 -0.0002476 0.0009032 0.0001261 0.0012744 -0.0000463 0.0013237 -0.0000066 0.0004549 0.0000531 0.0004613
0.0037904 -0.0011614 0.0000430 0.0004657 -0.0000566 0.0005864 -0.0000602 0.0014937 -0.0002172 0.0008800 -0.0002274 0.0013396 -0.0000757 0.0020699 -0.0000075 0.0017650 -0.0000062 0.0006625 -0.0000882 0.0006163
-0.0015268 -0.0068539 0.0000123 0.0005915 0.0000324 0.0006614 -0.0001250 0.0019631 -0.0001727 0.0012175 -0.0002176 0.0018322 -0.0000148 0.0027280 -0.0000121 0.0024609 -0.0000073 0.0009470 -0.0000933 0.0012206
0.0023494 -0.0102228 0.0000174 0.0007344 -0.0000315 0.0008247 -0.0002202 0.0023864 -0.0000801 0.0017618 -0.0001723 0.0025816 0.0002849 0.0031192 -0.0000747 0.0031718 -0.0000202 0.0012621 -0.0002501 0.0015221
0.0138260 -0.0225261 0.0000006 0.0007619 -0.0001429 0.0010752 -0.0001075 0.0024315 0.0002370 0.0024779 -0.0001290 0.0026018 0.0001943 0.0029771 -0.0001610 0.0024636 -0.0000251 0.0009972 -0.0003450 0.0013326
0.0063049 -0.0018711 -0.0000138 0.0006869 -0.0000314 0.0009406 0.0000964 0.0022742 0.0005654 0.0029655 -0.0000410 0.0024581 0.0002241 0.0025194 -0.0002644 0.0017036 0.0000082 0.0007769 0.0001655 0.0009702
-0.0010947 0.0078136 -0.0000708 0.0006634 0.0000419 0.0007098 0.0001561 0.0022744 0.0006541 0.0030694 0.0000496 0.0028197 0.0000606 0.0031454 -0.0003194 0.0019928 0.0000430 0.0009948 0.0001315 0.0012541
0.0052530 -0.0073002 -0.0001197 0.0006743 -0.0000329 0.0006661 -0.0000119 0.0025691 0.0006314 0.0030856 0.0000922 0.0030748 -0.0000350 0.0034996 -0.0003423 0.0022843 0.0000439 0.0012454 -0.0000443 0.0016327
0.0050136 -0.0050695 -0.0001316 0.0007410 -0.0001772 0.0007910 -0.0001205 0.0027843 0.0005916 0.0031419 0.0001280 0.0035291 0.0004648 0.0036667 -0.0003824 0.0028514 0.0000245 0.0016314 0.0003333 0.0015344
0.0031049 0.0048398 -0.0001650 0.0008465 -0.0001811 0.0009055 -0.0000055 0.0027548 0.0005626 0.0031167 0.0000869 0.0033237 0.0005263 0.0037356 -0.0004478 0.0020704 0.0000028 0.0013552 0.0000507 0.0018802
0.0027372 0.0007494 -0.0001702 0.0007615 -0.0000813 0.0008367 -0.0000181 0.0027011 0.0005660 0.0029053 0.0000250 0.0026291 0.0003554 0.0028271 -0.0004619 0.0010379 -0.0000023 0.0009060 -0.0000596 0.0019301
-0.0020250 0.0001178 -0.0001744 0.0006180 0.0001057 0.0005833 -0.0000647 0.0025871 0.0005786 0.0028072 0.0000130 0.0024832 0.0001187 0.0028176 -0.0005038 0.0011415 -0.0000027 0.0009576 0.0002114 0.0017912
0.0009927 -0.0020273 -0.0001722 0.0004956 0.0001225 0.0004727 -0.0000608 0.0024625 0.0005639 0.0029102 0.0000144 0.0026470 0.0000427 0.0032714 -0.0005528 0.0011974 -0.0000089 0.0010493 0.0003192 0.0017542
-0.0002751 0.0047309 -0.0001988 0.0004180 -0.0000319 0.0005519 -0.0000739 0.0023155 0.0005475 0.0030284 0.0000282 0.0029584 0.0001627 0.0032279 -0.0005597 0.0016010 -0.0000181 0.0012561 0.0004583 0.0016096
-0.0070398 0.0018917 -0.0002111 0.0005563 -0.0000925 0.0006636 -0.0001255 0.0024251 0.0005313 0.0031629 0.0000168 0.0031378 -0.0001711 0.0035462 -0.0005763 0.0013218 -0.0000249 0.0011551 0.0004176 0.0015000
-0.0136436 0.0049889 -0.0001364 0.0005796 -0.0001194 0.0006833 -0.0002312 0.0023933 0.0005382 0.0030481 -0.0000290 0.0026933 -0.0002034 0.0031826 -0.0006746 0.0007190 -0.0000262 0.0008752 0.0003412 0.0014464
-0.0164294 0.0129592 -0.0001333 0.0005468 -0.0001062 0.0006007 -0.0002776 0.0021654 0.0005504 0.0029206 -0.0000445 0.0024321 -0.0000952 0.0031382 -0.0007372 0.0008247 -0.0000457 0.0008259 0.0000983 0.0015140
0.0004227 -0.0231079 -0.0001766 0.0006103 0.0000851 0.0003907 -0.0002541 0.0021622 0.0005456 0.0029975 -0.0000419 0.0026663 0.0000873 0.0033016 -0.0006808 0.0009537 -0.0000623 0.0009211 0.0001436 0.0014518
0.0003416 -0.0113550 -0.0001536 0.0006457 0.0001520 0.0003312 -0.0002827 0.0023224 0.0005373 0.0030342 -0.0000467 0.0029503 0.0001526 0.0032139 -0.0006671 0.0013337 -0.0000788 0.0010566 0.0004459 0.0013786
-0.0110037 0.0124307 -0.0001576 0.0007441 0.0000354 0.0004386 -0.0001910 0.0024718 0.0005286 0.0031292 -0.0000621 0.0030907 -0.0000561 0.0034054 -0.0007469 0.0010129 -0.0000753 0.0008810 0.0006444 0.0012108
-0.0255727 0.0168625 -0.0001517 0.0006769 -0.0001251 0.0005011 -0.0000999 0.0021020 0.0005209 0.0029935 -0.0001092 0.0024922 -0.0001237 0.0028335 -0.0007988 0.0000235 -0.0000469 0.0005458 0.0005789 0.0008944
-0.0146889 -0.0072426 -0.0001456 0.0005616 -0.0000869 0.0003308 -0.0001774 0.0017966 0.0005208 0.0027980 -0.0001270 0.0020800 0.0000148 0.0023037 -0.0007957 -0.0001571 -0.0000506 0.0004959 0.0002253 0.0011311
-0.0036758 -0.0123520 -0.0001674 0.0005624 0.0000961 0.0001622 -0.0001645 0.0017596 0.0005210 0.0028079 -0.0001125 0.0023113 0.0002412 0.0023535 -0.0007916 0.0002289 -0.0000709 0.0006231 -0.0000822 0.0017094
0.0041560 -0.0089771 -0.0001745 0.0005755 0.0000170 0.0003522 -0.0001738 0.0019191 0.0005106 0.0028288 -0.0001046 0.0026029 0.0000803 0.0028610 -0.0007651 0.0007591 -0.0001011 0.0007891 -0.0001255 0.0020019
-0.0027201 0.0078039 -0.0002163 0.0006883 -0.0000818 0.0005365 -0.0002388 0.0023273 0.0004981 0.0029511 -0.0001196 0.0027661 -0.0002080 0.0030643 -0.0008099 0.0004475 -0.0001202 0.0005831 -0.0000637 0.0015868
-0.0127838 0.0202502 -0.0002323 0.0006751 -0.0001283 0.0005619 -0.0001761 0.0022111 0.0005267 0.0028093 -0.0001719 0.0021285 -0.0001755 0.0022314 -0.0008515 -0.0005267 -0.0001450 -0.0000088 0.0000673 0.0009450
-0.0058308 0.0105146 -0.0002529 0.0005444 -0.0000003 0.0002997 -0.0000533 0.0019145 0.0005936 0.0026390 -0.0001731 0.0016977 0.0000443 0.0016330 -0.0008420 -0.0007561 -0.0001664 -0.0002347 0.0001106 0.0010614
-0.0103896 0.0011709 -0.0002568 0.0005493 0.0001175 0.0001292 -0.0000165 0.0017958 0.0006344 0.0027505 -0.0001332 0.0018659 0.0001889 0.0016880 -0.0008485 -0.0006927 -0.0001437 -0.0000787 0.0002273 0.0009991
-0.0154092 0.0029188 -0.0002118 0.0006021 0.0000159 0.0002192 -0.0001316 0.0017865 0.0006475 0.0028273 -0.0001177 0.0019558 -0.0000303 0.0021930 -0.0008772 -0.0006357 -0.0001333 0.0001190 0.0004976 0.0005310
0.0055617 -0.0159626 -0.0002244 0.0006052 -0.0001056 0.0003223 -0.0001213 0.0018123 0.0006292 0.0029095 -0.0001221 0.0019976 -0.0000648 0.0021093 -0.0009470 -0.0011765 -0.0001394 -0.0000132 0.0003478 0.0002726
0.0031905 -0.0105812 -0.0002633 0.0004828 0.0000453 0.0000919 -0.0001234 0.0014838 0.0006156 0.0027328 -0.0001693 0.0012940 0.0002968 0.0010115 -0.0010444 -0.0023159 -0.0000949 -0.0003298 0.0000251 0.0002517
-0.0038249 0.0031449 -0.0002827 0.0002208 0.0003006 -0.0003411 -0.0002146 0.0010579 0.0006330 0.0025076 -0.0001910 0.0006903 0.0000345 0.0006862 -0.0010507 -0.0026943 -0.0000590 -0.0003969 0.0001047 0.0001226
-0.0061875 0.0059028 -0.0002924 0.0000856 0.0001653 -0.0003081 -0.0001987 0.0009178 0.0006482 0.0024941 -0.0001537 0.0008534 -0.0001312 0.0007405 -0.0010276 -0.0023295 -0.0000800 -0.0002380 0.0002552 -0.0001054
-0.0120451 0.0111904 -0.0002894 0.0001060 -0.0000115 -0.0000112 -0.0002028 0.0009771 0.0006437 0.0025013 -0.0001100 0.0012248 0.0000439 0.0008741 -0.0010141 -0.0017549 -0.0001056 0.0000459 0.0003235 -0.0001032
-0.0046097 -0.0086936 -0.0003107 0.0001747 -0.0000212 0.0000727 -0.0002022 0.0011537 0.0006657 0.0026319 -0.0000686 0.0017274 -0.0000323 0.0016630 -0.0010651 -0.0018469 -0.0001237 0.0000403 0.0001470 -0.0000257
-0.0087798 -0.0057741 -0.0003015 0.0000823 -0.0000464 -0.0001283 -0.0001298 0.0008656 0.0007252 0.0025177 -0.0000869 0.0011359 -0.0000191 0.0011207 -0.0011619 -0.0029947 -0.0001345 -0.0004536 -0.0000421 -0.0002402
-0.0052634 0.0028025 -0.0003020 -0.0000969 -0.0000676 -0.0003993 -0.0001436 0.0002813 0.0007611 0.0022835 -0.0000949 0.0002818 0.0001403 -0.0000191 -0.0011786 -0.0037767 -0.0001390 -0.0007386 -0.0000902 -0.0004034
0.0068042 -0.0119890 -0.0003176 -0.0001865 -0.0000977 -0.0005149 -0.0002636 0.0000477 0.0007512 0.0022031 -0.0000741 0.0001709 0.0002662 -0.0003043 -0.0011575 -0.0038008 -0.0001493 -0.0008692 -0.0001513 -0.0005270
0.0042510 -0.0111537 -0.0003285 -0.0003178 -0.0000380 -0.0006052 -0.0001838 -0.0000607 0.0007295 0.0020388 -0.0000860 0.0000360 0.0000062 -0.0001683 -0.0011516 -0.0038749 -0.0001739 -0.0010504 0.0000316 -0.0010742
-0.0101709 -0.0009582 -0.0003906 -0.0004541 0.0000162 -0.0006570 -0.0000573 -0.0000595 0.0007121 0.0019720 -0.0000670 0.0002053 0.0000446 -0.0000138 -0.0011888 -0.0037527 -0.0001940 -0.0009291 0.0001156 -0.0012768
-0.0004755 -0.0087891 -0.0004327 -0.0005899 0.0000839 -0.0008298 -0.0001317 -0.0001978 0.0006872 0.0017791 -0.0000847 -0.0002797 0.0000054 -0.0005480 -0.0012509 -0.0045138 -0.0001927 -0.0012095 -0.0001091 -0.0015016
0.0008988 -0.0070380 -0.0004745 -0.0008476 0.0000154 -0.0010682 -0.0002016 -0.0006378 0.0006807 0.0014188 -0.0001042 -0.0010329 -0.0001182 -0.0012960 -0.0013306 -0.0054109 -0.0001953 -0.0015997 0.0001335 -0.0024864
-0.0042510 0.0029733 -0.0005432 -0.0011811 -0.0001216 -0.0012258 -0.0001684 -0.0009071 0.0006765 0.0012042 -0.0000873 -0.0011490 -0.0000401 -0.0014607 -0.0013182 -0.0054615 -0.0002139 -0.0016447 0.0001876 -0.0026339
-0.0035350 0.0034125 -0.0006464 -0.0014837 -0.0000649 -0.0012953 -0.0001970 -0.0008518 0.0006529 0.0011166 -0.0000927 -0.0011677 -0.0004413 -0.0011247 -0.0012868 -0.0054464 -0.0002341 -0.0016916 -0.0001832 -0.0023827
-0.0242998 0.0255633 -0.0007250 -0.0017358 0.0001212 -0.0013566 -0.0001600 -0.0008236 0.0006338 0.0010846 -0.0000817 -0.0010537 -0.0002104 -0.0013940 -0.0013122 -0.0051706 -0.0002531 -0.0015826 -0.0000614 -0.0024782
-0.0124352 0.0197858 -0.0007786 -0.0018130 0.0001262 -0.0012473 -0.0001048 -0.0007383 0.0006102 0.0010895 -0.0000856 -0.0011442 0.0000097 -0.0019481 -0.0013265 -0.0056273 -0.0002619 -0.0017975 0.0001047 -0.0029176
-0.0067134 0.0168513 -0.0008038 -0.0019665 0.0000586 -0.0013159 -0.0001466 -0.0010310 0.0006043 0.0008309 -0.0001284 -0.0018317 -0.0001463 -0.0026498 -0.0013078 -0.0066237 -0.0002699 -0.0022965 0.0001602 -0.0036130
-0.0044034 0.0137634 -0.0008026 -0.0021922 0.0000824 -0.0016518 -0.0002140 -0.0013866 0.0006206 0.0004927 -0.0001348 -0.0023481 -0.0000639 -0.0032073 -0.0013365 -0.0069141 -0.0002752 -0.0024402 0.0000266 -0.0035102
0.0076045 -0.0068223 -0.0008416 -0.0022198 0.0000137 -0.0016477 -0.0001846 -0.0014900 0.0006221 0.0004235 -0.0001075 -0.0022892 -0.0003351 -0.0026594 -0.0013923 -0.0066694 -0.0002759 -0.0023086 0.0001240 -0.0035251
0.0054338 -0.0080264 -0.0008371 -0.0022172 0.0000260 -0.0016489 -0.0002464 -0.0014599 0.0006030 0.0004212 -0.0000889 -0.0021021 -0.0003219 -0.0023711 -0.0013346 -0.0063795 -0.0002782 -0.0021312 0.0001323 -0.0034518
0.0040286 0.0012078 -0.0008374 -0.0021760 0.0001405 -0.0016769 -0.0002631 -0.0013343 0.0005743 0.0004535 -0.0000679 -0.0018578 -0.0001691 -0.0024517 -0.0013096 -0.0059199 -0.0002955 -0.0019756 0.0001180 -0.0032759
0.0013579 0.0043897 -0.0008550 -0.0021023 0.0001491 -0.0014978 -0.0001900 -0.0012500 0.0005639 0.0003623 -0.0000932 -0.0021550 -0.0000611 -0.0030250 -0.0013651 -0.0063081 -0.0003165 -0.0022983 0.0002237 -0.0036625
0.0017014 0.0001996 -0.0008176 -0.0021845 0.0001576 -0.0016001 -0.0002374 -0.0012799 0.0005570 0.0000826 -0.0001421 -0.0027982 0.0001072 -0.0039544 -0.0013298 -0.0069078 -0.0002934 -0.0026535 0.0001341 -0.0040454
0.0146920 -0.0137168 -0.0007846 -0.0022561 0.0004572 -0.0019845 -0.0001960 -0.0015704 0.0005569 -0.0000223 -0.0001496 -0.0029503 0.0003200 -0.0040958 -0.0012914 -0.0066713 -0.0002713 -0.0025639 0.0001294 -0.0040644
0.0208015 -0.0272545 -0.0007940 -0.0022159 0.0003508 -0.0017539 -0.0001434 -0.0016595 0.0005672 0.0001272 -0.0001365 -0.0027872 0.0003265 -0.0036931 -0.0012698 -0.0063500 -0.0002782 -0.0024150 0.0001780 -0.0039996
0.0158012 -0.0211469 -0.0008142 -0.0020873 -0.0000287 -0.0012948 -0.0000462 -0.0015949 0.0005758 0.0003222 -0.0001025 -0.0024211 -0.0001959 -0.0028998 -0.0012085 -0.0057088 -0.0002877 -0.0020479 0.0002082 -0.0039824
0.0114703 -0.0153982 -0.0008008 -0.0018756 0.0000331 -0.0012582 0.0000369 -0.0013795 0.0005821 0.0005815 -0.0000390 -0.0017231 -0.0002586 -0.0023159 -0.0011189 -0.0046726 -0.0002712 -0.0015135 0.0000073 -0.0033739
0.0117820 -0.0165719 -0.0007546 -0.0016522 0.0000809 -0.0011324 0.0000482 -0.0011524 0.0005806 0.0007371 -0.0000211 -0.0015604 -0.0001473 -0.0025858 -0.0011428 -0.0046531 -0.0002466 -0.0015530 0.0002464 -0.0035530
0.0114351 -0.0190142 -0.0007124 -0.0015361 -0.0000014 -0.0010736 -0.0000257 -0.0012361 0.0006043 0.0006229 -0.0000453 -0.0018710 -0.0002913 -0.0029797 -0.0011495 -0.0052279 -0.0002449 -0.0017842 0.0005786 -0.0040490
-0.0007744 0.0093752 -0.0006918 -0.0014825 -0.0000150 -0.0010837 -0.0000941 -0.0013289 0.0006257 0.0005444 -0.0000072 -0.0017037 -0.0000771 -0.0026457 -0.0010731 -0.0049972 -0.0002310 -0.0015437 -0.0000087 -0.0030998
-0.0009165 0.0080449 -0.0006646 -0.0013725 -0.0001670 -0.0008822 -0.0001990 -0.0010477 0.0006107 0.0006628 0.0000465 -0.0012990 0.0001127 -0.0021818 -0.0010530 -0.0045302 -0.0002177 -0.0012307 -0.0003210 -0.0025481
-0.0013716 -0.0051499 -0.0006503 -0.0012420 -0.0001987 -0.0007930 -0.0002222 -0.0008609 0.0006180 0.0008381 0.0000822 -0.0008432 -0.0000942 -0.0014444 -0.0010417 -0.0039320 -0.0002283 -0.0008645 -0.0001356 -0.0024240
0.0011867 -0.0139764 -0.0006952 -0.0010308 -0.0000838 -0.0007324 -0.0000601 -0.0007168 0.0006371 0.0010755 0.0001236 -0.0002689 0.0002250 -0.0012371 -0.0010342 -0.0032782 -0.0002350 -0.0004788 0.0002204 -0.0022304
0.0124500 -0.0224636 -0.0007297 -0.0008129 -0.0000095 -0.0007385 -0.0001497 -0.0003612 0.0006418 0.0012660 0.0001262 -0.0000542 0.0004070 -0.0014832 -0.0010698 -0.0035644 -0.0002263 -0.0006111 0.0002781 -0.0024058
0.0053690 -0.0143824 -0.0006878 -0.0008246 -0.0000046 -0.0008669 -0.0001556 -0.0007005 0.0006364 0.0010930 0.0000651 -0.0006669 -0.0002168 -0.0015284 -0.0011487 -0.0044321 -0.0002214 -0.0010776 -0.0002264 -0.0022798
-0.0114315 0.0041235 -0.0006337 -0.0009448 -0.0000197 -0.0009413 -0.0001323 -0.0009858 0.0006324 0.0008932 0.0000299 -0.0010377 -0.0000302 -0.0017528 -0.0011008 -0.0045656 -0.0002380 -0.0011019 -0.0003990 -0.0019626
-0.0045823 0.0014614 -0.0006345 -0.0009244 -0.0000434 -0.0009380 -0.0001893 -0.0007785 0.0006309 0.0009759 0.0000395 -0.0007613 0.0000691 -0.0014239 -0.0010756 -0.0041840 -0.0002494 -0.0008833 -0.0001240 -0.0019812
0.0116962 -0.0182690 -0.0006601 -0.0008245 -0.0001995 -0.0007353 -0.0002177 -0.0005979 0.0006177 0.0011017 0.0000491 -0.0004242 -0.0001338 -0.0009448 -0.0010638 -0.0036985 -0.0002609 -0.0006290 0.0001027 -0.0020463
0.0083803 -0.0075905 -0.0006664 -0.0007257 -0.0001933 -0.0005223 -0.0002690 -0.0003001 0.0006083 0.0012856 0.0000735 0.0000529 -0.0000811 -0.0004107 -0.0010140 -0.0031667 -0.0002882 -0.0003349 0.0000006 -0.0016986
-0.0062629 0.0145997 -0.0007222 -0.0005605 -0.0000405 -0.0005511 -0.0001867 -0.0001021 0.0005925 0.0014879 0.0000970 0.0005327 0.0002002 -0.0002939 -0.0010080 -0.0028550 -0.0003194 -0.0001685 -0.0001317 -0.0015037
-0.0049327 0.0105565 -0.0007335 -0.0005039 -0.0000656 -0.0005802 -0.0001908 -0.0001775 0.0005742 0.0013649 0.0000368 -0.0000060 0.0003314 -0.0011190 -0.0010579 -0.0037991 -0.0003410 -0.0006130 0.0000585 -0.0019895
0.0026476 -0.0072962 -0.0006927 -0.0006281 -0.0000517 -0.0007433 -0.0002502 -0.0004933 0.0005710 0.0010674 -0.0000441 -0.0007926 -0.0000144 -0.0015056 -0.0011531 -0.0046079 -0.0003530 -0.0009783 0.0000313 -0.0022205
-0.0039057 0.0007305 -0.0006959 -0.0006600 -0.0000483 -0.0007549 -0.0003137 -0.0004815 0.0005675 0.0010308 -0.0000490 -0.0006969 -0.0002909 -0.0012279 -0.0011809 -0.0043379 -0.0003637 -0.0007896 -0.0001051 -0.0017598
-0.0000959 0.0043196 -0.0007085 -0.0005822 -0.0002736 -0.0004801 -0.0003110 -0.0003789 0.0005423 0.0011172 -0.0000340 -0.0004284 -0.0004841 -0.0008050 -0.0011899 -0.0038334 -0.0003757 -0.0005628 0.0001968 -0.0015104
0.0036542 -0.0066973 -0.0007115 -0.0004947 -0.0001544 -0.0005686 -0.0001543 -0.0004926 0.0005081 0.0012783 -0.0000120 0.0000147 -0.0001409 -0.0002740 -0.0011848 -0.0031213 -0.0003801 -0.0002552 0.0000013 -0.0012857
-0.0020387 -0.0186478 -0.0007310 -0.0003902 -0.0001884 -0.0003801 -0.0001818 -0.0003802 0.0004843 0.0014604 0.0000133 0.0005476 -0.0000019 0.0004905 -0.0011439 -0.0025588 -0.0003870 0.0000655 -0.0002348 -0.0010598
-0.0040290 0.0081895 -0.0007689 -0.0002637 -0.0003251 -0.0001980 -0.0003670 0.0000793 0.0004561 0.0016334 0.0000193 0.0009738 -0.0000727 0.0003618 -0.0011583 -0.0027188 -0.0004003 0.0000658 -0.0001237 -0.0011954
-0.0003136 0.0049214 -0.0007815 -0.0002892 -0.0002923 -0.0003883 -0.0004555 0.0000691 0.0004483 0.0014014 -0.0000514 0.0003411 -0.0002899 -0.0004993 -0.0011990 -0.0038412 -0.0003885 -0.0004437 0.0000561 -0.0018236
0.0132041 -0.0224055 -0.0007619 -0.0004569 -0.0003040 -0.0005098 -0.0004412 -0.0003003 0.0004442 0.0010406 -0.0001050 -0.0003991 -0.0007206 -0.0004165 -0.0011580 -0.0043428 -0.0003756 -0.0006663 -0.0001201 -0.0014167
0.0098829 -0.0110887 -0.0007486 -0.0005308 -0.0002702 -0.0005334 -0.0004190 -0.0004000 0.0004267 0.0010187 -0.0000914 -0.0002300 -0.0005874 -0.0002805 -0.0011730 -0.0038629 -0.0003776 -0.0004508 -0.0002294 -0.0009843
0.0041281 0.0023998 -0.0007472 -0.0005152 -0.0002620 -0.0005434 -0.0004184 -0.0003474 0.0004134 0.0010553 -0.0000826 0.0000617 -0.0002954 -0.0002848 -0.0012229 -0.0032305 -0.0003838 -0.0002012 -0.0002010 -0.0008665
0.0055814 0.0017282 -0.0007382 -0.0004722 -0.0002002 -0.0005733 -0.0003340 -0.0002804 0.0003937 0.0011614 -0.0000662 0.0005323 -0.0004216 0.0003930 -0.0011685 -0.0025211 -0.0003925 0.0001221 -0.0001863 -0.0005012
0.0084515 -0.0022105 -0.0007613 -0.0003853 -0.0004279 -0.0002663 -0.0003204 -0.0001518 0.0003709 0.0013358 -0.0000437 0.0010727 -0.0003616 0.0011975 -0.0011310 -0.0018797 -0.0003841 0.0003924 -0.0002125 -0.0004097
0.0069200 -0.0110553 -0.0007860 -0.0003003 -0.0004577 -0.0001567 -0.0003731 0.0001629 0.0003365 0.0014555 -0.0000702 0.0011287 -0.0003863 0.0009778 -0.0011701 -0.0023566 -0.0003827 0.0001673 -0.0002477 -0.0005499
-0.0218593 0.0194373 -0.0007592 -0.0003826 -0.0002273 -0.0004062 -0.0003609 0.0000146 0.0003293 0.0012020 -0.0001447 0.0004230 -0.0004799 0.0000290 -0.0012366 -0.0033823 -0.0004047 -0.0002959 -0.0001100 -0.0008846
-0.0086767 0.0106988 -0.0007489 -0.0005186 -0.0001863 -0.0005523 -0.0003697 -0.0003529 0.0003321 0.0009556 -0.0001699 0.0000619 -0.0001657 -0.0006762 -0.0012480 -0.0034096 -0.0004053 -0.0003150 -0.0002088 -0.0008629
0.0137018 -0.0225530 -0.0007641 -0.0005329 -0.0000941 -0.0006519 -0.0003449 -0.0003716 0.0003035 0.0010067 -0.0001572 0.0003302 -0.0002535 -0.0005442 -0.0011744 -0.0029669 -0.0003946 -0.0000847 -0.0001638 -0.0005508
0.0122628 -0.0128312 -0.0007490 -0.0005051 -0.0002888 -0.0003888 -0.0003531 -0.0002191 0.0002885 0.0010977 -0.0001416 0.0006732 -0.0004134 0.0004260 -0.0011078 -0.0024037 -0.0004047 0.0001706 0.0001284 -0.0003602
0.0053196 -0.0040241 -0.0007538 -0.0004235 -0.0002485 -0.0003345 -0.0003738 -0.0000207 0.0002835 0.0012610 -0.0001201 0.0011557 -0.0001039 0.0008990 -0.0011302 -0.0016979 -0.0004183 0.0004528 -0.0000074 -0.0000958
0.0000783 0.0003149 -0.0007767 -0.0003199 -0.0002154 -0.0003011 -0.0003736 0.0002061 0.0002605 0.0014526 -0.0001020 0.0016701 -0.0000159 0.0012250 -0.0011704 -0.0010208 -0.0004238 0.0007129 0.0000884 -0.0002889
-0.0046505 0.0082254 -0.0007647 -0.0003203 -0.0006647 0.0002270 -0.0004006 0.0002589 0.0002392 0.0014135 -0.0001510 0.0012759 -0.0001610 0.0007651 -0.0011759 -0.0018055 -0.0004181 0.0003583 0.0002822 -0.0010758
0.0001782 0.0058850 -0.0007311 -0.0004861 -0.0004805 -0.0001010 -0.0003590 -0.0000335 0.0002368 0.0011733 -0.0002165 0.0005829 -0.0005178 0.0004913 -0.0011689 -0.0026979 -0.0004153 -0.0000317 -0.0000789 -0.0006825
0.0090534 0.0053845 -0.0007667 -0.0006273 -0.0001845 -0.0005161 -0.0003993 -0.0000494 0.0002260 0.0010982 -0.0002214 0.0006324 -0.0009371 0.0013870 -0.0011695 -0.0023545 -0.0004255 0.0000691 -0.0001412 -0.0005417
0.0043192 0.0105036 -0.0008032 -0.0006678 -0.0004833 -0.0002182 -0.0004718 0.0001183 0.0002140 0.0011529 -0.0002099 0.0008457 -0.0002541 0.0010333 -0.0011741 -0.0019726 -0.0004321 0.0001947 -0.0000688 -0.0003219
0.0026021 -0.0076311 -0.0008127 -0.0006551 -0.0004966 -0.0002244 -0.0004135 0.0002102 0.0002093 0.0012511 -0.0001927 0.0011971 -0.0000495 0.0011726 -0.0011476 -0.0013929 -0.0004389 0.0004461 -0.0002401 0.0005837
-0.0046106 0.0040979 -0.0008168 -0.0005984 -0.0002707 -0.0003300 -0.0004483 0.0004294 0.0001901 0.0014263 -0.0001791 0.0016439 -0.0004455 0.0019658 -0.0010984 -0.0008295 -0.0004484 0.0007109 -0.0003627 0.0007745
-0.0108790 0.0193307 -0.0008093 -0.0005630 -0.0002289 -0.0003241 -0.0004881 0.0005540 0.0001825 0.0014368 -0.0002228 0.0013697 -0.0001720 0.0012563 -0.0010994 -0.0014976 -0.0004463 0.0004233 -0.0003485 0.0002934
-0.0064961 0.0171144 -0.0007923 -0.0006889 -0.0003506 -0.0003304 -0.0004046 0.0003239 0.0001882 0.0012532 -0.0002720 0.0007890 -0.0001839 0.0007952 -0.0011305 -0.0022913 -0.0004419 0.0000862 -0.0003690 -0.0000967
-0.0045631 0.0144191 -0.0007890 -0.0008114 -0.0007517 0.0000126 -0.0003591 0.0000679 0.0001817 0.0012258 -0.0002694 0.0008422 -0.0002318 0.0010540 -0.0011713 -0.0019523 -0.0004463 0.0002080 -0.0001622 -0.0001000
0.0061559 0.0008547 -0.0008105 -0.0008223 -0.0006266 -0.0000629 -0.0003462 0.0000993 0.0001721 0.0013373 -0.0002571 0.0011046 -0.0002784 0.0012466 -0.0011913 -0.0015857 -0.0004495 0.0003588 0.0000525 -0.0000660
0.0116101 -0.0107874 -0.0008149 -0.0008238 -0.0004710 -0.0001517 -0.0003830 0.0003237 0.0001705 0.0014744 -0.0002346 0.0014779 -0.0002329 0.0014974 -0.0011567 -0.0010533 -0.0004675 0.0006066 -0.0001268 0.0002550
-0.0023018 0.0081639 -0.0008568 -0.0007139 -0.0006602 0.0001872 -0.0004400 0.0005647 0.0001613 0.0016531 -0.0002086 0.0019266 -0.0001085 0.0019499 -0.0011176 -0.0004625 -0.0004903 0.0008653 -0.0002871 0.0004589
-0.0078669 0.0077453 -0.0008648 -0.0006730 -0.0006626 0.0002425 -0.0005119 0.0006532 0.0001623 0.0016056 -0.0002508 0.0015683 -0.0004563 0.0018658 -0.0011654 -0.0011566 -0.0004925 0.0005398 -0.0003792 0.0003992
-0.0115111 -0.0018645 -0.0008394 -0.0008318 -0.0006240 -0.0000174 -0.0004914 0.0004262 0.0001693 0.0013932 -0.0003107 0.0009093 -0.0004726 0.0010978 -0.0012384 -0.0019767 -0.0004872 0.0001521 -0.0006088 0.0003166
-0.0061006 0.0068578 -0.0008570 -0.0009564 -0.0004473 -0.0003907 -0.0004179 0.0002945 0.0001568 0.0013681 -0.0003077 0.0009411 -0.0003175 0.0011256 -0.0012136 -0.0017155 -0.0004866 0.0002634 -0.0002414 0.0001796
0.0044873 0.0012896 -0.0008636 -0.0009843 -0.0004057 -0.0004090 -0.0004451 0.0003566 0.0001502 0.0014418 -0.0002924 0.0011761 -0.0002765 0.0012440 -0.0012010 -0.0013699 -0.0004916 0.0004065 -0.0000710 0.0002123
0.0035124 0.0001738 -0.0008446 -0.0009704 -0.0004473 -0.0002916 -0.0004820 0.0004832 0.0001468 0.0015500 -0.0002682 0.0015375 -0.0003322 0.0017022 -0.0011876 -0.0008436 -0.0004996 0.0006480 -0.0002618 0.0002919
0.0051855 -0.0065471 -0.0008676 -0.0008758 -0.0006275 -0.0000136 -0.0005120 0.0008021 0.0001389 0.0017100 -0.0002391 0.0019574 -0.0004987 0.0023118 -0.0011200 -0.0006601 -0.0005018 0.0007816 -0.0002605 0.0003975
0.0092912 -0.0115043 -0.0009204 -0.0008701 -0.0007149 0.0000159 -0.0005003 0.0006625 0.0001295 0.0016076 -0.0002862 0.0015318 -0.0004853 0.0019816 -0.0011394 -0.0013801 -0.0004986 0.0004743 -0.0002548 0.0006047
0.0012812 -0.0090644 -0.0009002 -0.0010485 -0.0006096 -0.0002589 -0.0004592 0.0003109 0.0001234 0.0014179 -0.0003293 0.0009899 -0.0003899 0.0013026 -0.0012391 -0.0017424 -0.0004932 0.0002541 -0.0001398 0.0005617
0.0017726 -0.0113751 -0.0008528 -0.0011631 -0.0006446 -0.0002933 -0.0004041 0.0002657 0.0001269 0.0014352 -0.0003129 0.0011611 -0.0004793 0.0008958 -0.0012282 -0.0013848 -0.0005058 0.0003995 -0.0002458 0.0005322
0.0006592 -0.0044773 -0.0008552 -0.0011523 -0.0005165 -0.0004080 -0.0004572 0.0003891 0.0001267 0.0015133 -0.0002985 0.0013894 -0.0003119 0.0011774 -0.0011686 -0.0010613 -0.0005119 0.0005525 -0.0002219 0.0005022
0.0007190 -0.0032604 -0.0008783 -0.0011002 -0.0004369 -0.0003689 -0.0005869 0.0007506 0.0001204 0.0016541 -0.0002751 0.0017896 0.0001834 0.0016699 -0.0011771 -0.0004679 -0.0005230 0.0007934 -0.0005328 0.0010009
0.0086127 -0.0181005 -0.0009204 -0.0010122 -0.0005249 -0.0001563 -0.0005657 0.0009492 0.0001130 0.0017325 -0.0003027 0.0017345 -0.0001122 0.0015159 -0.0011982 -0.0008466 -0.0005310 0.0006086 -0.0008401 0.0009534
-0.0001821 -0.0109120 -0.0009242 -0.0011367 -0.0005815 -0.0001914 -0.0005171 0.0007927 0.0001081 0.0016141 -0.0003508 0.0013024 -0.0004561 0.0011111 -0.0012436 -0.0013618 -0.0005245 0.0003402 -0.0002475 0.0001303
-0.0045775 -0.0075083 -0.0008949 -0.0013177 -0.0006275 -0.0002234 -0.0004734 0.0006471 0.0000989 0.0015501 -0.0003503 0.0012838 -0.0003943 0.0012180 -0.0012364 -0.0010915 -0.0005260 0.0004407 -0.0000525 0.0000947
-0.0133663 0.0059377 -0.0009332 -0.0013097 -0.0004690 -0.0004065 -0.0004493 0.0007082 0.0000967 0.0016234 -0.0003278 0.0015463 -0.0005462 0.0021693 -0.0011679 -0.0007951 -0.0005264 0.0005820 -0.0000294 0.0002036
-0.0254910 0.0327250 -0.0009696 -0.0013087 -0.0004898 -0.0003415 -0.0004680 0.0008389 0.0000913 0.0017236 -0.0003040 0.0018789 -0.0003013 0.0026390 -0.0011194 -0.0003187 -0.0005323 0.0008221 -0.0001193 0.0005391
-0.0214679 0.0308316 -0.0009599 -0.0012803 -0.0007468 0.0000461 -0.0003430 0.0008862 0.0000805 0.0018768 -0.0003064 0.0020470 -0.0002372 0.0023387 -0.0011591 -0.0004229 -0.0005205 0.0007462 -0.0004166 0.0007599
-0.0012685 0.0073828 -0.0009558 -0.0012751 -0.0007225 -0.0000180 -0.0002788 0.0007932 0.0000855 0.0017987 -0.0003647 0.0016890 -0.0003173 0.0020511 -0.0010212 -0.0004140 -0.0005290 0.0004067 -0.0003317 0.0009804
-0.0046231 0.0052670 -0.0009615 -0.0011491 -0.0005023 -0.0000184 -0.0002612 0.0010269 0.0000868 0.0017754 -0.0003930 0.0017335 -0.0001750 0.0021680 -0.0007201 0.0004734 -0.0005088 0.0004155 -0.0004301 0.0011750
-0.0279983 0.0205652 -0.0009106 -0.0009669 -0.0005330 0.0003807 -0.0001346 0.0014340 0.0000861 0.0019445 -0.0003720 0.0022559 -0.0000202 0.0029889 -0.0006298 0.0014067 -0.0004918 0.0005370 -0.0005508 0.0008623
-0.0016544 -0.0003290 -0.0008856 -0.0009130 -0.0005983 0.0006222 -0.0001512 0.0018386 0.0000977 0.0020356 -0.0003469 0.0026834 -0.0000517 0.0042110 -0.0006421 0.0020156 -0.0005170 0.0007094 -0.0003269 0.0005581
0.0040304 -0.0016044 -0.0009026 -0.0008063 -0.0004648 0.0006429 -0.0001056 0.0022129 0.0001065 0.0021345 -0.0003513 0.0028544 -0.0002134 0.0045914 -0.0006957 0.0017408 -0.0005315 0.0005745 0.0000597 0.0002325
0.0026687 0.0010584 -0.0008987 -0.0008143 -0.0004488 0.0005702 0.0000626 0.0021287 0.0001055 0.0019639 -0.0004191 0.0022503 -0.0002588 0.0034029 -0.0007561 0.0010911 -0.0005284 0.0002034 0.0001128 -0.0000108
0.0035875 -0.0118394 -0.0008738 -0.0009139 -0.0004394 0.0003934 0.0001054 0.0020876 0.0000976 0.0017782 -0.0004547 0.0018699 -0.0001302 0.0027658 -0.0007514 0.0010095 -0.0005128 0.0002111 -0.0002576 0.0003201
0.0065278 -0.0183595 -0.0008637 -0.0009444 -0.0004131 0.0003161 0.0000901 0.0022359 0.0001174 0.0018553 -0.0004292 0.0021273 -0.0001163 0.0035410 -0.0007449 0.0012300 -0.0005304 0.0003064 -0.0000002 0.0000588
0.0054339 -0.0087042 -0.0008670 -0.0009727 -0.0004393 0.0003132 0.0000982 0.0023133 0.0001392 0.0020219 -0.0003964 0.0024766 -0.0002013 0.0041330 -0.0007368 0.0016398 -0.0005469 0.0004746 0.0001859 -0.0001588
-0.0028149 0.0062846 -0.0008766 -0.0009484 -0.0005446 0.0004479 0.0001180 0.0024115 0.0001467 0.0021636 -0.0004067 0.0025247 0.0000872 0.0038955 -0.0007241 0.0011445 -0.0005470 0.0003149 -0.0002401 0.0001523
-0.0059802 0.0125776 -0.0008764 -0.0010735 -0.0004757 0.0002645 0.0002117 0.0021754 0.0001635 0.0019989 -0.0004471 0.0019835 -0.0001377 0.0036367 -0.0007646 0.0003983 -0.0005339 -0.0000253 -0.0004290 0.0003218
0.0068327 -0.0039333 -0.0008467 -0.0012979 -0.0005552 0.0002461 0.0002280 0.0019812 0.0001918 0.0018429 -0.0004304 0.0017327 -0.0006544 0.0036518 -0.0008063 0.0005176 -0.0005202 -0.0000235 -0.0002671 0.0003849
0.0071741 -0.0004684 -0.0008685 -0.0013451 -0.0005013 0.0001634 0.0001660 0.0021740 0.0002182 0.0019255 -0.0003760 0.0019351 -0.0004990 0.0035928 -0.0008091 0.0006371 -0.0005183 0.0001047 -0.0000566 0.0002063
-0.0061612 0.0051078 -0.0008729 -0.0013522 -0.0002592 -0.0002139 0.0001962 0.0020424 0.0002340 0.0020081 -0.0003314 0.0020735 -0.0000835 0.0034535 -0.0008647 0.0007037 -0.0004974 0.0003021 -0.0000222 0.0001374
-0.0046818 0.0078074 -0.0008836 -0.0014159 -0.0003925 -0.0001591 0.0001290 0.0019200 0.0002410 0.0020530 -0.0003342 0.0018366 0.0002340 0.0027724 -0.0009105 -0.0000686 -0.0004866 0.0000323 -0.0002436 -0.0002037
0.0038514 0.0045876 -0.0009323 -0.0015938 -0.0004209 -0.0003619 0.0001225 0.0017204 0.0002402 0.0018219 -0.0003560 0.0012275 0.0002351 0.0020013 -0.0009244 -0.0009263 -0.0004891 -0.0003928 -0.0002770 -0.0005437
0.0110379 -0.0134791 -0.0009697 -0.0017758 -0.0003452 -0.0006262 0.0003086 0.0013652 0.0002516 0.0015924 -0.0003349 0.0009586 0.0003272 0.0015819 -0.0008949 -0.0009905 -0.0004840 -0.0004518 0.0001989 -0.0007393
0.0038253 0.0028098 -0.0009674 -0.0018848 -0.0004391 -0.0005216 0.0002786 0.0013665 0.0002680 0.0016221 -0.0003080 0.0010592 0.0004263 0.0017350 -0.0007864 -0.0009486 -0.0004914 -0.0004213 0.0003180 -0.0006585
0.0101568 -0.0006439 -0.0009409 -0.0019414 -0.0005979 -0.0002189 0.0001311 0.0015992 0.0002860 0.0016814 -0.0002840 0.0012410 -0.0001539 0.0024989 -0.0007863 -0.0006014 -0.0005005 -0.0002430 -0.0000552 -0.0001914
0.0194547 -0.0185930 -0.0009473 -0.0019197 -0.0005572 -0.0001934 0.0001021 0.0017372 0.0003066 0.0016952 -0.0002907 0.0010336 -0.0005133 0.0024649 -0.0008221 -0.0011003 -0.0004922 -0.0004477 -0.0001627 -0.0004340
-0.0010008 0.0080538 -0.0009647 -0.0020538 -0.0005425 -0.0004401 0.0001371 0.0013436 0.0003288 0.0014997 -0.0003126 0.0004357 -0.0004206 0.0017190 -0.0008508 -0.0018963 -0.0004819 -0.0007675 0.0001162 -0.0010823
-0.0145625 0.0309059 -0.0009827 -0.0022320 -0.0005351 -0.0006516 0.0001371 0.0010576 0.0003423 0.0013555 -0.0002963 0.0002032 -0.0004166 0.0011657 -0.0008802 -0.0019535 -0.0004843 -0.0007472 0.0001612 -0.0009887
0.0001975 0.0104082 -0.0009976 -0.0022712 -0.0001969 -0.0010440 0.0001632 0.0010959 0.0003585 0.0013730 -0.0002646 0.0003012 -0.0003126 0.0010461 -0.0008781 -0.0017915 -0.0004766 -0.0006544 0.0002126 -0.0010433
0.0054153 -0.0210044 -0.0009651 -0.0023112 -0.0002868 -0.0009877 0.0002318 0.0010266 0.0003747 0.0014313 -0.0002372 0.0005100 0.0000981 0.0011342 -0.0008599 -0.0013874 -0.0004826 -0.0004498 0.0003975 -0.0011375
0.0019802 -0.0229384 -0.0009589 -0.0022933 -0.0004012 -0.0008723 0.0002417 0.0009529 0.0003973 0.0014234 -0.0002464 0.0003182 -0.0000431 0.0008283 -0.0008767 -0.0019527 -0.0004820 -0.0006611 0.0000624 -0.0007955
0.0059732 -0.0124286 -0.0009765 -0.0024265 -0.0002720 -0.0011585 0.0002118 0.0007312 0.0004111 0.0012223 -0.0002699 -0.0002706 -0.0005505 0.0004763 -0.0009383 -0.0027586 -0.0004589 -0.0010308 0.0001058 -0.0011806
-0.0013984 0.0117227 -0.0009674 -0.0026205 -0.0005759 -0.0011009 0.0001250 0.0005806 0.0004112 0.0010954 -0.0002540 -0.0005020 -0.0004933 0.0003757 -0.0010029 -0.0028757 -0.0004508 -0.0010556 0.0004195 -0.0016572
-0.0104206 0.0108764 -0.0009756 -0.0026931 -0.0006251 -0.0010815 0.0001473 0.0004847 0.0004207 0.0011231 -0.0002203 -0.0004187 -0.0004234 0.0003730 -0.0010075 -0.0029827 -0.0004605 -0.0009621 0.0003239 -0.0013704
0.0073388 -0.0191628 -0.0009806 -0.0027372 -0.0003091 -0.0012704 0.0002044 0.0004674 0.0004239 0.0011991 -0.0001817 -0.0002374 -0.0004382 0.0005716 -0.0009804 -0.0027748 -0.0004774 -0.0007623 0.0004062 -0.0012419
0.0094242 -0.0139054 -0.0010109 -0.0027036 -0.0003634 -0.0011207 0.0002338 0.0005135 0.0004322 0.0012841 -0.0001700 -0.0002372 0.0000234 -0.0002591 -0.0010371 -0.0031084 -0.0004830 -0.0009054 0.0005035 -0.0018861
0.0042124 -0.0136021 -0.0010451 -0.0028383 -0.0003143 -0.0014228 0.0002421 0.0003074 0.0004565 0.0010853 -0.0002030 -0.0008030 0.0000590 -0.0010945 -0.0010752 -0.0039502 -0.0004800 -0.0012576 0.0004663 -0.0024516
0.0102404 -0.0210142 -0.0010794 -0.0030500 -0.0001584 -0.0018656 0.0001977 0.0000663 0.0004795 0.0008552 -0.0002000 -0.0012030 -0.0003102 -0.0009180 -0.0010943 -0.0041973 -0.0004746 -0.0013163 0.0000809 -0.0022241
0.0086215 -0.0207856 -0.0010975 -0.0031556 -0.0002580 -0.0018782 0.0001406 0.0000279 0.0004796 0.0008824 -0.0001593 -0.0011056 -0.0004055 -0.0008579 -0.0010765 -0.0040953 -0.0004715 -0.0011969 0.0000329 -0.0018046
-0.0035074 -0.0070583 -0.0011226 -0.0031717 -0.0001648 -0.0019169 0.0002081 -0.0000198 0.0004796 0.0009563 -0.0001332 -0.0009182 -0.0002358 -0.0010213 -0.0010296 -0.0037816 -0.0004739 -0.0010096 0.0002215 -0.0015135
-0.0126673 0.0147562 -0.0011419 -0.0030858 -0.0003100 -0.0016149 0.0003038 0.0000387 0.0004916 0.0010725 -0.0000999 -0.0005811 -0.0003532 -0.0004465 -0.0009994 -0.0034533 -0.0004813 -0.0008239 0.0003762 -0.0018086
-0.0120701 0.0139464 -0.0011395 -0.0030520 -0.0004364 -0.0015951 0.0002029 0.0000477 0.0005025 0.0009313 -0.0001249 -0.0010078 -0.0006934 -0.0004285 -0.0010406 -0.0040783 -0.0004754 -0.0011164 0.0007789 -0.0025699
0.0012637 -0.0189284 -0.0011379 -0.0031485 -0.0002130 -0.0019699 0.0002301 -0.0002047 0.0005088 0.0007140 -0.0001469 -0.0015676 -0.0003763 -0.0015773 -0.0011093 -0.0047013 -0.0004608 -0.0014162 0.0010368 -0.0028444
0.0109773 -0.0250451 -0.0011041 -0.0032475 -0.0002282 -0.0020202 0.0003030 -0.0003393 0.0005196 0.0006807 -0.0001134 -0.0015003 0.0002352 -0.0020170 -0.0010932 -0.0044998 -0.0004516 -0.0013003 0.0008813 -0.0026173
0.0033529 0.0079671 -0.0010970 -0.0032058 -0.0002621 -0.0020395 0.0002101 -0.0001738 0.0005179 0.0007168 -0.0000896 -0.0013820 0.0000962 -0.0016660 -0.0010397 -0.0042874 -0.0004429 -0.0011704 0.0002568 -0.0022141
0.0026892 0.0051250 -0.0010781 -0.0031234 -0.0002871 -0.0019488 0.0002346 0.0000668 0.0005167 0.0008297 -0.0000596 -0.0010728 -0.0000621 -0.0013214 -0.0010112 -0.0038294 -0.0004382 -0.0009482 0.0001123 -0.0017577
-0.0064180 0.0018404 -0.0010567 -0.0030463 -0.0003306 -0.0016849 0.0002885 0.0001014 0.0005306 0.0007950 -0.0000834 -0.0012963 0.0001882 -0.0014583 -0.0010655 -0.0042723 -0.0004324 -0.0011901 0.0001426 -0.0018123
-0.0230100 0.0210931 -0.0010366 -0.0031178 -0.0003969 -0.0016690 0.0001791 -0.0000165 0.0005261 0.0005685 -0.0001149 -0.0018869 -0.0000107 -0.0020368 -0.0010812 -0.0050154 -0.0004197 -0.0015358 0.0001510 -0.0021739
-0.0204941 0.0171974 -0.0010320 -0.0032003 -0.0005924 -0.0016681 0.0001452 -0.0001388 0.0005310 0.0004111 -0.0000972 -0.0020081 0.0000500 -0.0023666 -0.0010622 -0.0048512 -0.0004025 -0.0014868 0.0003865 -0.0023401
0.0076654 -0.0133507 -0.0010508 -0.0031571 -0.0005595 -0.0017663 0.0003447 -0.0003488 0.0005510 0.0004331 -0.0000758 -0.0018198 -0.0001176 -0.0015320 -0.0010429 -0.0045205 -0.0003903 -0.0013823 0.0003517 -0.0022030
0.0159148 -0.0334630 -0.0010594 -0.0030955 -0.0004085 -0.0018206 0.0003680 -0.0003582 0.0005498 0.0005296 -0.0000593 -0.0015083 -0.0000467 -0.0012572 -0.0009632 -0.0039988 -0.0003953 -0.0011558 0.0001450 -0.0017592
-0.0195583 0.0135682 -0.0010533 -0.0029262 -0.0005414 -0.0014360 0.0003602 -0.0002006 0.0005379 0.0007267 -0.0000240 -0.0010561 0.0002125 -0.0011500 -0.0008549 -0.0036627 -0.0004040 -0.0009938 0.0002743 -0.0018994
-0.0232535 0.0272069 -0.0010266 -0.0028512 -0.0005673 -0.0014773 0.0004112 -0.0003628 0.0005533 0.0006585 -0.0000585 -0.0014728 -0.0001302 -0.0014472 -0.0008888 -0.0043259 -0.0003939 -0.0013647 0.0007331 -0.0029682
-0.0242901 0.0232166 -0.0010145 -0.0028787 -0.0004781 -0.0017139 0.0003204 -0.0004956 0.0005902 0.0004720 -0.0000931 -0.0020931 -0.0003955 -0.0019735 -0.0009302 -0.0049554 -0.0003860 -0.0016984 0.0006703 -0.0034024
-0.0080518 0.0009485 -0.0009865 -0.0028600 -0.0004186 -0.0015825 0.0003152 -0.0004292 0.0006292 0.0005196 -0.0000649 -0.0019856 -0.0003665 -0.0018097 -0.0008632 -0.0048942 -0.0003904 -0.0015961 0.0003319 -0.0028408
-0.0075676 0.0081439 -0.0009915 -0.0027479 -0.0004637 -0.0013912 0.0003038 -0.0001819 0.0006448 0.0006356 -0.0000419 -0.0018003 -0.0003017 -0.0014213 -0.0009097 -0.0045541 -0.0004015 -0.0014240 0.0000862 -0.0021432
-0.0078013 0.0028129 -0.0010293 -0.0025994 -0.0005347 -0.0011843 0.0003600 -0.0000212 0.0006581 0.0007763 -0.0000051 -0.0014422 -0.0000533 -0.0010622 -0.0009189 -0.0039800 -0.0004130 -0.0011604 -0.0001905 -0.0018164
0.0007915 -0.0085726 -0.0010317 -0.0024807 -0.0001835 -0.0014891 0.0004239 0.0001030 0.0006795 0.0008942 -0.0000074 -0.0013349 0.0002370 -0.0013922 -0.0008836 -0.0043590 -0.0003875 -0.0013237 -0.0004389 -0.0019374
0.0151648 -0.0224175 -0.0009773 -0.0025016 0.0000576 -0.0019146 0.0003170 -0.0000130 0.0006778 0.0007002 -0.0000567 -0.0019118 0.0000379 -0.0017130 -0.0008729 -0.0052217 -0.0003572 -0.0017265 -0.0002594 -0.0021091
0.0202008 -0.0353090 -0.0009524 -0.0025704 -0.0000655 -0.0017828 0.0002851 -0.0003204 0.0006865 0.0004678 -0.0000672 -0.0022674 -0.0000775 -0.0017137 -0.0008972 -0.0052075 -0.0003582 -0.0017504 0.0001183 -0.0024437
0.0035508 -0.0043895 -0.0009685 -0.0025223 -0.0000573 -0.0017281 0.0003415 -0.0003488 0.0007065 0.0005124 -0.0000314 -0.0020190 0.0003261 -0.0021886 -0.0008963 -0.0047496 -0.0003512 -0.0015797 0.0000753 -0.0025677
-0.0044313 0.0052669 -0.0009377 -0.0024571 -0.0000899 -0.0017854 0.0003828 -0.0002403 0.0007015 0.0006138 -0.0000035 -0.0016826 0.0005255 -0.0022742 -0.0008082 -0.0042518 -0.0003445 -0.0013250 -0.0000230 -0.0022772
-0.0199516 0.0211709 -0.0008842 -0.0023502 -0.0000585 -0.0017088 0.0004351 -0.0000671 0.0006866 0.0007987 0.0000283 -0.0011680 0.0003727 -0.0014032 -0.0007396 -0.0035914 -0.0003579 -0.0009855 -0.0000150 -0.0020416
-0.0202828 0.0207327 -0.0008848 -0.0021941 -0.0000281 -0.0014190 0.0004573 0.0001252 0.0006868 0.0009031 0.0000115 -0.0011902 0.0002253 -0.0015871 -0.0007847 -0.0040008 -0.0003511 -0.0011912 0.0002940 -0.0026079
0.0000477 -0.0069580 -0.0008944 -0.0021678 -0.0001387 -0.0013511 0.0004688 -0.0000705 0.0006971 0.0007240 -0.0000358 -0.0017551 0.0002405 -0.0022840 -0.0008683 -0.0047614 -0.0003304 -0.0015808 0.0001905 -0.0028083
0.0019862 -0.0102852 -0.0008543 -0.0022555 -0.0000913 -0.0015963 0.0003621 -0.0002146 0.0006949 0.0006029 -0.0000211 -0.0018689 0.0002526 -0.0015903 -0.0007941 -0.0046909 -0.0003276 -0.0015284 0.0001151 -0.0024460
0.0010646 -0.0070444 -0.0008414 -0.0022509 -0.0001839 -0.0014482 0.0004032 -0.0001902 0.0006858 0.0006999 0.0000142 -0.0015512 0.0001740 -0.0010154 -0.0007117 -0.0043048 -0.0003304 -0.0013221 0.0003322 -0.0025080
0.0077509 -0.0202174 -0.0008336 -0.0021730 -0.0001425 -0.0013851 0.0005537 -0.0001843 0.0006997 0.0007973 0.0000509 -0.0011400 0.0002225 -0.0008123 -0.0007433 -0.0035575 -0.0003241 -0.0010162 0.0002817 -0.0021016
-0.0000477 -0.0062943 -0.0008445 -0.0020400 0.0000405 -0.0014400 0.0005215 0.0001528 0.0007142 0.0009848 0.0000944 -0.0005991 0.0005604 -0.0006300 -0.0007228 -0.0027316 -0.0003227 -0.0006602 0.0003084 -0.0017248
-0.0016145 0.0053423 -0.0008637 -0.0018880 -0.0001356 -0.0010589 0.0005010 0.0004079 0.0007341 0.0011331 0.0000817 -0.0006564 0.0005076 -0.0007304 -0.0006653 -0.0032443 -0.0003133 -0.0008384 -0.0001225 -0.0016100
0.0019712 -0.0068500 -0.0008557 -0.0018954 -0.0001275 -0.0011097 0.0004974 0.0003040 0.0007656 0.0010143 0.0000379 -0.0012324 0.0003753 -0.0010539 -0.0007050 -0.0040132 -0.0002967 -0.0011793 -0.0001710 -0.0014858
0.0225661 -0.0597068 -0.0008307 -0.0019457 -0.0001632 -0.0011195 0.0004402 0.0002501 0.0007669 0.0009109 0.0000386 -0.0012772 0.0002655 -0.0007625 -0.0007111 -0.0036541 -0.0003003 -0.0010466 0.0000738 -0.0015939
0.0148351 -0.0371620 -0.0008287 -0.0018386 -0.0002530 -0.0008023 0.0004794 0.0004083 0.0007441 0.0009837 0.0000601 -0.0009113 0.0001299 -0.0001108 -0.0006227 -0.0030882 -0.0002899 -0.0007743 0.0001231 -0.0016657
-0.0059242 0.0055490 -0.0008156 -0.0016760 -0.0000153 -0.0008275 0.0006342 0.0005527 0.0007140 0.0011318 0.0000930 -0.0004114 0.0004473 -0.0001388 -0.0005489 -0.0022200 -0.0002797 -0.0004203 0.0001325 -0.0014116
-0.0069874 0.0132244 -0.0007444 -0.0015082 -0.0000919 -0.0005156 0.0006752 0.0008250 0.0007050 0.0013462 0.0001383 0.0002214 0.0004073 0.0005885 -0.0004990 -0.0013132 -0.0002855 -0.0000696 -0.0002374 -0.0007920
0.0009110 0.0029247 -0.0007129 -0.0012947 0.0000609 -0.0004570 0.0006012 0.0011370 0.0006983 0.0014029 0.0000983 0.0000954 0.0003280 0.0003160 -0.0005025 -0.0016910 -0.0002727 -0.0002943 -0.0001171 -0.0010472
0.0119074 -0.0176855 -0.0007158 -0.0011818 0.0001737 -0.0006187 0.0005744 0.0012274 0.0006784 0.0012227 0.0000381 -0.0004099 0.0001459 0.0000637 -0.0004819 -0.0022599 -0.0002448 -0.0005646 0.0003544 -0.0016178
0.0066770 -0.0021865 -0.0006716 -0.0010804 -0.0000752 -0.0003943 0.0006053 0.0012891 0.0006537 0.0011356 0.0000443 -0.0003355 0.0001431 0.0005782 -0.0004521 -0.0018883 -0.0002168 -0.0003721 0.0000621 -0.0012567
-0.0126643 0.0175716 -0.0006329 -0.0008956 0.0000600 -0.0004270 0.0006924 0.0014088 0.0006326 0.0012509 0.0000907 0.0000934 0.0000732 0.0010511 -0.0004091 -0.0012429 -0.0002072 -0.0001942 -0.0001818 -0.0006193
-0.0019040 -0.0119606 -0.0006425 -0.0007263 0.0000531 -0.0002962 0.0007527 0.0016169 0.0006514 0.0013711 0.0001545 0.0007888 0.0001322 0.0018923 -0.0003554 -0.0001159 -0.0002147 0.0001328 0.0001693 -0.0002979
0.0037198 -0.0213195 -0.0006097 -0.0004981 0.0000121 0.0000146 0.0007802 0.0020576 0.0006432 0.0015553 0.0001953 0.0014354 0.0004225 0.0024737 -0.0003236 0.0005866 -0.0001983 0.0004121 0.0003327 -0.0004502
0.0089343 -0.0172475 -0.0005677 -0.0003690 -0.0000629 0.0001755 0.0008298 0.0021690 0.0006214 0.0014934 0.0001257 0.0008832 0.0001992 0.0020685 -0.0003302 -0.0003522 -0.0001783 0.0000049 0.0002958 -0.0006660
0.0041736 -0.0068291 -0.0005716 -0.0003499 -0.0000262 0.0000606 0.0008622 0.0020179 0.0006339 0.0012910 0.0000702 0.0002169 0.0003645 0.0010145 -0.0003462 -0.0010099 -0.0001614 -0.0003347 0.0002691 -0.0005040
-0.0045539 0.0045652 -0.0005107 -0.0003176 0.0002040 -0.0001272 0.0008720 0.0021534 0.0006482 0.0013063 0.0001157 0.0005058 0.0006934 0.0007349 -0.0002955 -0.0003492 -0.0001527 -0.0001002 0.0001887 -0.0001021
-0.0073018 0.0076403 -0.0004703 -0.0002086 0.0002747 -0.0000874 0.0008237 0.0023962 0.0006623 0.0014213 0.0001638 0.0009212 0.0007496 0.0009131 -0.0001574 0.0001717 -0.0001312 0.0001551 0.0003270 0.0001240
-0.0180683 0.0070502 -0.0004896 -0.0000293 0.0003455 -0.0000184 0.0008082 0.0025836 0.0006721 0.0015567 0.0002254 0.0015393 0.0011697 0.0011314 -0.0000190 0.0010160 -0.0001070 0.0005226 0.0004839 0.0004742
-0.0093027 0.0092430 -0.0004830 0.0001567 0.0002062 0.0003845 0.0008589 0.0027142 0.0006547 0.0016237 0.0002497 0.0017545 0.0009970 0.0014904 -0.0000548 0.0008243 -0.0000806 0.0003842 0.0006260 0.0002501
0.0004474 0.0097724 -0.0004444 0.0001091 0.0002435 0.0002556 0.0008690 0.0025297 0.0006299 0.0012897 0.0001888 0.0010277 0.0006000 0.0011904 -0.0001224 -0.0002068 -0.0000643 -0.0001367 0.0006641 -0.0000880
0.0100387 -0.0071058 -0.0004053 -0.0000071 0.0003322 -0.0000583 0.0008117 0.0023958 0.0006099 0.0009260 0.0001580 0.0005156 0.0004901 0.0010677 -0.0000337 -0.0003082 -0.0000685 -0.0002939 0.0004870 0.0002911
0.0135586 -0.0199921 -0.0004138 0.0000469 0.0003612 -0.0000966 0.0008537 0.0024085 0.0005856 0.0008896 0.0001879 0.0007537 0.0005641 0.0016007 0.0000188 0.0002563 -0.0000780 -0.0001569 0.0004127 0.0005959
0.0011742 -0.0022514 -0.0004202 0.0001386 0.0003071 0.0000206 0.0008633 0.0024737 0.0005779 0.0009190 0.0002158 0.0010924 0.0007654 0.0022108 0.0000531 0.0008905 -0.0000826 0.0000854 0.0004650 0.0006306
-0.0054054 0.0153524 -0.0003882 0.0002395 0.0002123 0.0003709 0.0008641 0.0025450 0.0005560 0.0010738 0.0002466 0.0015778 0.0007790 0.0024731 0.0000601 0.0012958 -0.0000624 0.0003217 0.0005201 0.0005221
0.0049556 0.0079145 -0.0003856 0.0002814 0.0002288 0.0004175 0.0008670 0.0024212 0.0005400 0.0009896 0.0001990 0.0010965 0.0006497 0.0016121 -0.0000546 0.0005598 -0.0000477 0.0000258 0.0003016 0.0003066
0.0013906 0.0066465 -0.0004000 0.0002327 0.0003413 0.0001392 0.0007985 0.0021348 0.0005444 0.0007711 0.0001699 0.0004212 0.0002229 0.0012480 -0.0000919 -0.0002046 -0.0000419 -0.0002695 0.0001700 0.0002825
0.0006397 0.0000124 -0.0003836 0.0001840 0.0004525 -0.0000625 0.0008392 0.0019012 0.0005383 0.0007159 0.0002073 0.0005420 0.0005475 0.0010410 -0.0000322 -0.0001267 -0.0000175 -0.0001098 0.0004659 0.0002967
0.0020132 -0.0015961 -0.0003629 0.0001797 0.0003904 -0.0000113 0.0008778 0.0018112 0.0005333 0.0007200 0.0002150 0.0005759 0.0009097 0.0005466 -0.0000156 -0.0000556 -0.0000069 -0.0000361 0.0007214 0.0001141
-0.0023896 0.0054187 -0.0003462 0.0001935 0.0003129 0.0000622 0.0008173 0.0018221 0.0005398 0.0008238 0.0002244 0.0007286 0.0004593 0.0012149 -0.0000157 0.0000007 -0.0000021 0.0000484 0.0007730 -0.0000721
0.0011847 -0.0005182 -0.0003472 0.0002220 0.0003295 -0.0000381 0.0006810 0.0016865 0.0005390 0.0006848 0.0001957 0.0002124 0.0005299 0.0005876 -0.0001253 -0.0008617 0.0000313 -0.0001958 0.0003820 -0.0000904
-0.0007546 0.0024418 -0.0003101 0.0001235 0.0004932 -0.0003521 0.0005836 0.0013152 0.0005489 0.0004725 0.0001838 -0.0004106 0.0011003 -0.0010079 -0.0002207 -0.0014000 0.0000341 -0.0004380 0.0003179 -0.0001904
-0.0009833 0.0060210 -0.0002910 0.0000303 0.0004650 -0.0003553 0.0005647 0.0012040 0.0005579 0.0004928 0.0002323 -0.0001936 0.0008206 -0.0004909 -0.0001593 -0.0009300 0.0000210 -0.0003194 0.0005799 -0.0002244
-0.0054449 0.0025454 -0.0003331 0.0000889 0.0002996 -0.0001290 0.0005531 0.0012804 0.0005433 0.0005115 0.0002722 0.0000689 0.0005541 0.0000923 -0.0000859 -0.0006430 0.0000370 -0.0001709 0.0005649 0.0000067
-0.0007777 -0.0042206 -0.0003440 0.0001519 0.0002047 0.0000050 0.0004850 0.0014019 0.0005288 0.0005620 0.0003024 0.0003810 0.0005449 0.0005550 -0.0000301 -0.0002983 0.0000395 -0.0000324 0.0006188 -0.0000744
0.0127897 -0.0157756 -0.0003145 0.0001173 0.0002792 -0.0000017 0.0005115 0.0013050 0.0005204 0.0003663 0.0002585 -0.0001347 0.0003046 0.0002670 -0.0000112 -0.0011194 0.0000393 -0.0004952 0.0005001 -0.0004641
0.0126235 -0.0140170 -0.0002860 -0.0000353 0.0005295 -0.0004195 0.0005283 0.0010052 0.0005252 -0.0000113 0.0002266 -0.0009277 0.0003810 -0.0008118 -0.0000240 -0.0020421 0.0000723 -0.0009355 0.0004625 -0.0005509
0.0162992 -0.0233594 -0.0002732 -0.0001468 0.0002264 -0.0003737 0.0005170 0.0007990 0.0005266 -0.0001926 0.0002686 -0.0009721 0.0006238 -0.0010892 0.0000008 -0.0018468 0.0000961 -0.0008650 0.0004096 -0.0004788
0.0068814 -0.0044353 -0.0002545 -0.0001691 0.0000262 -0.0001794 0.0005218 0.0006972 0.0005231 -0.0002261 0.0003119 -0.0008378 0.0004337 -0.0006355 0.0000803 -0.0016261 0.0000930 -0.0007599 0.0003785 -0.0004784
-0.0088635 0.0205222 -0.0002420 -0.0001394 0.0003638 -0.0004716 0.0005621 0.0006427 0.0005215 -0.0001709 0.0003678 -0.0005021 0.0001342 -0.0000908 0.0001029 -0.0010748 0.0000833 -0.0004869 0.0002175 0.0000753
-0.0041143 0.0058872 -0.0002572 -0.0000624 0.0004671 -0.0005031 0.0005677 0.0006826 0.0005163 -0.0002066 0.0003614 -0.0007513 0.0001581 -0.0006195 0.0000069 -0.0016416 0.0000929 -0.0007592 0.0002206 -0.0002277
0.0040528 -0.0048865 -0.0002671 -0.0001946 0.0004096 -0.0006084 0.0005565 0.0004201 0.0005257 -0.0004914 0.0003186 -0.0015872 0.0003980 -0.0017896 -0.0000903 -0.0026668 0.0000987 -0.0012601 0.0006172 -0.0010036
-0.0001752 0.0022849 -0.0002758 -0.0003482 0.0004090 -0.0007618 0.0005576 0.0000594 0.0005376 -0.0006922 0.0003424 -0.0018591 0.0006776 -0.0023679 -0.0000695 -0.0026854 0.0000909 -0.0012394 0.0007800 -0.0010063
0.0009906 -0.0077790 -0.0002751 -0.0003470 0.0003490 -0.0006825 0.0004973 0.0000376 0.0005456 -0.0006732 0.0004018 -0.0016403 0.0005029 -0.0014547 0.0000117 -0.0024218 0.0001030 -0.0010662 0.0009663 -0.0010072
-0.0013933 -0.0097724 -0.0002555 -0.0003156 0.0002604 -0.0005063 0.0004638 0.0002581 0.0005385 -0.0005584 0.0004687 -0.0013034 0.0001693 -0.0003344 0.0000728 -0.0020405 0.0001279 -0.0008031 0.0008300 -0.0007730
-0.0048167 0.0115929 -0.0002690 -0.0002207 0.0005136 -0.0006814 0.0005455 0.0003500 0.0005536 -0.0004239 0.0005214 -0.0009692 0.0005251 -0.0008284 0.0000713 -0.0021795 0.0001329 -0.0007404 0.0003758 -0.0006012
-0.0044570 0.0171693 -0.0002954 -0.0002392 0.0005543 -0.0008606 0.0006004 -0.0000423 0.0005911 -0.0006253 0.0004902 -0.0016593 0.0005940 -0.0015319 -0.0000252 -0.0032437 0.0001354 -0.0012074 0.0002872 -0.0010470
-0.0038270 0.0034234 -0.0003103 -0.0003766 0.0005660 -0.0010849 0.0004963 -0.0005838 0.0006144 -0.0008112 0.0004886 -0.0024524 0.0001973 -0.0017601 -0.0001502 -0.0037970 0.0001279 -0.0014901 0.0003457 -0.0013179
0.0066807 -0.0259977 -0.0002676 -0.0004896 0.0007332 -0.0013976 0.0003813 -0.0007128 0.0006443 -0.0007375 0.0005555 -0.0023329 -0.0000247 -0.0017369 -0.0001572 -0.0035223 0.0001175 -0.0013088 0.0006108 -0.0015570
0.0074546 -0.0274251 -0.0002585 -0.0004451 0.0006135 -0.0012391 0.0003029 -0.0005647 0.0006608 -0.0006063 0.0006213 -0.0019998 0.0000277 -0.0016193 -0.0001011 -0.0031167 0.0001220 -0.0010332 0.0007271 -0.0016256
0.0063628 -0.0006283 -0.0002881 -0.0002606 0.0004685 -0.0009728 0.0002660 -0.0003816 0.0006762 -0.0003437 0.0007101 -0.0013576 0.0002014 -0.0011831 -0.0001001 -0.0022586 0.0001142 -0.0006419 0.0004944 -0.0010219
0.0126284 -0.0072161 -0.0002743 -0.0000888 0.0004111 -0.0007874 0.0001991 0.0000149 0.0006926 -0.0000403 0.0007906 -0.0006815 0.0003724 -0.0009550 -0.0001453 -0.0019966 0.0001066 -0.0004919 0.0006075 -0.0009230
0.0155060 -0.0183252 -0.0002652 -0.0001166 0.0003727 -0.0007499 0.0002571 -0.0001710 0.0007186 -0.0001318 0.0007495 -0.0012272 0.0005707 -0.0021568 -0.0002033 -0.0030777 0.0001011 -0.0009056 0.0008505 -0.0015035
0.0062848 -0.0091993 -0.0002707 -0.0002629 0.0004935 -0.0010279 0.0003960 -0.0006888 0.0007573 -0.0003529 0.0007094 -0.0019375 0.0002967 -0.0025055 -0.0002186 -0.0036703 0.0000979 -0.0010892 0.0006191 -0.0016632
0.0002389 -0.0026477 -0.0002791 -0.0002650 0.0005973 -0.0011827 0.0003990 -0.0007934 0.0007743 -0.0002564 0.0007744 -0.0016205 0.0003454 -0.0021964 -0.0001975 -0.0032149 0.0001030 -0.0007841 0.0005349 -0.0017360
0.0048243 -0.0084839 -0.0002638 -0.0001958 0.0005351 -0.0011092 0.0003055 -0.0006345 0.0007843 -0.0001018 0.0008312 -0.0011830 0.0004806 -0.0022599 -0.0001829 -0.0027075 0.0001090 -0.0004709 0.0003131 -0.0012517
0.0043976 -0.0152985 -0.0002593 -0.0000947 0.0003413 -0.0008355 0.0002146 -0.0004166 0.0007894 0.0000865 0.0008879 -0.0005938 0.0004445 -0.0012017 -0.0001606 -0.0020593 0.0001131 -0.0001087 -0.0000134 -0.0003797
0.0030746 -0.0011299 -0.0002804 0.0000423 0.0002249 -0.0006199 0.0002098 -0.0003137 0.0007858 0.0002365 0.0008793 -0.0005741 0.0006212 -0.0015666 -0.0001707 -0.0027446 0.0001238 -0.0003107 0.0002615 -0.0008261
0.0023527 0.0102322 -0.0002679 -0.0000919 0.0002957 -0.0008870 0.0002108 -0.0005465 0.0007939 -0.0000075 0.0007931 -0.0014426 0.0005813 -0.0028341 -0.0002488 -0.0040414 0.0001162 -0.0008500 0.0006450 -0.0013986
0.0008950 0.0108412 -0.0002732 -0.0003158 0.0004400 -0.0013661 0.0001799 -0.0008609 0.0007987 -0.0002704 0.0007687 -0.0019205 0.0002365 -0.0024434 -0.0002759 -0.0041402 0.0001148 -0.0009650 0.0007743 -0.0014148
-0.0041882 0.0118558 -0.0003132 -0.0003476 0.0004681 -0.0014193 0.0002188 -0.0007705 0.0008100 -0.0002948 0.0007974 -0.0017282 0.0004826 -0.0024859 -0.0002531 -0.0037620 0.0001170 -0.0008280 0.0006984 -0.0014072
-0.0031614 0.0042241 -0.0003161 -0.0003684 0.0004179 -0.0011833 0.0002259 -0.0006308 0.0008069 -0.0002446 0.0008282 -0.0014286 0.0003614 -0.0019250 -0.0002506 -0.0032499 0.0001014 -0.0005735 0.0002685 -0.0009040
0.0032142 -0.0005177 -0.0003248 -0.0003456 0.0003795 -0.0010838 0.0002797 -0.0006651 0.0008045 -0.0000839 0.0008703 -0.0009259 0.0002429 -0.0010990 -0.0001946 -0.0027252 0.0000900 -0.0002336 -0.0000201 -0.0002006
-0.0060905 0.0168474 -0.0003673 -0.0002688 0.0005243 -0.0011685 0.0003996 -0.0006183 0.0008202 -0.0000931 0.0008453 -0.0010727 0.0004521 -0.0016954 -0.0001964 -0.0033576 0.0000889 -0.0004961 0.0003055 -0.0007691
-0.0021400 0.0005580 -0.0003663 -0.0004537 0.0005531 -0.0013891 0.0003888 -0.0009133 0.0008146 -0.0003936 0.0007620 -0.0019866 0.0000596 -0.0019328 -0.0002788 -0.0046156 0.0000913 -0.0010964 0.0003661 -0.0012584
0.0210070 -0.0466530 -0.0003312 -0.0007691 0.0003618 -0.0014755 0.0003358 -0.0012962 0.0008189 -0.0006212 0.0007428 -0.0023466 0.0000020 -0.0015538 -0.0003243 -0.0047134 0.0001018 -0.0011540 0.0000106 -0.0007648
0.0132981 -0.0222965 -0.0003516 -0.0008462 0.0004720 -0.0016474 0.0003325 -0.0012134 0.0008274 -0.0006166 0.0007764 -0.0021212 0.0003872 -0.0020018 -0.0002948 -0.0043707 0.0001094 -0.0009571 0.0001442 -0.0007180
0.0026001 -0.0039825 -0.0003758 -0.0008319 0.0004633 -0.0016565 0.0003538 -0.0011433 0.0008214 -0.0005602 0.0008034 -0.0018373 0.0007475 -0.0026076 -0.0002619 -0.0038819 0.0000982 -0.0007029 0.0003740 -0.0008527
-0.0057255 0.0003121 -0.0003807 -0.0007789 0.0001819 -0.0012811 0.0003065 -0.0009860 0.0008204 -0.0004161 0.0008272 -0.0013886 0.0006135 -0.0017247 -0.0002460 -0.0032419 0.0000851 -0.0004411 0.0002618 -0.0008649
-0.0099741 0.0049323 -0.0004315 -0.0006677 0.0001091 -0.0010460 0.0002949 -0.0006869 0.0008220 -0.0003042 0.0008179 -0.0012042 0.0004153 -0.0011808 -0.0002487 -0.0036604 0.0000711 -0.0006186 0.0001469 -0.0011774
-0.0092589 -0.0015226 -0.0004577 -0.0007784 0.0003318 -0.0013576 0.0003389 -0.0008678 0.0008358 -0.0005998 0.0007413 -0.0019478 0.0006063 -0.0024442 -0.0002570 -0.0048713 0.0000629 -0.0011635 0.0000774 -0.0014801
-0.0084036 0.0020160 -0.0004554 -0.0010475 0.0002889 -0.0015483 0.0004084 -0.0013050 0.0008542 -0.0009477 0.0007010 -0.0025428 0.0007534 -0.0031599 -0.0002893 -0.0050613 0.0000536 -0.0013414 0.0003885 -0.0016505
0.0098434 -0.0078004 -0.0004819 -0.0012111 0.0003471 -0.0016602 0.0005422 -0.0013416 0.0008701 -0.0009961 0.0007203 -0.0023889 0.0006243 -0.0026609 -0.0002811 -0.0046668 0.0000452 -0.0012291 0.0005086 -0.0015718
0.0094013 -0.0027355 -0.0005529 -0.0012758 0.0003465 -0.0016391 0.0006268 -0.0011315 0.0008666 -0.0009648 0.0007318 -0.0021431 0.0004512 -0.0018775 -0.0002919 -0.0041144 0.0000233 -0.0010299 0.0003710 -0.0013184
-0.0047603 0.0100524 -0.0005812 -0.0012921 0.0003657 -0.0016261 0.0006822 -0.0008571 0.0008520 -0.0008198 0.0007546 -0.0017123 0.0004139 -0.0009138 -0.0003015 -0.0034310 -0.0000122 -0.0007261 0.0002012 -0.0008915
-0.0013819 0.0023275 -0.0005683 -0.0012517 0.0004401 -0.0016419 0.0007021 -0.0005488 0.0008594 -0.0006237 0.0007606 -0.0012753 0.0005213 -0.0006334 -0.0002136 -0.0030812 -0.0000454 -0.0005343 0.0002058 -0.0009307
-0.0009296 -0.0070944 -0.0006377 -0.0012344 0.0002763 -0.0013793 0.0007322 -0.0004950 0.0008762 -0.0006682 0.0006686 -0.0018127 0.0005601 -0.0010809 -0.0002406 -0.0040206 -0.0000851 -0.0010952 0.0006150 -0.0020112
-0.0059531 0.0016654 -0.0006967 -0.0014658 0.0002905 -0.0015785 0.0007693 -0.0006462 0.0008967 -0.0009442 0.0005698 -0.0026820 0.0004748 -0.0014906 -0.0002999 -0.0049729 -0.0001187 -0.0017170 0.0005489 -0.0021487
-0.0007270 0.0155325 -0.0007222 -0.0017292 0.0002647 -0.0017786 0.0007761 -0.0006563 0.0009040 -0.0010717 0.0005551 -0.0027365 0.0004383 -0.0019497 -0.0002578 -0.0047029 -0.0000993 -0.0016767 0.0001077 -0.0013663
-0.0015052 0.0087959 -0.0007288 -0.0018520 0.0003251 -0.0018752 0.0008181 -0.0006671 0.0008896 -0.0010300 0.0005609 -0.0025174 0.0009428 -0.0025807 -0.0001478 -0.0042554 -0.0000607 -0.0015069 0.0001812 -0.0011968
-0.0261666 0.0111228 -0.0007179 -0.0018886 0.0003039 -0.0017817 0.0007952 -0.0005915 0.0008719 -0.0009687 0.0005827 -0.0020632 0.0011747 -0.0021824 0.0000124 -0.0031841 -0.0000521 -0.0011771 -0.0001053 -0.0005642
-0.0021136 0.0040896 -0.0007089 -0.0017842 0.0001571 -0.0014955 0.0007648 -0.0004830 0.0008334 -0.0008804 0.0006028 -0.0014582 0.0011115 -0.0010414 0.0001674 -0.0021582 -0.0000615 -0.0009511 -0.0001653 -0.0005888
0.0059361 0.0031638 -0.0007295 -0.0017469 0.0003004 -0.0015795 0.0008230 -0.0005175 0.0008213 -0.0009618 0.0005487 -0.0018234 0.0007760 -0.0007997 0.0001140 -0.0028618 -0.0000525 -0.0013449 0.0002604 -0.0018768
0.0003816 0.0079292 -0.0007664 -0.0019172 0.0003596 -0.0017952 0.0008129 -0.0006412 0.0008580 -0.0011289 0.0005023 -0.0024677 0.0004836 -0.0013234 -0.0000052 -0.0037674 -0.0000467 -0.0016916 0.0002525 -0.0020889
-0.0131855 0.0203552 -0.0007491 -0.0020957 0.0001306 -0.0017437 0.0008690 -0.0007854 0.0008853 -0.0010784 0.0005097 -0.0023007 0.0007369 -0.0013618 0.0000105 -0.0035283 -0.0000728 -0.0015844 -0.0001098 -0.0015384
-0.0137023 0.0213091 -0.0007815 -0.0021087 0.0001710 -0.0017076 0.0009421 -0.0007577 0.0008915 -0.0009197 0.0005249 -0.0020195 0.0008464 -0.0010171 0.0000339 -0.0031978 -0.0000925 -0.0014465 -0.0002806 -0.0013206
-0.0206908 0.0366310 -0.0008135 -0.0020512 0.0002301 -0.0016677 0.0010326 -0.0007195 0.0009016 -0.0007074 0.0005524 -0.0015809 0.0008551 -0.0005498 0.0000630 -0.0025870 -0.0001168 -0.0011921 -0.0002414 -0.0012872
-0.0148692 0.0254842 -0.0007867 -0.0020016 0.0000534 -0.0014645 0.0010240 -0.0004453 0.0009159 -0.0004753 0.0005695 -0.0010647 0.0011655 -0.0003754 0.0000769 -0.0021431 -0.0001335 -0.0009985 -0.0004252 -0.0013520
0.0042496 -0.0157163 -0.0007910 -0.0019884 0.0000363 -0.0014851 0.0008920 -0.0003358 0.0009126 -0.0005342 0.0005069 -0.0015337 0.0009127 -0.0009779 0.0000640 -0.0030329 -0.0001352 -0.0013599 -0.0002654 -0.0016296
-0.0051459 0.0001356 -0.0008328 -0.0021003 0.0002847 -0.0018580 0.0009569 -0.0006681 0.0009323 -0.0007389 0.0004575 -0.0022033 0.0004183 -0.0011851 0.0000446 -0.0037621 -0.0001409 -0.0016757 -0.0001678 -0.0017381
-0.0126927 0.0135979 -0.0008358 -0.0022255 0.0003805 -0.0020903 0.0009730 -0.0005639 0.0009474 -0.0007129 0.0004807 -0.0020623 0.0002754 -0.0006689 0.0000664 -0.0034240 -0.0001459 -0.0015288 -0.0001720 -0.0016802
-0.0029204 0.0028594 -0.0007935 -0.0022887 0.0002889 -0.0019916 0.0009337 -0.0003739 0.0009535 -0.0005969 0.0004905 -0.0018031 0.0004044 -0.0007089 0.0001246 -0.0031430 -0.0001574 -0.0013750 -0.0000178 -0.0019737
0.0149182 -0.0192936 -0.0008079 -0.0022427 0.0001959 -0.0017692 0.0009693 -0.0003182 0.0009447 -0.0004179 0.0005066 -0.0013501 0.0007958 -0.0005348 0.0001541 -0.0025242 -0.0001586 -0.0011107 0.0001030 -0.0020215
0.0024089 -0.0020776 -0.0008334 -0.0020851 0.0001944 -0.0016177 0.0010147 -0.0001505 0.0009185 -0.0002079 0.0005061 -0.0009897 0.0006022 -0.0002252 0.0001345 -0.0024343 -0.0001394 -0.0010653 -0.0000040 -0.0018911
-0.0068724 0.0053842 -0.0008278 -0.0021091 0.0000739 -0.0014988 0.0009835 -0.0002155 0.0009217 -0.0003632 0.0004516 -0.0015444 0.0004831 -0.0007089 0.0000456 -0.0030827 -0.0001261 -0.0013557 -0.0001348 -0.0017484
0.0006384 -0.0037843 -0.0008134 -0.0022984 -0.0000978 -0.0013810 0.0009979 -0.0004105 0.0009446 -0.0006006 0.0004202 -0.0020419 0.0005763 -0.0009111 0.0000064 -0.0033475 -0.0001121 -0.0014675 -0.0000325 -0.0016001
0.0049329 -0.0086575 -0.0008301 -0.0023685 0.0000646 -0.0016470 0.0009884 -0.0003561 0.0009538 -0.0005522 0.0004416 -0.0017919 0.0004487 -0.0004746 0.0000606 -0.0031406 -0.0001227 -0.0013120 -0.0001976 -0.0016320
0.0070141 -0.0083281 -0.0008370 -0.0023623 0.0001026 -0.0016864 0.0009517 -0.0001946 0.0009520 -0.0004650 0.0004679 -0.0015442 0.0005483 -0.0001927 0.0001760 -0.0028736 -0.0001372 -0.0010936 -0.0004976 -0.0012965
0.0136026 -0.0216751 -0.0008522 -0.0022753 -0.0000022 -0.0014754 0.0010119 -0.0001012 0.0009557 -0.0003330 0.0004977 -0.0010973 0.0006717 0.0000821 0.0001871 -0.0022661 -0.0001373 -0.0007738 -0.0000563 -0.0015378
0.0111025 -0.0191996 -0.0008827 -0.0021710 -0.0000289 -0.0014124 0.0009869 -0.0000761 0.0009461 -0.0002914 0.0004679 -0.0012734 0.0006712 -0.0002924 0.0000445 -0.0026228 -0.0001282 -0.0010232 0.0002324 -0.0018907
0.0014175 0.0085406 -0.0008734 -0.0022995 0.0001923 -0.0017803 0.0009948 -0.0002777 0.0009375 -0.0004455 0.0004309 -0.0018234 0.0011120 -0.0016466 -0.0000040 -0.0033944 -0.0001231 -0.0013825 -0.0000149 -0.0014425
-0.0038531 0.0180531 -0.0008996 -0.0024276 0.0002312 -0.0019073 0.0010674 -0.0004830 0.0009467 -0.0005276 0.0004442 -0.0018173 0.0014142 -0.0020319 0.0000255 -0.0032868 -0.0001244 -0.0012894 0.0000473 -0.0015525
-0.0168271 0.0177110 -0.0009178 -0.0024393 0.0001397 -0.0017865 0.0009968 -0.0004108 0.0009518 -0.0004490 0.0004715 -0.0015689 0.0010644 -0.0010968 0.0000373 -0.0030604 -0.0001170 -0.0011533 -0.0000976 -0.0014332
-0.0082002 0.0089613 -0.0008954 -0.0024717 0.0001467 -0.0018281 0.0009652 -0.0002369 0.0009498 -0.0003346 0.0004955 -0.0012237 0.0007134 -0.0004914 0.0000853 -0.0026694 -0.0001259 -0.0008836 -0.0001421 -0.0012684
-0.0044017 0.0161954 -0.0009104 -0.0023947 -0.0000544 -0.0015413 0.0009895 -0.0000907 0.0009504 -0.0001690 0.0005062 -0.0009142 0.0007195 -0.0006903 0.0000562 -0.0026787 -0.0001226 -0.0008802 -0.0000275 -0.0015215
0.0038699 0.0028659 -0.0009311 -0.0024381 0.0000745 -0.0018047 0.0009389 -0.0002856 0.0009571 -0.0003117 0.0004839 -0.0014125 0.0008744 -0.0016807 -0.0000173 -0.0034407 -0.0001138 -0.0012192 -0.0002212 -0.0012371
0.0100526 -0.0130862 -0.0009359 -0.0025909 0.0002403 -0.0022168 0.0008671 -0.0004586 0.0009692 -0.0004994 0.0004776 -0.0018602 0.0009524 -0.0019684 -0.0000441 -0.0037419 -0.0001101 -0.0013190 -0.0001407 -0.0014024
-0.0062560 0.0084922 -0.0009413 -0.0026513 0.0000315 -0.0019447 0.0009674 -0.0005878 0.0009778 -0.0004257 0.0005093 -0.0016503 0.0005687 -0.0010421 -0.0000245 -0.0034726 -0.0000945 -0.0011455 0.0000881 -0.0018146
-0.0004346 -0.0061921 -0.0009416 -0.0026587 -0.0001714 -0.0015987 0.0010668 -0.0006654 0.0009819 -0.0003172 0.0005421 -0.0014058 0.0005715 -0.0011384 0.0000174 -0.0032069 -0.0000864 -0.0009036 -0.0000835 -0.0011598
0.0162099 -0.0272258 -0.0009770 -0.0025809 -0.0003573 -0.0013544 0.0009449 -0.0003586 0.0009875 -0.0001438 0.0005833 -0.0009727 0.0007682 -0.0010289 -0.0000097 -0.0027944 -0.0000957 -0.0006191 -0.0004118 -0.0006477
0.0103512 -0.0095567 -0.0010037 -0.0025543 -0.0003920 -0.0013878 0.0008519 -0.0003513 0.0009907 -0.0002274 0.0005549 -0.0013536 0.0004770 -0.0011762 -0.0000885 -0.0034459 -0.0000958 -0.0009364 -0.0001811 -0.0013838
0.0008294 -0.0001033 -0.0009807 -0.0026786 -0.0000317 -0.0019110 0.0008431 -0.0006188 0.0009997 -0.0004182 0.0005245 -0.0019178 0.0005635 -0.0020565 -0.0001194 -0.0041325 -0.0000792 -0.0012980 0.0000763 -0.0018855
-0.0166120 0.0228771 -0.0009614 -0.0027848 0.0000808 -0.0019648 0.0009381 -0.0005843 0.0010062 -0.0004201 0.0005487 -0.0018203 0.0008906 -0.0020686 -0.0000779 -0.0039236 -0.0000889 -0.0011823 -0.0001684 -0.0016939
-0.0314268 0.0319877 -0.0009692 -0.0027769 -0.0000895 -0.0016742 0.0010249 -0.0004481 0.0010056 -0.0003677 0.0005577 -0.0016545 0.0005271 -0.0013388 -0.0000299 -0.0037021 -0.0000925 -0.0011009 -0.0006685 -0.0009589
-0.0085133 -0.0039048 -0.0009813 -0.0027138 -0.0000510 -0.0017133 0.0008918 -0.0001563 0.0010083 -0.0002685 0.0005696 -0.0013544 0.0001735 -0.0010411 0.0000106 -0.0032741 -0.0000933 -0.0009040 -0.0004420 -0.0010163
0.0103209 -0.0259571 -0.0010097 -0.0026130 0.0000169 -0.0017301 0.0007804 0.0001368 0.0009918 -0.0002318 0.0005498 -0.0015322 0.0004059 -0.0018239 -0.0000466 -0.0036944 -0.0000962 -0.0011618 -0.0000679 -0.0017646
0.0017519 -0.0179916 -0.0010104 -0.0026917 -0.0000385 -0.0017291 0.0009007 -0.0002967 0.0009845 -0.0004277 0.0005199 -0.0020791 0.0004760 -0.0022684 -0.0000706 -0.0044389 -0.0000850 -0.0015502 0.0000226 -0.0019640
-0.0027105 -0.0018249 -0.0009906 -0.0028290 -0.0000778 -0.0017437 0.0009964 -0.0006211 0.0009996 -0.0005609 0.0005239 -0.0021909 0.0002452 -0.0020072 -0.0000609 -0.0044059 -0.0000787 -0.0015239 0.0001845 -0.0019904
0.0068595 -0.0104660 -0.0010109 -0.0028110 0.0001756 -0.0020757 0.0009890 -0.0005475 0.0010070 -0.0004814 0.0005440 -0.0020105 0.0003196 -0.0018061 -0.0000380 -0.0041599 -0.0000815 -0.0014151 0.0003047 -0.0021097
0.0131496 -0.0328662 -0.0010132 -0.0027887 0.0003424 -0.0022211 0.0009576 -0.0004736 0.0010032 -0.0003644 0.0005774 -0.0017524 0.0005402 -0.0015384 -0.0000220 -0.0036851 -0.0000913 -0.0011945 0.0003203 -0.0020980
0.0147661 -0.0321794 -0.0010009 -0.0027373 0.0001572 -0.0018762 0.0008817 -0.0001707 0.0009956 -0.0002113 0.0005960 -0.0015281 0.0007544 -0.0017864 -0.0000604 -0.0037698 -0.0000788 -0.0012412 0.0001227 -0.0023989
0.0043689 -0.0038350 -0.0009891 -0.0027895 0.0001383 -0.0019463 0.0008966 -0.0004011 0.0010042 -0.0003545 0.0005717 -0.0019863 0.0012059 -0.0031946 -0.0000862 -0.0044797 -0.0000686 -0.0015670 -0.0003002 -0.0023847
-0.0062463 0.0119250 -0.0009820 -0.0029190 0.0001300 -0.0020796 0.0009840 -0.0008293 0.0010195 -0.0005215 0.0005674 -0.0023937 0.0010982 -0.0034563 -0.0000706 -0.0047647 -0.0000755 -0.0016556 -0.0003933 -0.0020988
-0.0017182 0.0111512 -0.0009963 -0.0029459 0.0001474 -0.0021204 0.0008285 -0.0006796 0.0010301 -0.0004573 0.0005823 -0.0022109 0.0009024 -0.0027947 -0.0000156 -0.0046483 -0.0000718 -0.0015207 -0.0000998 -0.0022367
-0.0007490 0.0095510 -0.0010056 -0.0029044 0.0001743 -0.0020890 0.0007243 -0.0005258 0.0010253 -0.0003658 0.0005916 -0.0019934 0.0005623 -0.0022937 0.0000145 -0.0043360 -0.0000698 -0.0013299 -0.0004648 -0.0015727
0.0027949 -0.0013774 -0.0009995 -0.0028322 0.0001164 -0.0021088 0.0008167 -0.0005520 0.0010106 -0.0002098 0.0006245 -0.0016485 0.0002571 -0.0015359 -0.0000133 -0.0038155 -0.0000871 -0.0010945 -0.0001864 -0.0017253
-0.0033655 0.0088555 -0.0009683 -0.0028275 0.0001708 -0.0021871 0.0008436 -0.0006208 0.0010174 -0.0002878 0.0005986 -0.0020213 0.0003886 -0.0020849 -0.0000762 -0.0043155 -0.0000875 -0.0013787 0.0002851 -0.0024863
-0.0023890 0.0126893 -0.0009614 -0.0029489 0.0002261 -0.0023258 0.0008284 -0.0007692 0.0010414 -0.0004790 0.0005783 -0.0025411 0.0008179 -0.0034589 -0.0000951 -0.0049912 -0.0000664 -0.0017041 -0.0000383 -0.0022178
0.0037141 0.0025627 -0.0009637 -0.0030405 0.0001284 -0.0023949 0.0008034 -0.0008696 0.0010584 -0.0005057 0.0006048 -0.0024591 0.0008270 -0.0034296 -0.0001157 -0.0048207 -0.0000513 -0.0015993 -0.0003351 -0.0017950
0.0025309 -0.0143838 -0.0009695 -0.0030120 0.0001459 -0.0024213 0.0007490 -0.0008302 0.0010506 -0.0004281 0.0006211 -0.0022912 0.0007205 -0.0029497 -0.0000650 -0.0046332 -0.0000503 -0.0014597 -0.0004500 -0.0015499
0.0022885 -0.0284104 -0.0009949 -0.0029402 0.0001845 -0.0023282 0.0007883 -0.0008037 0.0010395 -0.0002875 0.0006471 -0.0019607 0.0007615 -0.0025317 -0.0000054 -0.0042238 -0.0000561 -0.0012044 0.0000187 -0.0019251
-0.0024934 -0.0073513 -0.0009984 -0.0028562 0.0000058 -0.0020206 0.0008850 -0.0008604 0.0010415 -0.0002165 0.0006308 -0.0020391 0.0002218 -0.0024250 -0.0000503 -0.0045849 -0.0000489 -0.0013786 0.0001661 -0.0023678
-0.0047349 -0.0021268 -0.0010074 -0.0029149 -0.0001648 -0.0020300 0.0008932 -0.0010361 0.0010536 -0.0003729 0.0006009 -0.0025012 0.0003574 -0.0033228 -0.0000698 -0.0051695 -0.0000321 -0.0016783 -0.0002805 -0.0021525
-0.0017999 0.0037208 -0.0009740 -0.0030413 -0.0001459 -0.0022316 0.0009071 -0.0011221 0.0010713 -0.0005126 0.0006083 -0.0026278 0.0005209 -0.0031835 -0.0000981 -0.0050281 -0.0000372 -0.0016346 -0.0000716 -0.0021728
-0.0034502 0.0057094 -0.0009428 -0.0030523 -0.0000051 -0.0023030 0.0009461 -0.0011500 0.0010839 -0.0004787 0.0006148 -0.0024529 0.0002905 -0.0026662 -0.0001241 -0.0047422 -0.0000367 -0.0015373 -0.0000853 -0.0018143
-0.0306958 0.0215580 -0.0009569 -0.0029951 0.0001950 -0.0023190 0.0009413 -0.0010879 0.0010779 -0.0003864 0.0006264 -0.0022073 0.0003497 -0.0028291 -0.0000759 -0.0043554 -0.0000286 -0.0013523 -0.0002224 -0.0015372
-0.0061321 0.0103684 -0.0009424 -0.0029254 0.0002861 -0.0023657 0.0009637 -0.0009240 0.0010652 -0.0002460 0.0006438 -0.0019714 0.0006114 -0.0025088 -0.0000383 -0.0043334 -0.0000332 -0.0013576 0.0000290 -0.0019471
-0.0063350 0.0139096 -0.0009281 -0.0029653 0.0001159 -0.0022721 0.0009089 -0.0009986 0.0010661 -0.0003775 0.0006071 -0.0023795 0.0006739 -0.0026592 -0.0000295 -0.0049688 -0.0000369 -0.0016616 -0.0002842 -0.0017271
-0.0138158 0.0234709 -0.0009449 -0.0030423 0.0000976 -0.0023250 0.0008491 -0.0011592 0.0010703 -0.0005417 0.0005879 -0.0027642 0.0001306 -0.0026076 -0.0000100 -0.0052403 -0.0000252 -0.0017814 -0.0001915 -0.0018375
0.0013351 0.0082660 -0.0009649 -0.0030296 0.0002046 -0.0024536 0.0008522 -0.0010933 0.0010782 -0.0004830 0.0006187 -0.0025992 -0.0001148 -0.0021378 0.0000225 -0.0049268 -0.0000250 -0.0016434 0.0002850 -0.0023451
-0.0016280 0.0079481 -0.0009277 -0.0029937 0.0001719 -0.0023261 0.0006966 -0.0008132 0.0010913 -0.0004000 0.0006414 -0.0024124 0.0003295 -0.0026606 0.0000049 -0.0045782 -0.0000357 -0.0014612 0.0001615 -0.0024185
-0.0063124 0.0062632 -0.0008933 -0.0029247 0.0000586 -0.0021299 0.0007407 -0.0008041 0.0010872 -0.0002547 0.0006732 -0.0020809 0.0004484 -0.0025587 -0.0000082 -0.0041775 -0.0000284 -0.0012261 0.0002505 -0.0021741
-0.0022310 -0.0079684 -0.0009137 -0.0028458 0.0001446 -0.0021665 0.0009163 -0.0010471 0.0010798 -0.0003007 0.0006442 -0.0023632 0.0006310 -0.0032294 -0.0000355 -0.0046789 -0.0000280 -0.0014953 0.0002603 -0.0019271
-0.0081286 -0.0075610 -0.0009149 -0.0028890 0.0001289 -0.0022887 0.0008533 -0.0011671 0.0010942 -0.0004867 0.0006134 -0.0027881 0.0007050 -0.0038385 -0.0000855 -0.0051335 -0.0000319 -0.0017771 0.0001550 -0.0019721
-0.0008272 0.0011965 -0.0009007 -0.0029317 0.0001553 -0.0024411 0.0007543 -0.0010882 0.0010969 -0.0004920 0.0006360 -0.0026931 0.0005219 -0.0028248 -0.0000402 -0.0048865 -0.0000240 -0.0016439 -0.0000808 -0.0021222
0.0033489 0.0010680 -0.0008884 -0.0028975 0.0002366 -0.0023804 0.0008616 -0.0010848 0.0010906 -0.0004131 0.0006561 -0.0025163 0.0011074 -0.0031862 0.0000050 -0.0046313 -0.0000274 -0.0014948 -0.0000974 -0.0020070
0.0051459 -0.0080925 -0.0008951 -0.0028093 0.0001467 -0.0021326 0.0009134 -0.0010468 0.0010880 -0.0003061 0.0006757 -0.0022166 0.0010167 -0.0027578 0.0000568 -0.0041988 -0.0000404 -0.0012306 0.0001342 -0.0018437
0.0100504 -0.0161898 -0.0008853 -0.0026489 0.0000937 -0.0019063 0.0007990 -0.0007571 0.0010814 -0.0001626 0.0006854 -0.0019817 0.0006828 -0.0019668 0.0000590 -0.0042554 -0.0000294 -0.0012691 0.0001156 -0.0017595
-0.0054263 0.0064860 -0.0008705 -0.0025751 0.0000932 -0.0017526 0.0007559 -0.0007789 0.0010768 -0.0002894 0.0006558 -0.0024083 0.0004766 -0.0022663 -0.0000099 -0.0047970 -0.0000107 -0.0016010 -0.0001601 -0.0015624
-0.0294263 0.0305746 -0.0008467 -0.0025736 0.0002391 -0.0019841 0.0007787 -0.0008715 0.0010739 -0.0004072 0.0006397 -0.0027866 0.0002207 -0.0025608 -0.0000264 -0.0049476 -0.0000217 -0.0016729 -0.0001232 -0.0015755
0.0013744 -0.0026494 -0.0008462 -0.0025101 0.0003364 -0.0021326 0.0008005 -0.0008380 0.0010865 -0.0003276 0.0006606 -0.0026152 0.0002920 -0.0027305 0.0000132 -0.0047456 -0.0000354 -0.0015252 -0.0000172 -0.0014258
0.0090520 -0.0117687 -0.0008638 -0.0024079 0.0003441 -0.0019057 0.0008150 -0.0007607 0.0010959 -0.0002529 0.0006760 -0.0024127 0.0003585 -0.0025775 0.0000580 -0.0045050 -0.0000253 -0.0013469 -0.0000653 -0.0013745
0.0005523 -0.0003377 -0.0008494 -0.0022785 0.0002835 -0.0017063 0.0007657 -0.0004713 0.0011040 -0.0001023 0.0006979 -0.0020483 0.0004236 -0.0021218 0.0000278 -0.0039546 -0.0000397 -0.0010542 0.0000265 -0.0014359
0.0049283 -0.0056128 -0.0008417 -0.0021734 0.0001551 -0.0015900 0.0007678 -0.0005116 0.0011052 -0.0001094 0.0006639 -0.0022772 0.0004209 -0.0022337 0.0000038 -0.0043835 -0.0000494 -0.0012741 -0.0000539 -0.0016163
0.0095767 -0.0153586 -0.0008494 -0.0021892 0.0002521 -0.0017358 0.0007934 -0.0007487 0.0010953 -0.0002330 0.0006265 -0.0026878 0.0006572 -0.0027025 0.0000262 -0.0049780 -0.0000363 -0.0015750 -0.0001525 -0.0015072
-0.0047260 0.0034002 -0.0008640 -0.0022031 0.0003779 -0.0018504 0.0008327 -0.0008149 0.0011005 -0.0002514 0.0006383 -0.0026046 0.0006672 -0.0024800 -0.0000260 -0.0045876 -0.0000288 -0.0014348 -0.0003756 -0.0012412
-0.0010115 0.0059597 -0.0008624 -0.0021385 0.0001999 -0.0015739 0.0008444 -0.0006653 0.0010880 -0.0001812 0.0006415 -0.0023968 0.0007012 -0.0025665 -0.0000675 -0.0041447 -0.0000194 -0.0012254 0.0000689 -0.0015407
0.0126559 -0.0062765 -0.0008395 -0.0020200 0.0002237 -0.0015033 0.0008491 -0.0003890 0.0010740 -0.0000239 0.0006513 -0.0019679 0.0007624 -0.0021242 0.0000103 -0.0036084 -0.0000379 -0.0009179 0.0000777 -0.0011698
0.0125402 -0.0128622 -0.0008429 -0.0018356 0.0003865 -0.0014287 0.0009058 -0.0001319 0.0010623 0.0002018 0.0006474 -0.0016438 0.0008754 -0.0017357 0.0000380 -0.0036967 -0.0000486 -0.0009996 -0.0000011 -0.0012709
0.0072317 -0.0151950 -0.0008597 -0.0017774 0.0003295 -0.0013105 0.0008670 -0.0001177 0.0010543 0.0001302 0.0005946 -0.0020091 0.0009315 -0.0023954 -0.0000016 -0.0042677 -0.0000356 -0.0013261 0.0003696 -0.0017534
0.0031785 -0.0019306 -0.0008346 -0.0017924 0.0003378 -0.0013531 0.0008911 -0.0001855 0.0010650 0.0000117 0.0005742 -0.0022995 0.0004712 -0.0021071 -0.0000037 -0.0042360 -0.0000363 -0.0013552 0.0001642 -0.0015007
-0.0073236 0.0165255 -0.0007914 -0.0017367 0.0002242 -0.0011843 0.0009191 -0.0000527 0.0010665 0.0001123 0.0005850 -0.0020778 0.0002810 -0.0012395 0.0000428 -0.0038391 -0.0000383 -0.0012121 0.0002401 -0.0015658
-0.0193083 0.0250167 -0.0007586 -0.0016520 0.0001738 -0.0009752 0.0008523 0.0001464 0.0010635 0.0002185 0.0005877 -0.0018110 0.0005071 -0.0012524 0.0000474 -0.0033338 -0.0000511 -0.0010084 0.0001391 -0.0011935
-0.0102719 0.0026142 -0.0007449 -0.0015144 0.0001073 -0.0007224 0.0008584 0.0003438 0.0010514 0.0003322 0.0006005 -0.0013744 0.0004013 -0.0006647 0.0001377 -0.0027022 -0.0000246 -0.0007251 -0.0001331 -0.0006568
-0.0030251 -0.0082407 -0.0006910 -0.0013656 0.0000751 -0.0005449 0.0009260 0.0002994 0.0010290 0.0001937 0.0005603 -0.0016347 0.0002057 -0.0004736 0.0002704 -0.0030551 0.0000352 -0.0009598 0.0002915 -0.0009512
0.0047264 -0.0019411 -0.0006298 -0.0013180 0.0002147 -0.0006205 0.0010352 0.0000566 0.0010081 0.0000058 0.0005130 -0.0019957 0.0003764 -0.0012071 0.0002468 -0.0032706 0.0000558 -0.0012819 -0.0000001 -0.0004135
0.0049864 0.0046226 -0.0006134 -0.0013145 0.0002143 -0.0006537 0.0010745 0.0001207 0.0009820 -0.0000333 0.0005104 -0.0017035 0.0006970 -0.0012513 0.0003273 -0.0025255 0.0000815 -0.0011165 -0.0000779 -0.0002297
-0.0024360 -0.0022612 -0.0005350 -0.0011491 0.0003143 -0.0004371 0.0010729 0.0005850 0.0008973 0.0000004 0.0004969 -0.0012233 0.0003290 -0.0001931 0.0006087 -0.0011473 0.0001027 -0.0009075 -0.0001750 0.0000858
-0.0231886 0.0117581 -0.0001434 -0.0004552 0.0005185 0.0001003 0.0010337 0.0009817 0.0007311 0.0001558 0.0004596 -0.0004935 -0.0001423 0.0005642 0.0008932 0.0007456 0.0001673 -0.0002151 -0.0006777 0.0007235
-0.0270276 0.0310229 0.0002924 0.0002876 0.0006055 0.0003721 0.0009551 0.0008146 0.0005615 0.0000300 0.0004123 -0.0004176 0.0002658 -0.0003124 0.0010022 0.0008711 0.0002706 0.0000225 -0.0000799 -0.0000700
-0.0051148 0.0064035 0.0004440 0.0004840 0.0005026 0.0001823 0.0010061 0.0002985 0.0004769 -0.0003577 0.0004126 -0.0007472 0.0007425 -0.0011487 0.0009686 0.0001634 0.0003634 -0.0000951 0.0008006 -0.0007965
-0.0051163 -0.0031000 0.0005049 0.0004568 0.0004721 -0.0000385 0.0009634 0.0003732 0.0004564 -0.0005759 0.0004210 -0.0007564 0.0005592 -0.0005794 0.0009696 0.0001945 0.0003938 0.0000196 0.0007604 -0.0001729
-0.0133932 0.0109636 0.0005450 0.0004752 0.0004830 -0.0001002 0.0009403 0.0006481 0.0004656 -0.0005624 0.0004028 -0.0006702 0.0006488 0.0001667 0.0010412 0.0002926 0.0003823 -0.0000355 -0.0000037 0.0012437
0.0016781 -0.0014531 0.0005516 0.0005448 0.0005934 -0.0001564 0.0009708 0.0008308 0.0004481 -0.0004926 0.0004114 -0.0004193 0.0011096 0.0002957 0.0011700 0.0011312 0.0004181 0.0002989 0.0000573 0.0013685
0.0049141 -0.0052458 0.0005607 0.0006162 0.0005898 0.0002438 0.0010317 0.0011563 0.0003525 -0.0005816 0.0003621 -0.0005956 0.0008629 0.0000918 0.0011993 0.0011056 0.0004378 0.0001925 0.0004293 0.0008230
0.0004359 -0.0028933 0.0005910 0.0004747 0.0004907 0.0004178 0.0010281 0.0007862 0.0002778 -0.0008007 0.0003269 -0.0010936 0.0006199 -0.0002377 0.0010904 0.0001821 0.0004890 -0.0000160 0.0005097 0.0006808
-0.0023880 0.0014121 0.0006038 0.0002860 0.0004499 0.0000208 0.0009043 0.0000509 0.0002656 -0.0008675 0.0003980 -0.0010562 0.0003788 -0.0000829 0.0010327 0.0000106 0.0005264 0.0002188 0.0004932 0.0005024
-0.0004087 0.0085786 0.0005960 0.0003396 0.0004018 -0.0001315 0.0008307 -0.0000116 0.0002705 -0.0007542 0.0004850 -0.0005996 0.0003853 -0.0001174 0.0010200 0.0004515 0.0005084 0.0004036 0.0005004 0.0007458
0.0027407 0.0016550 0.0005963 0.0004580 0.0006001 -0.0002364 0.0007948 0.0002040 0.0002727 -0.0005899 0.0005495 0.0000142 0.0008887 -0.0001144 0.0010646 0.0012197 0.0005084 0.0007373 0.0006724 0.0009069
-0.0116813 0.0120229 0.0005759 0.0005963 0.0006429 -0.0001437 0.0007604 0.0003600 0.0002581 -0.0003974 0.0005640 0.0003577 0.0009293 -0.0001836 0.0010669 0.0009697 0.0005084 0.0006968 0.0006842 0.0006403
-0.0126218 0.0196021 0.0005961 0.0005502 0.0005950 -0.0001897 0.0007243 0.0001831 0.0002488 -0.0005366 0.0005346 -0.0000464 0.0007636 -0.0004666 0.0009800 0.0002648 0.0005084 0.0003457 0.0004751 0.0007362
0.0028770 0.0056861 0.0006027 0.0004595 0.0004136 -0.0000033 0.0006586 0.0000612 0.0002532 -0.0007184 0.0005388 -0.0002822 0.0008109 -0.0008119 0.0009837 0.0002256 0.0005251 0.0002865 0.0004203 0.0007667
0.0060463 -0.0097315 0.0005698 0.0005085 0.0003105 0.0000543 0.0006615 0.0002445 0.0003516 -0.0004093 0.0006405 0.0001821 0.0008262 -0.0003784 0.0009910 0.0004986 0.0005339 0.0004959 0.0006661 0.0007232
-0.0015900 -0.0013689 0.0005425 0.0005805 0.0004776 0.0000054 0.0007096 0.0005341 0.0005594 0.0001333 0.0007946 0.0007708 0.0008896 0.0004343 0.0009109 0.0009215 0.0005335 0.0008556 0.0008175 0.0005572
0.0028378 0.0034982 0.0004622 0.0007756 0.0006443 0.0001146 0.0006535 0.0008571 0.0006903 0.0005113 0.0009035 0.0013218 0.0009365 0.0007447 0.0008202 0.0009270 0.0005208 0.0010054 0.0006162 0.0005778
0.0056906 -0.0072551 0.0004128 0.0008323 0.0007106 -0.0001627 0.0006132 0.0005985 0.0007208 0.0003622 0.0008821 0.0007911 0.0005104 0.0006118 0.0007098 0.0000273 0.0004902 0.0005728 0.0005870 0.0007488
-0.0087142 0.0059752 0.0004170 0.0007300 0.0005827 -0.0002219 0.0006147 0.0003190 0.0007313 0.0001171 0.0008206 0.0000972 0.0005967 -0.0003433 0.0006526 -0.0004256 0.0004673 0.0002787 0.0004879 0.0008754
-0.0078957 0.0005336 0.0003537 0.0008048 0.0003168 0.0001087 0.0006430 0.0004561 0.0007418 0.0001978 0.0008126 0.0003156 0.0007653 -0.0000518 0.0006850 -0.0000490 0.0004489 0.0004626 0.0006747 0.0007578
0.0029386 0.0001750 0.0003344 0.0008923 0.0002862 0.0002131 0.0006659 0.0006305 0.0007278 0.0003683 0.0008147 0.0006600 0.0006845 0.0009163 0.0006955 0.0005580 0.0004151 0.0006064 0.0006069 0.0008412
-0.0000360 0.0033824 0.0003676 0.0009236 0.0004149 0.0002163 0.0006795 0.0009562 0.0007110 0.0005407 0.0008070 0.0010664 0.0010841 0.0010405 0.0006943 0.0010895 0.0003776 0.0006881 0.0005911 0.0005280
0.0003686 -0.0248618 0.0003163 0.0009361 0.0002512 0.0003887 0.0007676 0.0010247 0.0007246 0.0004153 0.0007068 0.0004871 0.0012782 0.0001085 0.0006245 0.0001508 0.0003739 0.0001343 0.0007029 -0.0000089
-0.0059781 -0.0122333 0.0002867 0.0008084 0.0003212 0.0001193 0.0007896 0.0007272 0.0007350 0.0002277 0.0006177 -0.0004075 0.0011271 -0.0005781 0.0005333 -0.0011919 0.0003844 -0.0004378 0.0005774 -0.0003831
-0.0349798 0.0233011 0.0002321 0.0005636 0.0005274 -0.0003614 0.0007619 0.0005578 0.0007370 0.0002704 0.0006144 -0.0005385 0.0009256 -0.0000802 0.0005289 -0.0013821 0.0003663 -0.0004373 0.0005462 -0.0003474
-0.0025789 0.0004693 0.0001556 0.0003703 0.0005347 -0.0005069 0.0007981 0.0006064 0.0007345 0.0003172 0.0006103 -0.0004291 0.0007541 0.0004233 0.0005687 -0.0011534 0.0003435 -0.0003805 0.0003446 0.0004273
0.0044847 -0.0059269 0.0001600 0.0002847 0.0004853 -0.0003902 0.0008067 0.0007616 0.0007253 0.0004024 0.0006255 -0.0000744 0.0010974 0.0005275 0.0005981 -0.0006663 0.0003198 -0.0001344 0.0004114 0.0004362
0.0027045 -0.0040483 0.0001603 0.0002732 0.0003346 -0.0002111 0.0007743 0.0006555 0.0007303 0.0003554 0.0005871 -0.0004460 0.0011539 -0.0001450 0.0005142 -0.0014021 0.0003148 -0.0004562 0.0005714 -0.0004018
0.0166617 -0.0290674 0.0001312 0.0001349 0.0002193 -0.0003201 0.0007617 0.0003141 0.0007518 0.0002180 0.0005458 -0.0011171 0.0008201 -0.0006554 0.0004218 -0.0024664 0.0003399 -0.0008836 0.0007082 -0.0008789
0.0149026 -0.0310349 0.0001154 -0.0000835 0.0003861 -0.0007114 0.0007302 0.0002038 0.0007742 0.0002309 0.0005646 -0.0011191 0.0007640 -0.0005072 0.0004037 -0.0022976 0.0003330 -0.0007944 0.0005310 -0.0007261
0.0014132 -0.0048793 0.0000807 -0.0001160 0.0004630 -0.0008178 0.0007342 0.0002389 0.0007939 0.0003210 0.0005862 -0.0009119 0.0006913 -0.0004288 0.0004160 -0.0019575 0.0003080 -0.0006339 0.0002249 -0.0001878
0.0047012 0.0005489 0.0000358 -0.0000614 0.0003246 -0.0005778 0.0007064 0.0004025 0.0007853 0.0004491 0.0005996 -0.0005574 0.0007025 -0.0002074 0.0004610 -0.0013261 0.0003046 -0.0002715 -0.0000119 0.0003716
0.0025949 -0.0074368 0.0000901 -0.0000046 0.0002909 -0.0003816 0.0007399 0.0006078 0.0007628 0.0006055 0.0005787 -0.0004841 0.0011035 -0.0007220 0.0004760 -0.0015791 0.0003137 -0.0003611 -0.0001446 0.0001815
0.0074241 -0.0417162 0.0000955 -0.0000729 0.0002889 -0.0004982 0.0007442 0.0003634 0.0007777 0.0004237 0.0005648 -0.0009070 0.0011579 -0.0013843 0.0004509 -0.0023282 0.0003314 -0.0006693 0.0002352 -0.0004538
0.0074466 -0.0183780 0.0000290 -0.0002783 0.0002861 -0.0006599 0.0006967 0.0001261 0.0008018 0.0001914 0.0006079 -0.0009522 0.0008880 -0.0010431 0.0003866 -0.0020987 0.0003273 -0.0005743 0.0003919 -0.0004202
0.0036858 -0.0050155 -0.0000538 -0.0004770 0.0002509 -0.0006375 0.0007981 0.0002775 0.0008199 0.0001744 0.0006816 -0.0005434 0.0007067 -0.0004042 0.0003632 -0.0016242 0.0003111 -0.0004072 0.0003660 0.0001057
-0.0049862 0.0146996 -0.0001875 -0.0008103 0.0002405 -0.0006086 0.0009261 0.0004900 0.0008480 0.0000558 0.0007376 -0.0003003 0.0005869 0.0003009 0.0003676 -0.0014239 0.0002885 -0.0004346 0.0004438 0.0006665
0.0014618 0.0140334 -0.0002686 -0.0010409 0.0003792 -0.0008543 0.0009987 0.0008037 0.0008631 0.0000167 0.0007286 -0.0003220 0.0003394 0.0008513 0.0003565 -0.0017306 0.0002657 -0.0007387 0.0002767 0.0006303
0.0033013 0.0104119 -0.0002650 -0.0011202 0.0002226 -0.0008769 0.0009361 0.0008011 0.0008776 -0.0001609 0.0006422 -0.0011584 0.0002765 0.0000938 0.0002598 -0.0026673 0.0002478 -0.0012475 0.0002963 -0.0002886
0.0018828 0.0095590 -0.0002541 -0.0011468 0.0000608 -0.0007190 0.0008800 0.0005260 0.0008927 -0.0002204 0.0005975 -0.0017291 0.0007066 -0.0008823 0.0002390 -0.0030708 0.0002467 -0.0013906 0.0004260 -0.0006631
0.0044731 -0.0020709 -0.0002455 -0.0010172 0.0001938 -0.0008757 0.0008649 0.0004802 0.0009128 0.0000744 0.0006129 -0.0014869 0.0008172 -0.0009191 0.0002913 -0.0027184 0.0002343 -0.0011362 0.0005639 -0.0006960
-0.0093188 0.0075866 -0.0002316 -0.0008568 0.0003696 -0.0010360 0.0008403 0.0006070 0.0009311 0.0003804 0.0006267 -0.0011940 0.0009580 -0.0010374 0.0002784 -0.0021991 0.0002022 -0.0009762 0.0004838 -0.0005830
-0.0144745 0.0120730 -0.0002285 -0.0006776 0.0004210 -0.0009371 0.0008270 0.0008079 0.0009377 0.0007225 0.0006651 -0.0006136 0.0008500 -0.0002572 0.0002988 -0.0014012 0.0002068 -0.0005251 0.0006101 -0.0004992
-0.0138479 0.0060005 -0.0001847 -0.0005133 0.0002325 -0.0005875 0.0007206 0.0007715 0.0009290 0.0006723 0.0006678 -0.0007160 0.0004134 -0.0001034 0.0002648 -0.0018226 0.0002735 -0.0004153 0.0006046 -0.0003345
0.0031472 -0.0129640 -0.0001175 -0.0004923 0.0003051 -0.0007192 0.0006789 0.0005634 0.0009294 0.0003805 0.0006284 -0.0011735 0.0003395 -0.0000271 0.0002354 -0.0024165 0.0003228 -0.0006937 0.0004917 -0.0001508
0.0023592 -0.0057372 -0.0001017 -0.0005981 0.0002860 -0.0010651 0.0007641 0.0007078 0.0010036 0.0002626 0.0006106 -0.0013192 0.0009162 0.0002954 0.0002580 -0.0022703 0.0002966 -0.0007424 0.0004341 0.0001649
-0.0017785 0.0114151 -0.0001219 -0.0005602 0.0002035 -0.0011663 0.0008908 0.0007852 0.0010622 0.0002177 0.0006237 -0.0012992 0.0014233 0.0000427 0.0002918 -0.0020524 0.0002598 -0.0007146 0.0003264 0.0004121
0.0056546 0.0075505 -0.0001382 -0.0004626 0.0003119 -0.0010945 0.0009610 0.0009328 0.0010438 0.0002875 0.0006568 -0.0008897 0.0016127 0.0003832 0.0002955 -0.0013324 0.0002292 -0.0005312 0.0005882 0.0002426
0.0035036 0.0024446 -0.0001639 -0.0004363 0.0003006 -0.0010271 0.0010368 0.0009711 0.0010198 0.0001716 0.0006206 -0.0014083 0.0011974 0.0001247 0.0002412 -0.0021597 0.0002362 -0.0008453 0.0004946 -0.0000281
-0.0083558 0.0096723 -0.0001391 -0.0005776 0.0003271 -0.0012798 0.0010549 0.0006393 0.0010127 -0.0000617 0.0005737 -0.0021671 0.0008940 -0.0005091 0.0002199 -0.0031805 0.0002392 -0.0012100 0.0007137 -0.0003978
-0.0080106 -0.0003163 -0.0001110 -0.0007433 0.0000180 -0.0010885 0.0009591 0.0005358 0.0010163 -0.0001008 0.0005899 -0.0020537 0.0012247 -0.0006029 0.0001916 -0.0028211 0.0002240 -0.0010746 0.0006910 -0.0001226
0.0042356 -0.0179026 -0.0001284 -0.0007638 0.0000060 -0.0010473 0.0009760 0.0005116 0.0009977 0.0000274 0.0006230 -0.0017657 0.0016782 -0.0009945 0.0001653 -0.0024669 0.0002228 -0.0009019 0.0003872 0.0001768
0.0032309 -0.0056568 -0.0002060 -0.0008136 0.0002076 -0.0011996 0.0009697 0.0005319 0.0009749 0.0002210 0.0006659 -0.0012998 0.0016471 -0.0001795 0.0002383 -0.0020407 0.0001973 -0.0006057 0.0006899 -0.0001085
0.0022291 0.0077038 -0.0003504 -0.0009313 0.0000244 -0.0009597 0.0009223 0.0004441 0.0009581 0.0003033 0.0006320 -0.0014981 0.0009876 0.0004842 0.0001499 -0.0027936 0.0001863 -0.0008475 0.0004817 -0.0003831
0.0044396 0.0089292 -0.0004647 -0.0012324 -0.0001567 -0.0010952 0.0008820 -0.0000236 0.0009504 0.0001039 0.0005689 -0.0022306 0.0009226 -0.0006971 0.0000016 -0.0038208 0.0001936 -0.0012566 0.0003437 -0.0004065
-0.0015907 0.0098372 -0.0005194 -0.0016062 -0.0002786 -0.0013333 0.0008069 -0.0003107 0.0009403 -0.0000679 0.0005795 -0.0023790 0.0008679 -0.0009248 0.0000059 -0.0038747 0.0001901 -0.0012067 0.0004733 -0.0004855
-0.0140255 0.0217759 -0.0006188 -0.0018258 -0.0000535 -0.0016409 0.0007856 -0.0003645 0.0009229 -0.0000489 0.0006184 -0.0021521 0.0005690 -0.0003785 0.0000521 -0.0037401 0.0001723 -0.0010622 0.0001355 -0.0002556
-0.0140865 0.0242723 -0.0007336 -0.0019237 0.0000394 -0.0017222 0.0007582 -0.0004799 0.0009118 -0.0000173 0.0006444 -0.0018476 0.0006626 -0.0003196 0.0000831 -0.0033654 0.0001401 -0.0008077 0.0001146 -0.0000517
0.0081206 -0.0094083 -0.0007617 -0.0019711 -0.0002229 -0.0013340 0.0006931 -0.0004267 0.0008763 0.0000825 0.0006446 -0.0016224 0.0009046 -0.0007735 0.0000218 -0.0036299 0.0001390 -0.0008875 0.0005162 -0.0004314
0.0162637 -0.0404327 -0.0007645 -0.0021667 -0.0002554 -0.0015357 0.0007162 -0.0006771 0.0008607 -0.0001449 0.0005849 -0.0022511 0.0008313 -0.0014552 -0.0000788 -0.0044745 0.0001415 -0.0013183 0.0003647 -0.0005978
-0.0019535 -0.0057124 -0.0007808 -0.0024436 -0.0002191 -0.0020023 0.0007205 -0.0010640 0.0008672 -0.0004564 0.0005592 -0.0028219 0.0005276 -0.0013669 -0.0001163 -0.0047089 0.0001322 -0.0014538 0.0000757 -0.0004919
-0.0002553 -0.0031828 -0.0008613 -0.0025922 -0.0000969 -0.0022448 0.0006252 -0.0011598 0.0008512 -0.0004733 0.0005923 -0.0026679 0.0007514 -0.0014255 -0.0000949 -0.0044567 0.0001230 -0.0013103 0.0000086 -0.0002224
-0.0119438 -0.0014119 -0.0009393 -0.0026903 -0.0001717 -0.0022570 0.0005684 -0.0011140 0.0008310 -0.0004530 0.0006184 -0.0024468 0.0010528 -0.0021057 -0.0000682 -0.0041298 0.0000907 -0.0010861 0.0002147 -0.0003389
-0.0145967 -0.0121827 -0.0009762 -0.0027822 -0.0004404 -0.0019369 0.0006087 -0.0011152 0.0008111 -0.0003811 0.0006422 -0.0020636 0.0010217 -0.0018968 -0.0000803 -0.0036831 0.0000704 -0.0008029 0.0003712 -0.0007052
-0.0186399 0.0095337 -0.0010521 -0.0028183 -0.0003080 -0.0021034 0.0005247 -0.0011855 0.0007868 -0.0005113 0.0005914 -0.0024763 0.0007609 -0.0020022 -0.0001427 -0.0044289 0.0000742 -0.0011765 0.0000940 -0.0008795
-0.0001206 -0.0002027 -0.0011066 -0.0030087 -0.0001286 -0.0026671 0.0004851 -0.0014400 0.0007802 -0.0008252 0.0005395 -0.0032121 0.0005738 -0.0023181 -0.0001543 -0.0054115 0.0000706 -0.0016319 0.0002344 -0.0010775
0.0046960 -0.0031450 -0.0010895 -0.0032809 -0.0003690 -0.0027292 0.0004990 -0.0016929 0.0007768 -0.0009514 0.0005586 -0.0032470 0.0011525 -0.0028575 -0.0001447 -0.0052284 0.0000690 -0.0015424 0.0005149 -0.0013019
-0.0051238 0.0142257 -0.0010601 -0.0033561 -0.0005243 -0.0025968 0.0004493 -0.0016160 0.0007653 -0.0009391 0.0005800 -0.0030218 0.0013415 -0.0029390 -0.0001639 -0.0048351 0.0000667 -0.0013696 -0.0000190 -0.0008321
-0.0011356 0.0050283 -0.0010685 -0.0033116 -0.0003248 -0.0025909 0.0005435 -0.0015325 0.0007490 -0.0008775 0.0006010 -0.0026541 0.0010441 -0.0021033 -0.0001257 -0.0043047 0.0000474 -0.0010760 -0.0000043 -0.0007182
0.0079095 -0.0139322 -0.0010970 -0.0032205 -0.0004128 -0.0023434 0.0005812 -0.0014338 0.0007293 -0.0007433 0.0006251 -0.0022414 0.0008192 -0.0013529 -0.0000615 -0.0040831 0.0000359 -0.0009205 0.0005572 -0.0012663
0.0026399 -0.0106007 -0.0010958 -0.0032171 -0.0004678 -0.0023464 0.0004958 -0.0015331 0.0007390 -0.0009390 0.0005713 -0.0027835 0.0007917 -0.0022394 -0.0001427 -0.0048575 0.0000428 -0.0013398 0.0003659 -0.0011890
-0.0172030 0.0128683 -0.0010806 -0.0033740 -0.0005328 -0.0024633 0.0004867 -0.0018198 0.0007541 -0.0012558 0.0005180 -0.0034972 0.0010569 -0.0030416 -0.0001866 -0.0054663 0.0000362 -0.0016789 0.0000452 -0.0009296
-0.0077150 0.0230215 -0.0010643 -0.0035006 -0.0005631 -0.0026325 0.0005151 -0.0017777 0.0007492 -0.0013051 0.0005338 -0.0033842 0.0008734 -0.0022978 -0.0001484 -0.0052192 0.0000241 -0.0015443 0.0000195 -0.0008448
0.0000225 0.0177175 -0.0010588 -0.0035234 -0.0004430 -0.0027978 0.0004993 -0.0016415 0.0007512 -0.0013020 0.0005564 -0.0031980 0.0008189 -0.0022149 -0.0001238 -0.0048901 0.0000356 -0.0013953 0.0002145 -0.0011291
-0.0017601 -0.0033377 -0.0010746 -0.0034510 -0.0005564 -0.0024854 0.0005661 -0.0016244 0.0007526 -0.0012114 0.0005833 -0.0028659 0.0009282 -0.0017755 -0.0000463 -0.0044463 0.0000236 -0.0011123 0.0004700 -0.0013833
-0.0049270 -0.0118632 -0.0010787 -0.0032920 -0.0004892 -0.0023452 0.0005740 -0.0014006 0.0007459 -0.0010555 0.0005951 -0.0026437 0.0005059 -0.0011636 -0.0001043 -0.0045829 0.0000076 -0.0011715 0.0002546 -0.0012915
-0.0097781 -0.0026570 -0.0010949 -0.0033060 -0.0002100 -0.0027961 0.0005221 -0.0015140 0.0007518 -0.0012380 0.0005400 -0.0032483 0.0005468 -0.0021980 -0.0002048 -0.0053183 0.0000208 -0.0016171 -0.0001287 -0.0011608
-0.0331998 0.0133269 -0.0011148 -0.0034298 -0.0004740 -0.0027558 0.0004315 -0.0016689 0.0007673 -0.0014887 0.0005088 -0.0037926 0.0011242 -0.0034311 -0.0001725 -0.0055904 0.0000384 -0.0017632 -0.0001447 -0.0010294
-0.0089714 -0.0056039 -0.0011236 -0.0034787 -0.0007874 -0.0024571 0.0004609 -0.0016261 0.0007805 -0.0014835 0.0005500 -0.0036449 0.0009762 -0.0030998 -0.0001536 -0.0053132 0.0000379 -0.0015988 -0.0000078 -0.0009123
-0.0000971 -0.0090447 -0.0011388 -0.0034761 -0.0004765 -0.0026823 0.0005549 -0.0015756 0.0007861 -0.0014779 0.0005815 -0.0034063 0.0006328 -0.0021252 -0.0001383 -0.0048278 0.0000191 -0.0013062 0.0001749 -0.0007841
0.0103802 -0.0201278 -0.0011268 -0.0033661 -0.0004034 -0.0025803 0.0006334 -0.0014419 0.0007752 -0.0013706 0.0006102 -0.0029340 0.0007027 -0.0011334 -0.0000496 -0.0041450 0.0000071 -0.0009208 0.0000603 -0.0002371
0.0111456 -0.0289092 -0.0010941 -0.0031726 -0.0005434 -0.0022219 0.0006992 -0.0013107 0.0007765 -0.0011978 0.0005999 -0.0027919 0.0008876 -0.0017168 -0.0000321 -0.0044318 0.0000142 -0.0010512 -0.0001501 -0.0003881
-0.0119825 0.0027095 -0.0010635 -0.0031319 -0.0003838 -0.0023166 0.0006731 -0.0013258 0.0007992 -0.0013563 0.0005511 -0.0033622 0.0010060 -0.0029853 -0.0001100 -0.0050772 0.0000365 -0.0014536 -0.0001263 -0.0009564
-0.0108394 0.0172403 -0.0010417 -0.0031055 -0.0003800 -0.0022363 0.0007194 -0.0013386 0.0008129 -0.0015161 0.0005478 -0.0036244 0.0012691 -0.0029049 -0.0000952 -0.0048053 0.0000511 -0.0014087 0.0002718 -0.0012147
-0.0122943 0.0183317 -0.0010358 -0.0028961 -0.0002676 -0.0019162 0.0007126 -0.0009227 0.0008157 -0.0013777 0.0005809 -0.0032548 0.0009757 -0.0017244 -0.0000074 -0.0040280 0.0000507 -0.0011469 0.0000309 -0.0003163
-0.0131971 0.0248611 -0.0009796 -0.0026670 -0.0001831 -0.0014360 0.0008007 -0.0005290 0.0008405 -0.0012542 0.0006264 -0.0026898 0.0007353 -0.0006970 0.0000680 -0.0028101 0.0000191 -0.0008019 -0.0003875 0.0005178
-0.0070784 0.0185018 -0.0009485 -0.0023501 -0.0002390 -0.0008690 0.0008945 0.0000060 0.0008582 -0.0010014 0.0006823 -0.0019177 0.0011305 0.0001818 0.0001979 -0.0017668 -0.0000000 -0.0004437 -0.0001384 0.0004555
0.0008036 0.0066424 -0.0009233 -0.0019863 -0.0002383 -0.0005825 0.0009357 0.0005126 0.0008772 -0.0007874 0.0006635 -0.0019356 0.0014539 -0.0005361 0.0002243 -0.0022884 0.0000323 -0.0007574 0.0000734 0.0001313
-0.0004918 0.0121785 -0.0008324 -0.0019338 -0.0000238 -0.0009485 0.0009222 0.0005484 0.0009262 -0.0009294 0.0006148 -0.0025869 0.0008202 -0.0007537 0.0001371 -0.0032144 0.0000752 -0.0011579 0.0000570 -0.0002584
0.0052386 -0.0113160 -0.0007256 -0.0017804 0.0001478 -0.0012572 0.0009377 0.0003040 0.0009753 -0.0009079 0.0006292 -0.0027314 0.0004308 -0.0000750 0.0000775 -0.0033103 0.0001034 -0.0010627 -0.0001607 -0.0000360
0.0024015 0.0004619 -0.0006547 -0.0015000 0.0000843 -0.0010355 0.0009895 0.0003856 0.0010060 -0.0006911 0.0006617 -0.0024387 0.0009231 -0.0004646 0.0000968 -0.0029593 0.0000797 -0.0009738 -0.0000978 -0.0001382
-0.0136411 0.0267766 -0.0006708 -0.0013887 0.0002047 -0.0009616 0.0009779 0.0006093 0.0010211 -0.0005351 0.0006947 -0.0019490 0.0008904 -0.0000184 0.0001263 -0.0021256 0.0000499 -0.0007355 0.0000326 0.0002195
-0.0101194 0.0173463 -0.0006534 -0.0011952 0.0003147 -0.0008115 0.0010086 0.0007723 0.0010225 -0.0002627 0.0007331 -0.0013877 0.0007762 0.0008711 0.0001097 -0.0015000 0.0000433 -0.0004027 -0.0001472 0.0008371
0.0076099 -0.0088729 -0.0006175 -0.0010485 0.0002626 -0.0006958 0.0010007 0.0008278 0.0010371 -0.0002547 0.0006819 -0.0017661 0.0009290 0.0002521 0.0000877 -0.0023793 0.0000631 -0.0006955 -0.0000606 0.0005574
0.0047064 -0.0172935 -0.0006172 -0.0010388 0.0001313 -0.0006711 0.0009673 0.0006320 0.0010659 -0.0004544 0.0006335 -0.0023441 0.0010397 -0.0002533 0.0001107 -0.0031880 0.0000892 -0.0010056 -0.0001293 0.0003684
0.0100903 -0.0252002 -0.0006016 -0.0010400 0.0001277 -0.0006895 0.0009459 0.0006245 0.0010737 -0.0005043 0.0006716 -0.0020706 0.0009215 0.0004941 0.0001809 -0.0025910 0.0000991 -0.0008044 -0.0001062 0.0006271
-0.0006468 0.0016515 -0.0005801 -0.0009852 0.0001782 -0.0006689 0.0010040 0.0006069 0.0010747 -0.0004198 0.0007019 -0.0016800 0.0011262 0.0003789 0.0002132 -0.0020859 0.0001324 -0.0006395 0.0001642 0.0006279
-0.0038046 0.0048661 -0.0005750 -0.0009010 0.0002292 -0.0006951 0.0009422 0.0007472 0.0010759 -0.0002426 0.0007330 -0.0011681 0.0012623 0.0006054 0.0002065 -0.0013711 0.0001212 -0.0003504 0.0002863 0.0006615
0.0125510 -0.0175910 -0.0005670 -0.0007690 0.0001942 -0.0005422 0.0009381 0.0009546 0.0010770 0.0000031 0.0007639 -0.0005268 0.0010518 0.0014771 0.0001871 -0.0009633 0.0000744 -0.0001897 0.0001720 0.0007645
-0.0033910 0.0082466 -0.0005618 -0.0007154 0.0001295 -0.0004089 0.0010004 0.0008343 0.0010806 -0.0000197 0.0007149 -0.0009467 0.0012169 0.0007170 0.0001922 -0.0017199 0.0000651 -0.0004965 -0.0000935 0.0007343
-0.0173833 0.0190442 -0.0005689 -0.0007134 0.0001818 -0.0005736 0.0009516 0.0007467 0.0010963 -0.0001203 0.0006848 -0.0014548 0.0008742 0.0004602 0.0002115 -0.0021336 0.0000694 -0.0006354 -0.0001117 0.0006904
-0.0191260 0.0109109 -0.0005627 -0.0006920 0.0002497 -0.0006777 0.0010258 0.0006511 0.0011041 -0.0000063 0.0007185 -0.0010973 0.0007726 0.0011236 0.0002001 -0.0016411 0.0000536 -0.0004071 -0.0000307 0.0007827
-0.0109596 0.0086044 -0.0005561 -0.0006711 0.0002871 -0.0007153 0.0009746 0.0008377 0.0011108 0.0001244 0.0007322 -0.0007325 0.0013658 0.0006886 0.0001761 -0.0011513 0.0000288 -0.0001873 0.0002544 0.0008066
-0.0104722 0.0099272 -0.0005554 -0.0005869 0.0001361 -0.0004936 0.0009467 0.0010180 0.0011161 0.0003192 0.0007630 -0.0001728 0.0011386 0.0010828 0.0002194 -0.0005536 0.0000100 0.0001422 0.0001554 0.0010161
-0.0010345 -0.0048342 -0.0005353 -0.0005131 -0.0000268 -0.0001704 0.0010203 0.0009365 0.0011115 0.0004539 0.0007412 -0.0002649 0.0010248 0.0010687 0.0001809 -0.0010765 0.0000203 -0.0000363 -0.0001469 0.0011881
-0.0024897 0.0008891 -0.0005203 -0.0005883 0.0002396 -0.0005306 0.0010228 0.0007369 0.0011070 0.0003811 0.0006870 -0.0008080 0.0012383 0.0004391 0.0000948 -0.0017305 0.0000263 -0.0002998 -0.0000120 0.0008724
-0.0273220 0.0279872 -0.0005269 -0.0006259 0.0003610 -0.0008264 0.0010166 0.0006560 0.0011147 0.0003523 0.0006897 -0.0007729 0.0010469 0.0008854 0.0000794 -0.0013770 0.0000225 -0.0001644 0.0003497 0.0005446
-0.0166336 0.0214514 -0.0005551 -0.0005548 0.0001105 -0.0005060 0.0009371 0.0009455 0.0011249 0.0004765 0.0007119 -0.0003906 0.0011264 0.0011064 0.0000976 -0.0010094 0.0000116 0.0000083 0.0001890 0.0010820
0.0011559 -0.0047739 -0.0005819 -0.0004941 0.0002043 -0.0003963 0.0009221 0.0011581 0.0011218 0.0006111 0.0007349 0.0000580 0.0014021 0.0014479 0.0001535 -0.0004387 -0.0000050 0.0002848 -0.0001349 0.0015957
0.0034732 0.0019668 -0.0005664 -0.0003908 0.0001841 -0.0001884 0.0009278 0.0012568 0.0011074 0.0007933 0.0007579 0.0005594 0.0014099 0.0019330 0.0001588 -0.0002972 0.0000006 0.0004373 -0.0001875 0.0015132
0.0030326 0.0052032 -0.0005594 -0.0003682 0.0001269 -0.0002080 0.0009693 0.0010692 0.0010963 0.0006891 0.0007072 0.0000642 0.0010555 0.0015318 0.0001109 -0.0010167 0.0000208 0.0001979 0.0001203 0.0010174
0.0038620 -0.0142204 -0.0005287 -0.0004777 0.0000829 -0.0003412 0.0009897 0.0008823 0.0011024 0.0004944 0.0006683 -0.0004751 0.0009473 0.0012653 0.0000885 -0.0012176 0.0000371 0.0000751 0.0005577 0.0005571
-0.0083026 -0.0038913 -0.0005371 -0.0004766 -0.0001392 -0.0001224 0.0009500 0.0009300 0.0010896 0.0005468 0.0006891 -0.0001656 0.0012919 0.0013903 0.0001185 -0.0008387 0.0000358 0.0002988 0.0004885 0.0008489
-0.0070149 0.0102333 -0.0005481 -0.0004129 -0.0001209 -0.0000631 0.0009322 0.0010144 0.0010728 0.0006329 0.0007131 0.0001615 0.0011903 0.0017791 0.0001764 -0.0004780 0.0000417 0.0005346 0.0001865 0.0015397
-0.0017589 0.0163699 -0.0005434 -0.0003455 0.0000294 -0.0001393 0.0008451 0.0011810 0.0010658 0.0007526 0.0007491 0.0006502 0.0010765 0.0025694 0.0001879 -0.0000558 0.0000480 0.0007601 0.0002465 0.0016920
0.0055976 0.0041769 -0.0005250 -0.0003566 -0.0000703 -0.0000754 0.0008031 0.0010877 0.0010601 0.0006469 0.0006976 0.0001483 0.0010799 0.0019403 0.0001205 -0.0008401 0.0000569 0.0004554 0.0001952 0.0015244
0.0035149 -0.0039806 -0.0005081 -0.0004709 -0.0002537 -0.0000376 0.0008734 0.0007561 0.0010703 0.0004448 0.0006497 -0.0004965 0.0012291 0.0004974 0.0000991 -0.0015280 0.0000640 0.0001847 0.0001752 0.0013637
-0.0017071 0.0011420 -0.0005387 -0.0005084 -0.0001860 -0.0001664 0.0009106 0.0006820 0.0010634 0.0004342 0.0006693 -0.0003054 0.0011023 0.0007812 0.0001291 -0.0011842 0.0000792 0.0003501 0.0002535 0.0013123
-0.0014735 -0.0072159 -0.0005329 -0.0004935 -0.0000223 -0.0002869 0.0008322 0.0008731 0.0010401 0.0004952 0.0006841 -0.0000210 0.0010204 0.0012019 0.0002053 -0.0007649 0.0000931 0.0005601 0.0000066 0.0018694
-0.0043329 -0.0157430 -0.0004269 -0.0001547 0.0001665 0.0000593 0.0009289 0.0014966 0.0009853 0.0007877 0.0007008 0.0007512 0.0013306 0.0022313 0.0005649 0.0013594 0.0001838 0.0012108 0.0001141 0.0022938
-0.0068745 0.0082137 -0.0001405 0.0004262 0.0004694 0.0009065 0.0011631 0.0021841 0.0008736 0.0008609 0.0006254 0.0008350 0.0011550 0.0030428 0.0008633 0.0021803 0.0003044 0.0011771 0.0004136 0.0019694
-0.0120753 0.0231795 0.0000735 0.0005691 0.0005527 0.0011490 0.0012961 0.0020615 0.0007599 0.0004745 0.0005673 0.0003939 0.0010221 0.0028051 0.0008642 0.0015587 0.0003369 0.0007748 0.0003740 0.0018667
-0.0088230 0.0122514 0.0001493 0.0004304 0.0004300 0.0007432 0.0012412 0.0017255 0.0006936 0.0001977 0.0006043 0.0005355 0.0013095 0.0028319 0.0009197 0.0018969 0.0003606 0.0009535 0.0001846 0.0021232
-0.0049072 0.0119695 0.0002370 0.0004319 0.0004915 0.0005201 0.0011052 0.0017743 0.0006570 0.0001462 0.0006263 0.0008698 0.0014933 0.0028297 0.0009965 0.0024070 0.0003899 0.0011763 0.0003768 0.0019665
-0.0041794 0.0107071 0.0002473 0.0004859 0.0004316 0.0005839 0.0010877 0.0018389 0.0006437 0.0002534 0.0006698 0.0013301 0.0016172 0.0032267 0.0010587 0.0029963 0.0003922 0.0014719 0.0000998 0.0024992
0.0110960 -0.0211349 0.0002528 0.0005144 0.0004074 0.0005608 0.0010940 0.0017549 0.0006998 0.0003944 0.0006826 0.0011059 0.0015111 0.0026491 0.0009932 0.0021481 0.0004207 0.0012520 0.0001143 0.0022769
0.0159393 -0.0233987 0.0002765 0.0004982 0.0004587 0.0003948 0.0009460 0.0015367 0.0008464 0.0003882 0.0006782 0.0003322 0.0013555 0.0015274 0.0008300 0.0009685 0.0004610 0.0008447 0.0004560 0.0015611
0.0080861 -0.0186371 0.0002673 0.0005200 0.0003667 0.0003387 0.0009262 0.0013614 0.0009554 0.0002448 0.0007002 0.0000546 0.0013028 0.0016593 0.0008068 0.0008325 0.0004693 0.0008093 0.0006041 0.0013098
-0.0067091 0.0091343 0.0002619 0.0005563 0.0004533 0.0001725 0.0009902 0.0012855 0.0009644 0.0001731 0.0007273 0.0000799 0.0013001 0.0016503 0.0007784 0.0008361 0.0004490 0.0008804 0.0004623 0.0014704
-0.0172053 0.0227752 0.0002575 0.0005511 0.0005270 0.0000239 0.0009584 0.0012353 0.0009733 0.0002396 0.0007581 0.0002389 0.0011182 0.0017907 0.0007259 0.0010703 0.0003980 0.0010554 0.0002773 0.0019317
-0.0243799 0.0039394 0.0002146 0.0005523 0.0004080 0.0001882 0.0009303 0.0013433 0.0009781 0.0003546 0.0007456 0.0001476 0.0008698 0.0016898 0.0006753 0.0003169 0.0003611 0.0008119 0.0005920 0.0014544
0.0018645 -0.0288715 0.0001454 0.0003524 0.0004350 -0.0001016 0.0009297 0.0010756 0.0009801 0.0002068 0.0006742 -0.0006690 0.0009982 0.0006696 0.0006193 -0.0008288 0.0003436 0.0002086 0.0006082 0.0006167
0.0071839 -0.0192978 0.0000965 0.0000981 0.0004047 -0.0003310 0.0010040 0.0007346 0.0009902 0.0002214 0.0006161 -0.0010794 0.0011829 0.0003604 0.0006993 -0.0006507 0.0003418 -0.0000344 0.0005092 0.0002348
0.0105759 -0.0217694 0.0000627 -0.0000036 0.0004892 -0.0002514 0.0011246 0.0007585 0.0009656 0.0004392 0.0006288 -0.0005600 0.0011620 0.0009554 0.0007841 0.0002100 0.0003352 0.0001255 0.0003454 0.0003473
-0.0000065 -0.0120541 0.0000506 -0.0000852 0.0007109 -0.0003702 0.0011765 0.0008559 0.0009319 0.0005133 0.0006657 0.0000890 0.0006853 0.0023418 0.0008642 0.0008851 0.0003096 0.0003278 0.0005195 -0.0001175
-0.0050670 -0.0042344 0.0000152 -0.0000623 0.0006895 -0.0002477 0.0011555 0.0010926 0.0009224 0.0007256 0.0006808 0.0004659 0.0006434 0.0028841 0.0008794 0.0006105 0.0002983 0.0001756 0.0004841 -0.0001733
0.0095921 -0.0174448 -0.0000127 -0.0001570 0.0006398 -0.0003009 0.0011791 0.0010373 0.0009388 0.0006035 0.0006363 -0.0000867 0.0011208 0.0015449 0.0007456 -0.0001398 0.0003317 -0.0000566 0.0004436 0.0000131
0.0111660 -0.0169907 -0.0000100 -0.0003768 0.0005913 -0.0004595 0.0011913 0.0009420 0.0009504 0.0002425 0.0005930 -0.0006526 0.0011049 0.0013555 0.0007689 -0.0002328 0.0003721 -0.0000838 0.0005666 -0.0000543
0.0018002 -0.0076374 0.0000273 -0.0004893 0.0004083 -0.0003396 0.0013077 0.0009436 0.0009267 0.0001041 0.0005881 -0.0005530 0.0011684 0.0016205 0.0008609 0.0001685 0.0003816 0.0000158 0.0003858 0.0001745
0.0117128 -0.0364678 0.0000584 -0.0005474 0.0002502 -0.0002039 0.0013912 0.0008933 0.0009072 0.0001073 0.0006070 -0.0003743 0.0014778 0.0012384 0.0009119 0.0004346 0.0003866 0.0002326 0.0007180 0.0001278
0.0116548 -0.0221889 0.0000251 -0.0005640 0.0003535 -0.0003495 0.0013063 0.0010845 0.0009107 0.0001963 0.0006476 -0.0000533 0.0013657 0.0014775 0.0009283 0.0005504 0.0003950 0.0003896 0.0008552 0.0002366
-0.0066445 0.0131720 -0.0000180 -0.0006239 0.0004876 -0.0006052 0.0012141 0.0009483 0.0009084 0.0000583 0.0005995 -0.0005942 0.0011405 0.0011108 0.0008105 -0.0002344 0.0004095 0.0000118 0.0008466 -0.0002453
-0.0142388 0.0128133 -0.0000088 -0.0008619 0.0005567 -0.0007985 0.0012488 0.0003958 0.0009118 -0.0001699 0.0005588 -0.0013110 0.0011650 0.0004886 0.0007620 -0.0010349 0.0004186 -0.0003607 0.0011927 -0.0010247
-0.0073986 -0.0015970 0.0000032 -0.0010515 0.0007133 -0.0011290 0.0012566 0.0002291 0.0009150 -0.0002036 0.0005854 -0.0012863 0.0012560 0.0004187 0.0007581 -0.0008692 0.0004125 -0.0002868 0.0010747 -0.0010360
-0.0142619 0.0154554 -0.0000112 -0.0010711 0.0006605 -0.0012173 0.0011332 0.0004381 0.0009051 -0.0001652 0.0006116 -0.0011399 0.0015483 0.0003118 0.0007781 -0.0006691 0.0004116 -0.0001466 0.0007621 -0.0006085
0.0061782 -0.0005606 -0.0000113 -0.0010674 0.0005637 -0.0010412 0.0011122 0.0005578 0.0008946 -0.0000647 0.0006453 -0.0008201 0.0014691 0.0008703 0.0008149 -0.0002905 0.0004129 0.0001034 0.0007036 -0.0001911
0.0114154 -0.0125015 -0.0000141 -0.0010087 0.0005527 -0.0009489 0.0011315 0.0005677 0.0008815 -0.0000828 0.0006181 -0.0010746 0.0012238 0.0005548 0.0007713 -0.0009251 0.0004130 -0.0001343 0.0006871 -0.0004449
-0.0134231 0.0161556 -0.0000215 -0.0010891 0.0005022 -0.0011536 0.0011267 0.0002707 0.0008879 -0.0003495 0.0005886 -0.0018222 0.0010881 -0.0003146 0.0007387 -0.0020719 0.0004056 -0.0005192 0.0005930 -0.0010862
-0.0050560 0.0117291 -0.0000396 -0.0012029 0.0005655 -0.0015693 0.0011339 -0.0001124 0.0009204 -0.0005121 0.0006203 -0.0021191 0.0006930 0.0000069 0.0006450 -0.0022310 0.0004148 -0.0005050 0.0004072 -0.0010977
0.0041491 -0.0067168 -0.0000397 -0.0012049 0.0005660 -0.0016805 0.0010414 -0.0002270 0.0009487 -0.0004269 0.0006658 -0.0020362 0.0007151 -0.0005499 0.0006113 -0.0021251 0.0004353 -0.0003757 0.0001455 -0.0004869
0.0024582 -0.0103287 -0.0000333 -0.0012023 0.0003447 -0.0013623 0.0009684 -0.0002441 0.0009517 -0.0002966 0.0007121 -0.0018163 0.0008411 -0.0009081 0.0006411 -0.0018682 0.0004211 -0.0001190 0.0002615 -0.0003517
0.0076177 -0.0193321 -0.0000467 -0.0011614 0.0004049 -0.0013501 0.0009773 -0.0001859 0.0009460 -0.0001706 0.0007523 -0.0014754 0.0009047 -0.0009056 0.0006674 -0.0015791 0.0004028 0.0001220 0.0005399 -0.0006454
-0.0014405 -0.0094341 -0.0000373 -0.0011983 0.0004972 -0.0015636 0.0009813 -0.0003704 0.0009478 -0.0003174 0.0007135 -0.0019724 0.0009169 -0.0016058 0.0006386 -0.0024150 0.0004049 -0.0002267 0.0004139 -0.0007589
-0.0092180 -0.0001884 -0.0000619 -0.0013148 0.0004029 -0.0017083 0.0009771 -0.0007338 0.0009550 -0.0005681 0.0006809 -0.0027163 0.0009360 -0.0022499 0.0005344 -0.0033045 0.0004172 -0.0006424 0.0007200 -0.0013389
-0.0020812 0.0017497 -0.0001121 -0.0013874 0.0003912 -0.0018370 0.0010042 -0.0009581 0.0009599 -0.0006163 0.0007137 -0.0027429 0.0010952 -0.0023988 0.0005398 -0.0032295 0.0004156 -0.0005668 0.0009782 -0.0015246
-0.0010298 -0.0003656 -0.0001280 -0.0013789 0.0002996 -0.0016925 0.0009587 -0.0009430 0.0009644 -0.0005704 0.0007379 -0.0026063 0.0011946 -0.0025483 0.0005661 -0.0030549 0.0004067 -0.0004247 0.0006613 -0.0010566
-0.0038864 -0.0107226 -0.0001324 -0.0013578 0.0001410 -0.0014694 0.0008735 -0.0007245 0.0009608 -0.0004590 0.0007665 -0.0023190 0.0012249 -0.0026570 0.0005504 -0.0026707 0.0003918 -0.0002120 0.0003272 -0.0003743
0.0036899 -0.0061376 -0.0001266 -0.0013346 0.0002163 -0.0015633 0.0008940 -0.0006003 0.0009564 -0.0003518 0.0007963 -0.0019720 0.0009786 -0.0017880 0.0005694 -0.0023279 0.0003756 -0.0000135 0.0000444 0.0000947
0.0029051 0.0151301 -0.0001321 -0.0013309 0.0003466 -0.0017462 0.0009113 -0.0008034 0.0009529 -0.0005159 0.0007492 -0.0024594 0.0008207 -0.0021320 0.0005296 -0.0031069 0.0003672 -0.0003901 0.0002677 -0.0006602
0.0068054 0.0084693 -0.0001518 -0.0014148 0.0002885 -0.0018906 0.0008712 -0.0010192 0.0009424 -0.0007713 0.0007020 -0.0031851 0.0005266 -0.0027361 0.0004414 -0.0038707 0.0003696 -0.0008281 0.0006084 -0.0012783
0.0195642 -0.0268670 -0.0001680 -0.0014568 0.0001581 -0.0018068 0.0008908 -0.0010403 0.0009471 -0.0008252 0.0007187 -0.0032006 0.0004284 -0.0026305 0.0003860 -0.0036031 0.0003840 -0.0007531 0.0009005 -0.0016378
0.0179103 -0.0280087 -0.0001699 -0.0014043 0.0002810 -0.0017059 0.0009530 -0.0009908 0.0009513 -0.0007954 0.0007356 -0.0030319 0.0006933 -0.0023837 0.0004111 -0.0032814 0.0003770 -0.0005857 0.0010820 -0.0017027
0.0085739 -0.0227853 -0.0001549 -0.0013378 0.0005015 -0.0017894 0.0009579 -0.0007185 0.0009239 -0.0006924 0.0007625 -0.0026138 0.0007508 -0.0017722 0.0005476 -0.0027021 0.0003477 -0.0003196 0.0007501 -0.0009147
0.0000491 -0.0082565 -0.0001709 -0.0011828 0.0003077 -0.0014712 0.0009398 -0.0003963 0.0009059 -0.0005728 0.0007871 -0.0021336 0.0008545 -0.0017713 0.0006224 -0.0020965 0.0003391 -0.0000728 0.0006496 -0.0007745
0.0127478 -0.0214486 -0.0001954 -0.0010587 0.0003684 -0.0014601 0.0009567 -0.0004758 0.0008982 -0.0006719 0.0007416 -0.0025435 0.0007280 -0.0021600 0.0006122 -0.0028504 0.0003456 -0.0004141 0.0007120 -0.0011720
0.0137618 -0.0154685 -0.0001648 -0.0011499 0.0005295 -0.0017848 0.0009046 -0.0006920 0.0008907 -0.0008691 0.0006940 -0.0032162 0.0006322 -0.0029399 0.0005495 -0.0037370 0.0003595 -0.0008135 0.0005160 -0.0012398
0.0098016 -0.0059620 -0.0001528 -0.0012223 0.0003790 -0.0017469 0.0008784 -0.0008071 0.0008961 -0.0009280 0.0007088 -0.0032188 0.0009831 -0.0033139 0.0004973 -0.0036364 0.0003788 -0.0007297 0.0006528 -0.0012924
-0.0038004 0.0093191 -0.0001532 -0.0011952 0.0001102 -0.0014348 0.0009165 -0.0008436 0.0008728 -0.0009133 0.0007214 -0.0029944 0.0010491 -0.0028595 0.0004918 -0.0031759 0.0003713 -0.0006169 0.0007752 -0.0011615
-0.0011015 0.0017293 -0.0001479 -0.0011159 0.0000915 -0.0014002 0.0009292 -0.0006301 0.0008306 -0.0008938 0.0007517 -0.0025590 0.0010566 -0.0024266 0.0005852 -0.0021084 0.0003673 -0.0003489 0.0007506 -0.0008704
0.0090731 -0.0278700 -0.0001509 -0.0009886 0.0004617 -0.0016010 0.0010547 -0.0002950 0.0007822 -0.0009734 0.0007974 -0.0020630 0.0012293 -0.0014903 0.0007568 -0.0014567 0.0003904 -0.0001631 0.0005874 -0.0006136
-0.0030580 -0.0017752 -0.0001207 -0.0009178 0.0005424 -0.0015386 0.0011114 -0.0002017 0.0007866 -0.0011260 0.0007790 -0.0024981 0.0007715 -0.0010229 0.0007234 -0.0022946 0.0004073 -0.0005646 0.0002154 -0.0005962
0.0003153 0.0031452 -0.0001100 -0.0009415 0.0001962 -0.0012595 0.0010625 -0.0004658 0.0008506 -0.0011077 0.0007515 -0.0031114 0.0005988 -0.0016928 0.0006465 -0.0032765 0.0003989 -0.0009331 0.0002596 -0.0009981
0.0040168 -0.0004942 -0.0001330 -0.0010174 0.0004004 -0.0015625 0.0010850 -0.0005802 0.0008727 -0.0009493 0.0007630 -0.0029555 0.0010757 -0.0020257 0.0006079 -0.0029783 0.0003784 -0.0008556 0.0002914 -0.0010811
